Data from 0199_crown_Reflection__4__349.txt Node

Date: Fri Dec 15 19:46:25 CST 2023
User: ToomeyLab
Spectrometer: FLMS14357
Trigger mode: 0
Integration Time (sec): 1.000000E-2
Scans to average: 100
Electric dark correction enabled: true
Nonlinearity correction enabled: false
Boxcar width: 0
XAxis mode: Wavelengths
Number of Pixels in Spectrum: 2048
>>>>>Begin Spectral Data<<<<<
189.047	38.66
189.435	38.66
189.823	38.66
190.211	28.35
190.599	-50.58
190.987	986.39
191.375	-133.24
191.763	-90.98
192.151	93.19
192.538	94.28
192.926	-38.34
193.314	113.71
193.702	-111.24
194.089	-805.08
194.477	14.24
194.864	45.01
195.252	112.44
195.639	171.3
196.027	45.4
196.414	57.97
196.801	-192.53
197.189	68.25
197.576	183.52
197.963	-74.91
198.351	-126.84
198.738	2.7
199.125	49.78
199.512	25.33
199.899	6.31
200.286	23.92
200.673	3.01
201.06	-38.16
201.447	-24.55
201.833	-7.87
202.22	21.86
202.607	9.51
202.994	-15.55
203.38	29.79
203.767	16.95
204.154	30.94
204.54	65.5
204.927	-29.05
205.313	-4.12
205.699	31.44
206.086	31.17
206.472	-0.16
206.858	-3.74
207.245	-68.63
207.631	12.32
208.017	23.2
208.403	-8.36
208.789	12.72
209.175	3.36
209.561	15.17
209.947	-16.14
210.333	-45.88
210.719	-0.63
211.105	-4.25
211.491	-37.47
211.876	0.79
212.262	25.38
212.648	-13.91
213.034	23.05
213.419	-49.75
213.805	-21.27
214.19	-1.47
214.576	-4.1
214.961	-57.95
215.346	-52.49
215.732	-43
216.117	-6.71
216.502	-14.2
216.888	4.85
217.273	23.38
217.658	-24.77
218.043	-6.7
218.428	-69.33
218.813	-35.23
219.198	-17.35
219.583	20.19
219.968	20.86
220.353	-18.81
220.738	15.89
221.122	10.08
221.507	-29.79
221.892	-58.65
222.276	-30.59
222.661	11.25
223.046	5.82
223.43	22.72
223.815	8.9
224.199	-7.41
224.583	5.02
224.968	7.17
225.352	14.86
225.736	0.96
226.121	-3.62
226.505	-1.35
226.889	2.44
227.273	-3.4
227.657	12.87
228.041	3.71
228.425	3.44
228.809	4.9
229.193	7.52
229.577	4.77
229.961	6.12
230.344	4.83
230.728	4.96
231.112	6.08
231.495	5.55
231.879	5.53
232.263	7.3
232.646	5.24
233.03	4.47
233.413	5.41
233.797	5.85
234.18	3.95
234.563	6.17
234.946	1.45
235.33	4.92
235.713	6.48
236.096	4.79
236.479	7.88
236.862	5.52
237.245	8.12
237.628	5.73
238.011	3.57
238.394	7.57
238.777	4.31
239.16	4.84
239.543	4.31
239.925	4.8
240.308	6.47
240.691	5.7
241.073	6.54
241.456	4.83
241.838	4.71
242.221	5.21
242.603	5.47
242.986	5.53
243.368	6.15
243.75	5.53
244.133	5.38
244.515	5.84
244.897	5.85
245.279	6.29
245.661	6.13
246.043	5.79
246.425	5.09
246.807	6.4
247.189	5.16
247.571	5.53
247.953	6.21
248.335	5.3
248.717	5.71
249.098	5.75
249.48	5.7
249.862	6.02
250.243	5.39
250.625	5.58
251.006	5.96
251.388	4.28
251.769	5.27
252.151	6.36
252.532	6.07
252.913	5.35
253.295	5.39
253.676	4.93
254.057	5.45
254.438	5.55
254.819	5.35
255.2	5.18
255.581	4.33
255.962	5.22
256.343	5.05
256.724	4.68
257.105	6.06
257.486	4.65
257.867	5.46
258.247	5.81
258.628	4.44
259.009	4.49
259.389	5.14
259.77	5.57
260.15	4.35
260.531	4.61
260.911	5.67
261.292	5
261.672	5.54
262.052	5.43
262.432	5.56
262.813	5.74
263.193	4.69
263.573	5.21
263.953	4.76
264.333	5.87
264.713	5.01
265.093	4.5
265.473	5.26
265.853	4.32
266.233	5.67
266.612	3.59
266.992	4.21
267.372	4.88
267.752	5.04
268.131	4.93
268.511	5.54
268.89	5.08
269.27	4.29
269.649	4.65
270.029	5.3
270.408	5.95
270.787	5.71
271.167	5.44
271.546	5.69
271.925	4.91
272.304	4.84
272.683	5.8
273.062	4.97
273.441	5.1
273.82	4.35
274.199	4.79
274.578	5.4
274.957	5.22
275.336	5.01
275.715	4.38
276.093	4.99
276.472	5.06
276.851	5.52
277.229	4.36
277.608	4.6
277.986	4.63
278.365	4.64
278.743	4.68
279.122	4.93
279.5	5.72
279.878	4.81
280.257	5.38
280.635	4.24
281.013	5.04
281.391	4.99
281.769	4.73
282.147	5.36
282.525	4.76
282.903	4.48
283.281	5.17
283.659	5.12
284.037	5.24
284.415	4.79
284.792	5.23
285.17	4.51
285.548	4.25
285.925	5.33
286.303	4.52
286.68	4.72
287.058	5.03
287.435	4.49
287.813	4.85
288.19	4.58
288.567	5.1
288.945	5.11
289.322	4.71
289.699	4.43
290.076	4.53
290.453	4.66
290.83	4.29
291.207	4.78
291.584	4.52
291.961	5.32
292.338	4.82
292.715	4.92
293.092	4.88
293.469	4.88
293.845	5.42
294.222	4.18
294.599	4.53
294.975	4.98
295.352	4.98
295.728	4.44
296.105	4.61
296.481	4.76
296.858	4.77
297.234	4.45
297.61	4.87
297.986	4.86
298.363	4.88
298.739	4.95
299.115	4.95
299.491	4.61
299.867	5.03
300.243	5.22
300.619	4.36
300.995	4.61
301.371	5.09
301.746	4.21
302.122	5.29
302.498	5.05
302.874	4.82
303.249	4.91
303.625	4.82
304	5.02
304.376	5.06
304.751	4.82
305.127	5.44
305.502	4.15
305.878	4.53
306.253	4.94
306.628	5.59
307.003	4.23
307.378	4.72
307.754	4.29
308.129	4.09
308.504	4.39
308.879	4.95
309.254	5.15
309.629	4.9
310.003	4.72
310.378	5.13
310.753	4.91
311.128	5.09
311.502	4.94
311.877	5.26
312.252	4.4
312.626	5
313.001	4.75
313.375	5.09
313.75	4.69
314.124	5.17
314.498	4.77
314.873	4.82
315.247	4.36
315.621	4.75
315.995	3.87
316.369	4.6
316.743	4.69
317.117	4.99
317.491	4.88
317.865	4.69
318.239	4.12
318.613	4.82
318.987	4.6
319.361	4.09
319.734	4.64
320.108	4.8
320.482	4.06
320.855	4.56
321.229	4.05
321.602	3.96
321.976	4.46
322.349	4.87
322.723	4.63
323.096	4.4
323.469	3.82
323.843	4.35
324.216	4.77
324.589	4.34
324.962	4.74
325.335	4.4
325.708	4.54
326.081	4.47
326.454	5.05
326.827	4.48
327.2	4.85
327.573	4.46
327.945	4.78
328.318	4.75
328.691	4.61
329.063	5
329.436	5.24
329.809	5.13
330.181	4.46
330.553	4.89
330.926	4.27
331.298	4.59
331.671	4.7
332.043	5.11
332.415	4.81
332.787	4.45
333.159	5.15
333.532	5.52
333.904	4.52
334.276	4.35
334.648	4.62
335.02	4.31
335.391	4.27
335.763	4.63
336.135	4.13
336.507	4.61
336.879	4.77
337.25	4.87
337.622	4.91
337.993	4.81
338.365	4.91
338.736	4.35
339.108	4.4
339.479	4.21
339.851	4.33
340.222	3.9
340.593	4.15
340.964	4.38
341.336	4.99
341.707	4.14
342.078	4.7
342.449	5.15
342.82	4.9
343.191	4.69
343.562	4.68
343.933	4.9
344.303	4.6
344.674	4.52
345.045	4.43
345.416	4.95
345.786	4.16
346.157	4.64
346.527	4.09
346.898	4.14
347.268	4.51
347.639	4.65
348.009	4.45
348.38	4.11
348.75	4.8
349.12	4.35
349.49	5.28
349.861	4.77
350.231	4.59
350.601	4.77
350.971	4.36
351.341	4.91
351.711	4.44
352.081	4.56
352.45	4.52
352.82	4.9
353.19	4.82
353.56	4.32
353.929	4.61
354.299	4.55
354.669	4.19
355.038	4.45
355.408	4.7
355.777	4.84
356.147	4.49
356.516	4.7
356.885	4.8
357.254	4.47
357.624	4.84
357.993	4.72
358.362	4.47
358.731	4.46
359.1	4.99
359.469	4.72
359.838	4.91
360.207	4.64
360.576	4.59
360.945	4.83
361.314	4.91
361.682	4.48
362.051	4.6
362.42	4.69
362.788	4.36
363.157	4.65
363.525	4.84
363.894	4.91
364.262	4.82
364.631	4.85
364.999	4.91
365.367	4.31
365.735	5.37
366.104	4.83
366.472	4.5
366.84	4.53
367.208	4.33
367.576	4.94
367.944	4.76
368.312	4.47
368.68	4.49
369.048	5.05
369.416	4.83
369.783	4.76
370.151	4.68
370.519	5.09
370.886	4.82
371.254	3.89
371.621	5.09
371.989	5.16
372.356	4.14
372.724	5.16
373.091	4.37
373.458	4.82
373.826	4.58
374.193	4.54
374.56	5.03
374.927	4.96
375.294	4.95
375.661	4.8
376.028	4.76
376.395	4.58
376.762	4.8
377.129	4.65
377.496	4.52
377.863	4.86
378.229	4.17
378.596	4.78
378.963	4.82
379.329	4.47
379.696	4.73
380.062	4.74
380.429	4.85
380.795	4.86
381.161	4.86
381.528	4.74
381.894	4.53
382.26	4.51
382.626	4.85
382.993	4.55
383.359	4.99
383.725	4.66
384.091	4.78
384.457	5.16
384.823	4.73
385.188	5.03
385.554	4.71
385.92	4.94
386.286	4.99
386.651	5.04
387.017	4.99
387.383	4.51
387.748	4.84
388.114	4.77
388.479	4.63
388.845	5.07
389.21	4.87
389.575	5.18
389.94	4.98
390.306	4.96
390.671	5.04
391.036	4.39
391.401	4.47
391.766	4.71
392.131	4.61
392.496	4.91
392.861	4.77
393.226	5.21
393.591	4.96
393.956	4.73
394.32	5.16
394.685	4.56
395.05	4.8
395.414	4.68
395.779	4.7
396.143	4.86
396.508	4.91
396.872	4.96
397.236	5.04
397.601	4.99
397.965	5.22
398.329	4.97
398.694	4.94
399.058	5.04
399.422	4.76
399.786	5.07
400.15	4.83
400.514	4.78
400.878	4.91
401.242	4.99
401.605	5.1
401.969	5.02
402.333	5.16
402.697	5.01
403.06	5.12
403.424	5.03
403.787	5.13
404.151	5.13
404.514	5.12
404.878	4.93
405.241	5.11
405.604	4.97
405.968	5.16
406.331	5.04
406.694	5.36
407.057	5.03
407.42	5.02
407.783	4.85
408.146	5.11
408.509	5.2
408.872	4.75
409.235	5.04
409.598	5.37
409.961	4.99
410.323	5
410.686	5.01
411.049	4.94
411.411	4.97
411.774	5.04
412.136	5.14
412.499	5
412.861	4.83
413.223	4.8
413.586	4.82
413.948	5.12
414.31	5.13
414.672	5.08
415.035	4.86
415.397	5.05
415.759	4.97
416.121	5.04
416.483	5.12
416.845	5.03
417.206	4.97
417.568	4.99
417.93	4.83
418.292	5.04
418.653	5.1
419.015	5.03
419.377	4.91
419.738	5.15
420.1	5.13
420.461	5.09
420.822	4.93
421.184	5.01
421.545	5.12
421.906	4.92
422.267	4.93
422.629	4.96
422.99	4.91
423.351	4.91
423.712	4.95
424.073	5.02
424.434	5.04
424.795	4.98
425.155	4.95
425.516	5.01
425.877	5.01
426.238	4.97
426.598	5.08
426.959	4.97
427.32	4.96
427.68	5.03
428.041	4.91
428.401	5.12
428.761	4.97
429.122	5.15
429.482	4.92
429.842	5.23
430.202	5.11
430.563	5.14
430.923	5.1
431.283	5.23
431.643	5.09
432.003	5.18
432.363	5.28
432.722	4.98
433.082	5.23
433.442	5.01
433.802	5
434.161	5.17
434.521	5.27
434.881	5.22
435.24	5.03
435.6	5.22
435.959	5.06
436.319	5.17
436.678	5.08
437.037	5.16
437.396	5.25
437.756	5.13
438.115	5.15
438.474	5.3
438.833	4.89
439.192	5.12
439.551	5.26
439.91	5.09
440.269	5.17
440.628	5.09
440.987	5.2
441.345	4.87
441.704	5.2
442.063	5.14
442.421	5.07
442.78	5.18
443.138	5.01
443.497	5.06
443.855	5.03
444.214	5.07
444.572	5.25
444.93	5
445.288	5.08
445.647	5.25
446.005	5.14
446.363	5.22
446.721	5.3
447.079	5
447.437	5.21
447.795	5.12
448.153	5.01
448.51	5.1
448.868	5.16
449.226	5.15
449.584	5.14
449.941	5.27
450.299	5.21
450.656	5.18
451.014	5.17
451.371	5.09
451.729	5.13
452.086	5.36
452.443	5.21
452.801	5.37
453.158	5.13
453.515	5.07
453.872	5.3
454.229	5.22
454.586	5.16
454.943	5.2
455.3	5.33
455.657	5.36
456.014	5.21
456.371	5.19
456.727	5.3
457.084	5.3
457.441	5.18
457.797	5.47
458.154	5.41
458.51	5.44
458.867	5.34
459.223	5.31
459.58	5.41
459.936	5.43
460.292	5.28
460.648	5.29
461.005	5.29
461.361	5.18
461.717	5.12
462.073	5.2
462.429	5.17
462.785	5.16
463.141	5.33
463.496	5.31
463.852	5.44
464.208	5.33
464.564	5.5
464.919	5.44
465.275	5.31
465.631	5.52
465.986	5.22
466.342	5.39
466.697	5.38
467.052	5.34
467.408	5.43
467.763	5.36
468.118	5.38
468.473	5.26
468.829	5.46
469.184	5.27
469.539	5.48
469.894	5.38
470.249	5.43
470.603	5.51
470.958	5.53
471.313	5.48
471.668	5.34
472.023	5.36
472.377	5.39
472.732	5.28
473.086	5.29
473.441	5.19
473.795	5.44
474.15	5.52
474.504	5.39
474.859	5.36
475.213	5.36
475.567	5.44
475.921	5.25
476.275	5.52
476.63	5.46
476.984	5.43
477.338	5.36
477.692	5.35
478.045	5.36
478.399	5.4
478.753	5.4
479.107	5.35
479.461	5.42
479.814	5.53
480.168	5.36
480.521	5.39
480.875	5.37
481.228	5.36
481.582	5.44
481.935	5.54
482.289	5.41
482.642	5.5
482.995	5.33
483.348	5.32
483.701	5.39
484.055	5.43
484.408	5.4
484.761	5.29
485.114	5.23
485.466	5.09
485.819	5.1
486.172	5.12
486.525	5.25
486.878	5.33
487.23	5.36
487.583	5.37
487.936	5.36
488.288	5.38
488.641	5.37
488.993	5.2
489.345	5.2
489.698	5.26
490.05	5.23
490.402	5.31
490.754	5.38
491.107	5.39
491.459	5.46
491.811	5.55
492.163	5.43
492.515	5.39
492.866	5.42
493.218	5.33
493.57	5.28
493.922	5.28
494.274	5.39
494.625	5.53
494.977	5.51
495.328	5.53
495.68	5.61
496.031	5.67
496.383	5.53
496.734	5.64
497.086	5.73
497.437	5.54
497.788	5.61
498.139	5.42
498.49	5.64
498.842	5.4
499.193	5.57
499.544	5.59
499.894	5.56
500.245	5.61
500.596	5.53
500.947	5.6
501.298	5.48
501.648	5.62
501.999	5.73
502.35	5.64
502.7	5.64
503.051	5.53
503.401	5.56
503.752	5.75
504.102	5.56
504.452	5.62
504.803	5.59
505.153	5.58
505.503	5.59
505.853	5.64
506.203	5.53
506.553	5.48
506.903	5.55
507.253	5.64
507.603	5.64
507.953	5.69
508.303	5.81
508.652	5.58
509.002	5.78
509.352	5.69
509.701	5.69
510.051	5.69
510.4	5.61
510.75	5.67
511.099	5.75
511.449	5.64
511.798	5.69
512.147	5.63
512.496	5.61
512.846	5.7
513.195	5.61
513.544	5.73
513.893	5.78
514.242	5.67
514.591	5.8
514.939	5.73
515.288	5.55
515.637	5.73
515.986	5.73
516.334	5.86
516.683	5.82
517.032	5.78
517.38	5.76
517.729	5.72
518.077	5.59
518.426	5.85
518.774	5.81
519.122	5.82
519.47	5.71
519.819	5.56
520.167	5.57
520.515	5.64
520.863	5.7
521.211	5.76
521.559	5.79
521.907	5.74
522.255	5.84
522.602	5.78
522.95	5.75
523.298	5.82
523.645	5.87
523.993	5.71
524.341	5.9
524.688	5.98
525.036	5.75
525.383	5.9
525.73	5.93
526.078	5.69
526.425	5.75
526.772	5.88
527.119	5.72
527.466	5.68
527.814	5.75
528.161	5.77
528.508	5.75
528.854	5.67
529.201	5.68
529.548	5.62
529.895	5.61
530.242	5.49
530.588	5.47
530.935	5.55
531.282	5.63
531.628	5.59
531.975	5.69
532.321	5.72
532.667	5.88
533.014	5.88
533.36	5.74
533.706	5.75
534.052	5.79
534.399	5.68
534.745	5.62
535.091	5.65
535.437	5.68
535.783	5.72
536.129	5.84
536.474	5.85
536.82	5.87
537.166	5.91
537.512	5.96
537.857	5.86
538.203	5.82
538.549	5.79
538.894	5.81
539.239	5.83
539.585	5.74
539.93	5.83
540.276	6.01
540.621	6.04
540.966	6.11
541.311	5.89
541.656	5.9
542.001	5.9
542.346	5.95
542.691	5.8
543.036	5.69
543.381	5.67
543.726	5.74
544.071	5.8
544.415	5.83
544.76	5.85
545.105	5.85
545.449	5.9
545.794	6.05
546.138	5.95
546.483	6.07
546.827	6.06
547.171	5.94
547.516	6.07
547.86	5.92
548.204	6.04
548.548	5.93
548.892	5.97
549.236	5.86
549.58	5.99
549.924	6.13
550.268	6.1
550.612	6.14
550.956	6.23
551.3	6.27
551.643	6.31
551.987	6.18
552.33	6.12
552.674	6.15
553.017	6.09
553.361	6.04
553.704	6.24
554.048	6.06
554.391	6.01
554.734	6.02
555.077	6.15
555.42	5.93
555.764	6.17
556.107	6.04
556.45	5.95
556.793	6.17
557.135	6.15
557.478	6.32
557.821	6.31
558.164	6.26
558.507	6.09
558.849	5.94
559.192	6.27
559.534	6.32
559.877	6.12
560.219	6.14
560.562	6.45
560.904	6.12
561.246	6.22
561.589	6.28
561.931	6.15
562.273	6.31
562.615	6.17
562.957	6.28
563.299	6.13
563.641	6.36
563.983	6.25
564.325	6.24
564.667	6.05
565.008	6.24
565.35	6.15
565.692	5.85
566.033	6.36
566.375	6.32
566.716	6.4
567.058	6.25
567.399	6.2
567.741	6.12
568.082	6.16
568.423	6.14
568.764	5.99
569.105	6.22
569.447	6.12
569.788	6.23
570.129	6.48
570.47	6.25
570.811	6.39
571.151	6.5
571.492	6.35
571.833	6.21
572.174	6.25
572.514	6.34
572.855	6.3
573.195	6.29
573.536	6.16
573.876	6.04
574.217	6.16
574.557	6.4
574.898	6.33
575.238	6.43
575.578	6.23
575.918	6.48
576.258	6.34
576.598	6.29
576.938	6.22
577.278	6.35
577.618	6.26
577.958	6.28
578.298	6.52
578.638	6.26
578.977	6.44
579.317	6.26
579.657	6.3
579.996	6.34
580.336	6.3
580.675	6.17
581.014	6.37
581.354	6.43
581.693	6.57
582.032	6.36
582.372	6.38
582.711	6.61
583.05	6.33
583.389	6.44
583.728	6.41
584.067	6.58
584.406	6.21
584.745	6.7
585.083	6.74
585.422	6.58
585.761	6.59
586.1	6.55
586.438	6.47
586.777	6.62
587.115	6.7
587.454	6.23
587.792	6.18
588.13	6.41
588.469	6.33
588.807	6.54
589.145	6.18
589.483	6.49
589.821	6.44
590.159	6.7
590.497	7.02
590.835	6.86
591.173	6.5
591.511	6.69
591.849	6.41
592.187	6.75
592.524	6.66
592.862	6.4
593.2	6.65
593.537	6.43
593.875	6.4
594.212	6.58
594.55	6.73
594.887	6.7
595.224	6.43
595.561	6.55
595.899	6.26
596.236	6.45
596.573	6.45
596.91	6.18
597.247	6.42
597.584	6.81
597.921	6.6
598.258	6.27
598.594	6.63
598.931	6.5
599.268	6.62
599.604	6.38
599.941	6.75
600.277	6.45
600.614	6.41
600.95	6.43
601.287	6.87
601.623	6.72
601.959	6.56
602.296	6.72
602.632	6.4
602.968	6.75
603.304	6.64
603.64	6.71
603.976	6.73
604.312	6.45
604.648	6.4
604.984	6.65
605.319	6.72
605.655	6.82
605.991	6.6
606.326	6.54
606.662	6.55
606.998	6.53
607.333	6.7
607.668	6.78
608.004	6.71
608.339	6.81
608.674	6.91
609.01	6.52
609.345	6.61
609.68	6.91
610.015	6.59
610.35	6.56
610.685	6.56
611.02	6.56
611.355	6.72
611.689	6.5
612.024	6.84
612.359	6.66
612.694	6.65
613.028	6.76
613.363	6.66
613.697	6.81
614.032	7.12
614.366	6.78
614.7	6.73
615.035	6.79
615.369	6.48
615.703	6.75
616.037	6.68
616.371	6.36
616.705	6.38
617.039	6.83
617.373	6.82
617.707	6.61
618.041	6.83
618.375	7.04
618.709	6.95
619.042	6.94
619.376	7.27
619.71	7.21
620.043	6.89
620.377	6.53
620.71	7.28
621.043	6.64
621.377	6.83
621.71	6.92
622.043	6.4
622.376	6.55
622.709	6.63
623.043	7.14
623.376	7.02
623.709	6.53
624.041	6.83
624.374	7.01
624.707	6.83
625.04	7.08
625.373	6.67
625.705	7.03
626.038	6.69
626.37	6.81
626.703	6.92
627.035	6.88
627.368	7.41
627.7	6.63
628.032	6.84
628.365	7.07
628.697	6.69
629.029	6.79
629.361	6.83
629.693	6.75
630.025	6.91
630.357	7.12
630.689	7.01
631.021	6.9
631.353	7.11
631.684	6.97
632.016	6.54
632.348	7.08
632.679	7.18
633.011	7.29
633.342	7.17
633.674	6.94
634.005	7.4
634.336	7.11
634.668	7.46
634.999	6.91
635.33	7.3
635.661	7.25
635.992	6.86
636.323	7.34
636.654	7.23
636.985	7.15
637.316	6.94
637.647	6.88
637.977	7.37
638.308	7.25
638.639	6.64
638.969	6.94
639.3	6.89
639.63	6.53
639.961	7.14
640.291	7
640.622	6.82
640.952	7.01
641.282	7.5
641.612	6.8
641.943	6.78
642.273	7.18
642.603	7.53
642.933	7.24
643.263	7.36
643.592	7.04
643.922	6.76
644.252	7.36
644.582	7.19
644.911	7.2
645.241	6.92
645.571	7.21
645.9	6.78
646.23	7.34
646.559	7.56
646.888	6.64
647.218	7.05
647.547	7.61
647.876	6.73
648.205	7.28
648.534	7.2
648.863	6.8
649.192	7.66
649.521	6.77
649.85	6.87
650.179	7.02
650.508	7.1
650.837	6.99
651.165	6.81
651.494	7.26
651.822	7.47
652.151	6.89
652.479	7.45
652.808	6.69
653.136	7.16
653.465	6.89
653.793	6.85
654.121	6.95
654.449	7.07
654.777	7.48
655.105	7.09
655.433	7.13
655.761	6.99
656.089	7.33
656.417	7.52
656.745	7.32
657.073	7.2
657.4	7.53
657.728	7.39
658.056	7.67
658.383	7.15
658.711	7.6
659.038	7.43
659.365	7.47
659.693	7.09
660.02	7.01
660.347	7.34
660.674	7.06
661.001	7.42
661.329	6.76
661.656	7.59
661.982	7.28
662.309	6.7
662.636	7.15
662.963	7.91
663.29	7.69
663.616	7.69
663.943	6.39
664.27	7.1
664.596	7.78
664.923	7.45
665.249	7.31
665.576	7.03
665.902	7.7
666.228	7.58
666.554	7.8
666.881	8.08
667.207	7.08
667.533	7.81
667.859	7.63
668.185	8.05
668.511	6.53
668.837	6.73
669.162	7.51
669.488	7.3
669.814	7.92
670.139	7.77
670.465	7.49
670.791	7.95
671.116	8.48
671.442	7.53
671.767	7.56
672.092	8.01
672.418	7.94
672.743	7.75
673.068	7.41
673.393	7.29
673.718	7.58
674.043	7.74
674.368	7.56
674.693	8.14
675.018	7.81
675.343	7.77
675.667	7.86
675.992	7.63
676.317	7.87
676.641	7.44
676.966	7.68
677.29	7.72
677.615	7.67
677.939	7.95
678.264	8.27
678.588	7.78
678.912	8.15
679.236	7.83
679.56	7.4
679.885	7.74
680.209	7.36
680.532	7.9
680.856	8.07
681.18	7.24
681.504	7.38
681.828	8.08
682.152	7.73
682.475	7.76
682.799	7.85
683.122	7.71
683.446	7.71
683.769	8.1
684.093	7.36
684.416	8.38
684.739	7.46
685.062	7.76
685.386	8.11
685.709	7.39
686.032	7.64
686.355	8.02
686.678	7.72
687.001	7.24
687.324	8.49
687.646	7.46
687.969	7.67
688.292	7.9
688.614	7.47
688.937	8.25
689.26	8.05
689.582	8.61
689.904	7.81
690.227	7.68
690.549	7.78
690.871	8.24
691.194	7.42
691.516	7.25
691.838	7.68
692.16	7.48
692.482	7.94
692.804	7.69
693.126	8.21
693.448	7.82
693.769	8.3
694.091	7.87
694.413	8.28
694.735	7.73
695.056	7.98
695.378	8.25
695.699	7.56
696.021	7.9
696.342	7.71
696.663	6.69
696.984	8.08
697.306	7.95
697.627	8.53
697.948	7.44
698.269	8.41
698.59	8.08
698.911	7.81
699.232	8.45
699.553	8.42
699.873	7.94
700.194	9.13
700.515	8.28
700.835	8.1
701.156	8.29
701.477	8.47
701.797	8.06
702.117	8.32
702.438	8.14
702.758	8.57
703.078	8.05
703.398	7.49
703.719	7.65
704.039	6.67
704.359	8.64
704.679	7.63
704.999	7.64
705.319	7.49
705.638	6.91
705.958	8.26
706.278	7.39
706.597	7.39
706.917	7.5
707.237	7.69
707.556	8.02
707.876	7.55
708.195	9.21
708.514	7.06
708.834	8.04
709.153	8
709.472	8.69
709.791	8.92
710.11	7.44
710.429	8.66
710.748	9.16
711.067	7.51
711.386	8.77
711.705	8.42
712.023	8.72
712.342	7.69
712.661	7.98
712.979	7.84
713.298	8.63
713.616	9.2
713.935	8.38
714.253	8.03
714.572	8.03
714.89	8.24
715.208	9.32
715.526	8.52
715.844	8.44
716.162	9.82
716.48	8.48
716.798	8.3
717.116	7.6
717.434	7.28
717.752	7.64
718.069	8.8
718.387	7.81
718.705	7.63
719.022	7.23
719.34	8.43
719.657	7.58
719.975	9.26
720.292	8.93
720.609	7.99
720.927	8.25
721.244	9.27
721.561	8.45
721.878	9.3
722.195	7.36
722.512	8.42
722.829	7.72
723.146	7.89
723.463	9.94
723.779	7.8
724.096	9.42
724.413	7.36
724.729	7.99
725.046	8.06
725.362	8.92
725.679	8.69
725.995	8.5
726.311	7.41
726.628	9.81
726.944	9.17
727.26	9.62
727.576	9.86
727.892	7.95
728.208	8.23
728.524	8.39
728.84	7.11
729.156	7.99
729.472	7.38
729.787	9.41
730.103	8.08
730.419	8.81
730.734	8.96
731.05	6.81
731.365	7.34
731.681	8.36
731.996	10.14
732.311	9.36
732.626	9.23
732.942	7.74
733.257	8.41
733.572	9.02
733.887	8.61
734.202	9.19
734.517	8.78
734.832	8.48
735.146	8.66
735.461	7.83
735.776	10.64
736.091	8.45
736.405	8.92
736.72	8.83
737.034	9.57
737.349	10.43
737.663	9.86
737.977	8.14
738.292	9.56
738.606	9.49
738.92	9.73
739.234	8.99
739.548	7.57
739.862	9.05
740.176	8.44
740.49	9.29
740.804	10.23
741.117	8.94
741.431	8.2
741.745	8.25
742.058	7.75
742.372	8.4
742.685	9.52
742.999	9.1
743.312	6.75
743.626	9.06
743.939	7.97
744.252	9.24
744.565	9.15
744.878	9.94
745.191	8.91
745.505	8.61
745.817	9.95
746.13	9.99
746.443	11.54
746.756	11.21
747.069	7.78
747.381	9.74
747.694	7.73
748.007	9.38
748.319	8.61
748.632	8.03
748.944	9.7
749.256	10.3
749.569	9.27
749.881	10.84
750.193	10.52
750.505	8.14
750.817	9.79
751.129	10.91
751.441	8.17
751.753	8.65
752.065	8.62
752.377	7.97
752.689	10.22
753	7.62
753.312	8.65
753.624	8.28
753.935	10.09
754.247	9.64
754.558	9.12
754.869	8.93
755.181	8.82
755.492	9.34
755.803	8.28
756.114	9.67
756.425	8.52
756.736	7.47
757.047	10.81
757.358	10.88
757.669	9.55
757.98	8.26
758.291	9.65
758.601	11.11
758.912	8.14
759.223	10.73
759.533	7.45
759.844	10.02
760.154	8.8
760.464	11.48
760.775	10.65
761.085	9.36
761.395	11.07
761.705	9.05
762.016	9.26
762.326	8.88
762.636	8.94
762.945	8.94
763.255	10.9
763.565	9.04
763.875	12.7
764.185	8.98
764.494	9.85
764.804	10.86
765.113	10.71
765.423	9.69
765.732	9.51
766.042	9.4
766.351	10.55
766.66	10.06
766.97	11.24
767.279	8.85
767.588	10.18
767.897	11.28
768.206	9.6
768.515	10.59
768.824	8.96
769.133	9.28
769.441	9.8
769.75	9.71
770.059	9.42
770.367	9.28
770.676	9.47
770.984	9.48
771.293	10.05
771.601	7.83
771.91	8.04
772.218	12.34
772.526	9.35
772.834	10.5
773.142	7.05
773.45	8.84
773.758	5.31
774.066	11.57
774.374	10.5
774.682	9.8
774.99	10.44
775.298	7.94
775.605	6.69
775.913	8.26
776.22	11.53
776.528	11.9
776.835	8.63
777.143	9.59
777.45	11.7
777.757	11.16
778.065	11.2
778.372	8.27
778.679	7.63
778.986	8.01
779.293	6.85
779.6	8.76
779.907	6.81
780.214	11.38
780.52	12.95
780.827	11.91
781.134	12.5
781.44	9.51
781.747	7.47
782.053	9.34
782.36	8.63
782.666	11.11
782.973	7.85
783.279	9.74
783.585	9.86
783.891	9.5
784.197	12.64
784.503	14.5
784.809	8.14
785.115	9.9
785.421	12.96
785.727	9.92
786.033	10.19
786.339	11.84
786.644	10.08
786.95	12.29
787.255	8.79
787.561	10.16
787.866	8.15
788.172	7.3
788.477	10.4
788.782	11.51
789.088	5.26
789.393	8.75
789.698	11.06
790.003	11.05
790.308	10.85
790.613	5.82
790.918	10.82
791.223	11.25
791.527	3.06
791.832	9.57
792.137	6.97
792.441	10.19
792.746	9.55
793.05	4.63
793.355	11.44
793.659	15.37
793.963	9.09
794.268	10.55
794.572	15.77
794.876	12.03
795.18	14.41
795.484	5.62
795.788	13.99
796.092	8.89
796.396	7.68
796.7	12.12
797.004	11.21
797.307	8.81
797.611	16.56
797.915	9.15
798.218	9.19
798.522	13.29
798.825	10.13
799.128	11.61
799.432	7.06
799.735	7.27
800.038	15.52
800.341	9.65
800.644	8.6
800.947	10.95
801.25	8.16
801.553	8.18
801.856	7.44
802.159	6.63
802.462	10.35
802.764	5.42
803.067	7.83
803.37	7.51
803.672	2.52
803.975	5.69
804.277	11.25
804.579	8.35
804.882	15.45
805.184	11.61
805.486	7.55
805.788	13.72
806.09	14.75
806.392	9.9
806.694	10.2
806.996	12.5
807.298	12.12
807.6	10.99
807.902	11.83
808.203	6.26
808.505	12.1
808.807	5.56
809.108	9.78
809.409	12.81
809.711	7.05
810.012	7.43
810.313	6.7
810.615	9.82
810.916	5.41
811.217	8.75
811.518	11.05
811.819	5.73
812.12	13.55
812.421	7.9
812.722	12.82
813.023	13
813.323	10.86
813.624	6.13
813.925	18.91
814.225	8.48
814.526	17.03
814.826	17.63
815.126	10.31
815.427	2.57
815.727	9.17
816.027	8.79
816.327	12.76
816.627	4.95
816.927	16.47
817.227	11.38
817.527	8.07
817.827	14.66
818.127	10.15
818.427	8.25
818.727	12.98
819.026	14.07
819.326	10.94
819.625	6.48
819.925	9.2
820.224	12.17
820.524	8.14
820.823	15.71
821.122	11
821.421	8.12
821.72	9.19
822.019	4.68
822.318	12.04
822.617	9.23
822.916	8.23
823.215	10.05
823.514	13.2
823.813	7.88
824.111	12.55
824.41	11.84
824.709	12.84
825.007	11.82
825.306	13.23
825.604	13
825.902	12.06
826.201	12.39
826.499	13.51
826.797	13.39
827.095	13.03
827.393	11.8
827.691	13.04
827.989	10.92
828.287	14.1
828.585	10.68
828.882	12.05
829.18	14.12
829.478	14.46
829.775	12.1
830.073	14.64
830.37	13.16
830.668	11.38
830.965	14.81
831.263	9.29
831.56	12.1
831.857	10.48
832.154	14.91
832.451	13.85
832.748	15.01
833.045	11.95
833.342	12.33
833.639	12.93
833.936	13.79
834.232	15.34
834.529	2.01
834.826	8.72
835.122	8.6
835.419	14.5
835.715	7
836.012	10.08
836.308	8.73
836.604	8.55
836.901	11.2
837.197	11.05
837.493	12.12
837.789	10.69
838.085	14.54
838.381	12.08
838.677	8.76
838.972	11.33
839.268	10.06
839.564	14.21
839.86	14.63
840.155	8.06
840.451	8.95
840.746	10.46
841.042	11.15
841.337	10.07
841.632	12.2
841.928	22.52
842.223	3.63
842.518	-1.87
842.813	17.93
843.108	7.08
843.403	23.97
843.698	12.29
843.993	15.54
844.287	10.94
844.582	4.98
844.877	6.24
845.171	12.66
845.466	3.65
845.761	9.3
846.055	2.96
846.349	20.28
846.644	25.27
846.938	-15.73
847.232	2.45
847.526	4.88
847.82	18.75
848.114	-6.23
848.408	-2.11
848.702	15.27
848.996	-11.98
849.29	14.16
849.584	-0.18
849.877	9.13
850.171	20.85
850.465	-3.62
850.758	21.05
851.052	-11.49
851.345	6.07
851.638	13.41
851.932	-13.59
852.225	-9.68
852.518	14.51
852.811	-5.63
853.104	-34.07
853.397	18.42
853.69	-22.56
853.983	14.32
854.276	9.41
854.569	8.4
854.861	-2.46
855.154	16.9
855.447	-46.56
855.739	21.36
856.032	0.56
856.324	32.97
856.616	23.63
856.909	26.81
857.201	24.72
857.493	0.98
857.785	-15.31
858.077	3.93
858.369	9.47
858.661	20.9
858.953	2.79
859.245	-13.43
859.537	19.07
859.829	30.72
860.12	7.31
860.412	-14.19
860.703	3.05
860.995	9.93
861.286	-8.06
861.578	3.53
861.869	22.33
862.16	-7.86
862.452	13.43
862.743	17.77
863.034	24.4
863.325	-11.72
863.616	7.23
863.907	-20.63
864.198	-1.37
864.488	16.04
864.779	2.61
865.07	-9.15
865.36	-21.35
865.651	-4.24
865.941	22.03
866.232	8.05
866.522	-10.88
866.813	-4.85
867.103	20.77
867.393	7.01
867.683	7.95
867.973	-16.27
868.263	-8.41
868.553	32.16
868.843	37.17
869.133	-40.44
869.423	-3.94
869.713	38.1
870.002	36.63
870.292	24.09
870.582	17.33
870.871	-7.92
871.161	-10.52
871.45	-3.94
871.739	-15.2
872.029	20.27
872.318	33.43
872.607	45.11
872.896	12.88
873.185	-2.97
873.474	-22.01
873.763	-16.89
874.052	-2.35
874.341	46.45
874.63	20.62
874.918	8.09
875.207	34.9
875.496	14.94
875.784	2.03
876.073	-52.74
876.361	-52.67
876.649	6.81
876.938	29.38
877.226	26.04
877.514	3.54
877.802	7.77
878.09	7.21
878.378	30.29
878.666	-17.73
878.954	5.18
879.242	19.36
879.53	25.46
879.817	27.91
880.105	20.05
880.392	-1.47
880.68	0.67
880.967	-25.9
881.255	16.81
881.542	-17.78
881.83	-49.69
882.117	-12.77
882.404	-20.57
882.691	18.39
882.978	-6.53
883.265	-1.1
883.552	25.48
883.839	2.83
884.126	6.2
884.413	10.68
884.699	16.96
884.986	20.4
885.273	13.79
885.559	13.79
885.846	13.79
