Data from 0199_forehead_Reflection__0__350.txt Node

Date: Fri Dec 15 19:46:58 CST 2023
User: ToomeyLab
Spectrometer: FLMS14357
Trigger mode: 0
Integration Time (sec): 1.000000E-2
Scans to average: 100
Electric dark correction enabled: true
Nonlinearity correction enabled: false
Boxcar width: 0
XAxis mode: Wavelengths
Number of Pixels in Spectrum: 2048
>>>>>Begin Spectral Data<<<<<
189.047	-424.17
189.435	-424.17
189.823	-424.17
190.211	-65.49
190.599	5.03
190.987	1021.8
191.375	110.61
191.763	-27.26
192.151	-86.64
192.538	61.83
192.926	-266.95
193.314	18.34
193.702	115.94
194.089	991.53
194.477	90.23
194.864	-146.08
195.252	99.96
195.639	36.18
196.027	242.27
196.414	102.13
196.801	-176.59
197.189	106.98
197.576	162.13
197.963	35.04
198.351	18.67
198.738	3.08
199.125	-37.31
199.512	-44.66
199.899	-0.54
200.286	0.29
200.673	5.3
201.06	-11.03
201.447	-23.56
201.833	-36.47
202.22	31.71
202.607	33.51
202.994	39.07
203.38	32.65
203.767	17.95
204.154	-4.64
204.54	25.95
204.927	-32.98
205.313	-60.33
205.699	26.6
206.086	27.72
206.472	20.6
206.858	-9.27
207.245	-48.66
207.631	33.76
208.017	-0.45
208.403	-29.26
208.789	25.08
209.175	8.37
209.561	-15.81
209.947	47.31
210.333	-42.82
210.719	23.6
211.105	6.43
211.491	-51.3
211.876	42.1
212.262	-7.38
212.648	2.37
213.034	18.12
213.419	-10.56
213.805	-36.87
214.19	-15.65
214.576	17.23
214.961	-6.34
215.346	-75.28
215.732	-32.47
216.117	11.64
216.502	3.82
216.888	-30.18
217.273	16.82
217.658	-41.86
218.043	12.89
218.428	-51.78
218.813	-33.6
219.198	-25.93
219.583	-17.17
219.968	-23.24
220.353	-12.15
220.738	7.16
221.122	14.14
221.507	-13.31
221.892	-37.69
222.276	-24.46
222.661	0.09
223.046	-0.87
223.43	11.49
223.815	2.38
224.199	-20
224.583	-16.28
224.968	0.06
225.352	10.87
225.736	-1.82
226.121	-11.58
226.505	-3.32
226.889	6.53
227.273	-5.97
227.657	5.15
228.041	0.53
228.425	-0.4
228.809	3.51
229.193	2.52
229.577	1.26
229.961	3.33
230.344	1.61
230.728	2.04
231.112	2.27
231.495	1.86
231.879	0.51
232.263	1.63
232.646	1.73
233.03	2.02
233.413	1.08
233.797	2.57
234.18	1.75
234.563	0.71
234.946	-0.23
235.33	3.12
235.713	3.4
236.096	2.16
236.479	2.43
236.862	2.36
237.245	2.3
237.628	1.35
238.011	3.14
238.394	4.73
238.777	1.22
239.16	1.6
239.543	3.08
239.925	1.65
240.308	1.16
240.691	3.87
241.073	3.95
241.456	1.61
241.838	2.19
242.221	0.91
242.603	2.23
242.986	2.86
243.368	3.64
243.75	3.18
244.133	2.33
244.515	2.53
244.897	2.44
245.279	2.89
245.661	2.79
246.043	2.29
246.425	1.32
246.807	3.24
247.189	3.44
247.571	3.49
247.953	2.53
248.335	2.73
248.717	2.82
249.098	2.55
249.48	2.71
249.862	2.36
250.243	2.54
250.625	2.53
251.006	2.86
251.388	1.71
251.769	2.55
252.151	2.28
252.532	2.55
252.913	2.36
253.295	1.8
253.676	2.57
254.057	3.28
254.438	2.57
254.819	2.34
255.2	1.71
255.581	1.69
255.962	1.23
256.343	2.44
256.724	2.95
257.105	3.86
257.486	1.71
257.867	2.71
258.247	2.52
258.628	3.12
259.009	1.9
259.389	2.85
259.77	2.04
260.15	1.8
260.531	1.99
260.911	3.54
261.292	2.78
261.672	3.01
262.052	2.83
262.432	2.98
262.813	2.93
263.193	2.99
263.573	2.37
263.953	2.86
264.333	3.34
264.713	2.82
265.093	3
265.473	2.95
265.853	1.61
266.233	3.32
266.612	0.58
266.992	2.45
267.372	2.36
267.752	2.52
268.131	2.97
268.511	3.33
268.89	2.74
269.27	2.37
269.649	2.18
270.029	2.52
270.408	2.94
270.787	2.61
271.167	2.65
271.546	2.91
271.925	2.01
272.304	2.82
272.683	2.77
273.062	2.73
273.441	2.82
273.82	1.97
274.199	2.64
274.578	2.57
274.957	2.33
275.336	2.53
275.715	2.42
276.093	2.53
276.472	3.2
276.851	2.84
277.229	2.21
277.608	2.06
277.986	2.63
278.365	2.32
278.743	2.11
279.122	2.55
279.5	2.98
279.878	3.02
280.257	1.83
280.635	2.45
281.013	2.72
281.391	2.73
281.769	2.98
282.147	2.96
282.525	2.93
282.903	2.35
283.281	2.98
283.659	2.71
284.037	2.69
284.415	3.11
284.792	3.41
285.17	1.78
285.548	2.73
285.925	2.35
286.303	2.93
286.68	2.43
287.058	2.71
287.435	2.88
287.813	2.7
288.19	2.83
288.567	2.89
288.945	3.14
289.322	3.17
289.699	2.74
290.076	2.91
290.453	2.75
290.83	3.01
291.207	2.71
291.584	2.61
291.961	3.35
292.338	2.96
292.715	3.24
293.092	3.04
293.469	2.97
293.845	3.13
294.222	2.69
294.599	3.13
294.975	3.18
295.352	3.13
295.728	2.97
296.105	3.61
296.481	3.29
296.858	3.27
297.234	2.9
297.61	3.37
297.986	3.55
298.363	3.1
298.739	3.43
299.115	3.44
299.491	3.18
299.867	3.55
300.243	3.86
300.619	3.31
300.995	3.51
301.371	3.59
301.746	3.74
302.122	4.26
302.498	3.64
302.874	3.84
303.249	3.38
303.625	3.61
304	3.95
304.376	3.66
304.751	2.88
305.127	5.32
305.502	3.4
305.878	3.48
306.253	3.36
306.628	4.21
307.003	3.68
307.378	4.18
307.754	3.7
308.129	3.55
308.504	3.93
308.879	3.76
309.254	4.78
309.629	3.79
310.003	4.37
310.378	4.61
310.753	4.52
311.128	4.66
311.502	4.31
311.877	4.86
312.252	4.03
312.626	4.47
313.001	4.3
313.375	4.66
313.75	4.44
314.124	4.65
314.498	4.67
314.873	4.17
315.247	4.33
315.621	4.77
315.995	4.06
316.369	4.97
316.743	4.84
317.117	4.84
317.491	4.49
317.865	5.13
318.239	4.52
318.613	5.21
318.987	5.03
319.361	4.6
319.734	5.86
320.108	5.09
320.482	5.04
320.855	5.85
321.229	5.43
321.602	5.25
321.976	5.84
322.349	5.63
322.723	5.96
323.096	5.71
323.469	4.54
323.843	5.76
324.216	5.95
324.589	5.44
324.962	5.51
325.335	5.47
325.708	5.8
326.081	5.63
326.454	5.92
326.827	5.28
327.2	5.93
327.573	6.41
327.945	6.25
328.318	5.4
328.691	5.55
329.063	6.11
329.436	5.86
329.809	6.43
330.181	5.85
330.553	6.1
330.926	6.49
331.298	6.29
331.671	5.77
332.043	6.62
332.415	6.4
332.787	6.4
333.159	7.11
333.532	6.55
333.904	6.42
334.276	6.77
334.648	6.86
335.02	6.16
335.391	6.06
335.763	6.12
336.135	7.49
336.507	7.17
336.879	6.68
337.25	6.95
337.622	6.17
337.993	6.44
338.365	7.14
338.736	7.13
339.108	7.04
339.479	6.65
339.851	6.56
340.222	6.9
340.593	7.14
340.964	6.99
341.336	7.73
341.707	6.81
342.078	7.3
342.449	7.15
342.82	7.23
343.191	7
343.562	7.49
343.933	6.95
344.303	7.07
344.674	7
345.045	7.1
345.416	7.35
345.786	7.22
346.157	7.46
346.527	6.63
346.898	7.11
347.268	7.55
347.639	7.35
348.009	7.49
348.38	7.23
348.75	7.82
349.12	7.52
349.49	7.93
349.861	8.1
350.231	7.56
350.601	7.34
350.971	7.97
351.341	7.67
351.711	7.65
352.081	7.86
352.45	7.85
352.82	8.12
353.19	7.63
353.56	7.55
353.929	8.41
354.299	7.97
354.669	7.82
355.038	8.52
355.408	8.22
355.777	8.26
356.147	7.97
356.516	8.19
356.885	8.29
357.254	8.26
357.624	8.48
357.993	8.21
358.362	7.82
358.731	7.98
359.1	8.53
359.469	8.27
359.838	8.8
360.207	8.3
360.576	8.64
360.945	8.4
361.314	8.83
361.682	8.65
362.051	8.4
362.42	8.69
362.788	8.3
363.157	8.63
363.525	8.6
363.894	8.54
364.262	8.56
364.631	8.64
364.999	8.48
365.367	8.54
365.735	9.66
366.104	8.99
366.472	8.98
366.84	8.78
367.208	8.86
367.576	8.88
367.944	9.17
368.312	8.73
368.68	8.67
369.048	9.23
369.416	9.13
369.783	8.85
370.151	9.27
370.519	9.34
370.886	9.21
371.254	9.46
371.621	9.53
371.989	9.66
372.356	8.76
372.724	9.31
373.091	9.21
373.458	9.62
373.826	9.38
374.193	9.3
374.56	9.82
374.927	9.59
375.294	9.55
375.661	9.75
376.028	9.72
376.395	9.36
376.762	9.62
377.129	9.66
377.496	9.67
377.863	9.7
378.229	9.61
378.596	9.69
378.963	9.61
379.329	9.87
379.696	10.05
380.062	9.98
380.429	10.02
380.795	9.95
381.161	9.89
381.528	10.24
381.894	9.81
382.26	9.71
382.626	10.19
382.993	10.03
383.359	10.52
383.725	10.49
384.091	10.19
384.457	10.39
384.823	10.39
385.188	10.79
385.554	10.1
385.92	10.51
386.286	10.77
386.651	10.61
387.017	10.65
387.383	10.72
387.748	10.42
388.114	10.65
388.479	10.86
388.845	10.68
389.21	11.01
389.575	10.85
389.94	11.03
390.306	10.8
390.671	11.06
391.036	10.58
391.401	10.73
391.766	10.88
392.131	10.94
392.496	11.39
392.861	10.89
393.226	11.19
393.591	11.16
393.956	11.22
394.32	11.05
394.685	11
395.05	10.83
395.414	11.15
395.779	11.16
396.143	11.41
396.508	11.12
396.872	11.35
397.236	11.46
397.601	11.38
397.965	11.64
398.329	11.46
398.694	11.48
399.058	11.33
399.422	11.19
399.786	11.77
400.15	11.67
400.514	11.49
400.878	11.69
401.242	11.83
401.605	11.81
401.969	11.9
402.333	11.64
402.697	11.81
403.06	11.89
403.424	11.78
403.787	11.69
404.151	11.83
404.514	11.96
404.878	11.98
405.241	12.2
405.604	12.01
405.968	12.03
406.331	12.13
406.694	12.26
407.057	12.01
407.42	12.55
407.783	11.88
408.146	12.12
408.509	12.04
408.872	12
409.235	12.47
409.598	12.59
409.961	12.11
410.323	12.46
410.686	12.35
411.049	12.31
411.411	12.64
411.774	12.6
412.136	12.56
412.499	12.6
412.861	12.33
413.223	12.52
413.586	12.75
413.948	12.88
414.31	12.6
414.672	12.58
415.035	12.64
415.397	12.93
415.759	12.62
416.121	12.95
416.483	12.87
416.845	12.76
417.206	12.93
417.568	12.9
417.93	12.73
418.292	12.85
418.653	12.67
419.015	12.93
419.377	12.91
419.738	13
420.1	12.93
420.461	13.06
420.822	12.91
421.184	12.92
421.545	12.93
421.906	12.83
422.267	13.11
422.629	13.01
422.99	13
423.351	13.07
423.712	13.06
424.073	13.07
424.434	13.01
424.795	13.13
425.155	13.18
425.516	13.12
425.877	13.18
426.238	13.26
426.598	13.32
426.959	13.22
427.32	13.33
427.68	13.31
428.041	13.43
428.401	13.7
428.761	13.64
429.122	13.81
429.482	13.64
429.842	13.97
430.202	13.85
430.563	13.83
430.923	13.9
431.283	14.12
431.643	13.93
432.003	14.09
432.363	14.13
432.722	14.04
433.082	14.29
433.442	14.1
433.802	14.07
434.161	14.21
434.521	14.33
434.881	14.31
435.24	14.24
435.6	14.37
435.959	14.33
436.319	14.1
436.678	14.29
437.037	14.25
437.396	14.42
437.756	14.49
438.115	14.46
438.474	14.5
438.833	14.37
439.192	14.38
439.551	14.63
439.91	14.79
440.269	14.68
440.628	14.54
440.987	14.68
441.345	14.64
441.704	14.58
442.063	14.62
442.421	14.69
442.78	14.74
443.138	14.58
443.497	14.68
443.855	14.72
444.214	14.96
444.572	14.98
444.93	15.09
445.288	15.07
445.647	15.14
446.005	14.88
446.363	15.13
446.721	15.08
447.079	14.88
447.437	15.02
447.795	15.1
448.153	15.02
448.51	15.07
448.868	15.07
449.226	15.16
449.584	15.03
449.941	15.25
450.299	15.28
450.656	15.31
451.014	15.39
451.371	15.24
451.729	15.38
452.086	15.7
452.443	15.43
452.801	15.66
453.158	15.47
453.515	15.51
453.872	15.93
454.229	15.72
454.586	15.72
454.943	15.78
455.3	15.86
455.657	15.82
456.014	15.86
456.371	15.88
456.727	16.1
457.084	16.06
457.441	16.18
457.797	16.06
458.154	16.23
458.51	16.24
458.867	16.63
459.223	16.2
459.58	16.25
459.936	16.2
460.292	16.29
460.648	16.38
461.005	16.28
461.361	16.22
461.717	16.19
462.073	16.07
462.429	16.16
462.785	16.09
463.141	16.3
463.496	16.42
463.852	16.7
464.208	16.47
464.564	16.79
464.919	16.66
465.275	16.88
465.631	16.93
465.986	16.82
466.342	16.83
466.697	16.66
467.052	16.79
467.408	16.84
467.763	16.92
468.118	17.06
468.473	16.97
468.829	17.01
469.184	16.88
469.539	17.1
469.894	16.97
470.249	17.34
470.603	17.15
470.958	17.47
471.313	17.25
471.668	17.34
472.023	17.43
472.377	17.36
472.732	17.24
473.086	17.24
473.441	17.41
473.795	17.37
474.15	17.55
474.504	17.49
474.859	17.68
475.213	17.46
475.567	17.31
475.921	17.49
476.275	17.78
476.63	17.69
476.984	17.71
477.338	17.89
477.692	17.82
478.045	17.65
478.399	17.87
478.753	17.81
479.107	17.76
479.461	17.81
479.814	17.83
480.168	17.95
480.521	17.89
480.875	17.91
481.228	17.97
481.582	17.96
481.935	17.82
482.289	18.06
482.642	18.08
482.995	18.12
483.348	18.06
483.701	18.04
484.055	18.2
484.408	17.99
484.761	17.91
485.114	17.74
485.466	17.5
485.819	17.44
486.172	17.36
486.525	17.3
486.878	17.39
487.23	17.5
487.583	17.79
487.936	18.01
488.288	17.98
488.641	18.08
488.993	17.95
489.345	17.76
489.698	17.88
490.05	17.86
490.402	17.97
490.754	17.98
491.107	18.1
491.459	18.24
491.811	18.39
492.163	18.54
492.515	18.56
492.866	18.72
493.218	18.46
493.57	18.36
493.922	18.26
494.274	18.31
494.625	18.49
494.977	18.73
495.328	18.77
495.68	18.77
496.031	19.15
496.383	19.06
496.734	19.42
497.086	19.18
497.437	19.26
497.788	19.44
498.139	19.19
498.49	19.37
498.842	19.21
499.193	19.38
499.544	19.24
499.894	19.4
500.245	19.34
500.596	19.49
500.947	19.41
501.298	19.49
501.648	19.68
501.999	19.65
502.35	19.69
502.7	19.67
503.051	19.9
503.401	19.77
503.752	19.96
504.102	19.98
504.452	20.03
504.803	20
505.153	20.14
505.503	20.15
505.853	20.03
506.203	20
506.553	20.08
506.903	20.08
507.253	20.09
507.603	20.03
507.953	20.34
508.303	20.38
508.652	20.24
509.002	20.54
509.352	20.42
509.701	20.29
510.051	20.45
510.4	20.4
510.75	20.5
511.099	20.5
511.449	20.35
511.798	20.38
512.147	20.55
512.496	20.5
512.846	20.54
513.195	20.52
513.544	20.56
513.893	20.5
514.242	20.56
514.591	20.8
514.939	20.65
515.288	20.64
515.637	20.89
515.986	20.9
516.334	20.97
516.683	20.85
517.032	21.04
517.38	20.95
517.729	20.96
518.077	21.08
518.426	20.96
518.774	21.26
519.122	21.07
519.47	21.2
519.819	21.06
520.167	21.07
520.515	20.9
520.863	20.99
521.211	21.07
521.559	21.1
521.907	21.2
522.255	21.31
522.602	21.29
522.95	21.26
523.298	21.35
523.645	21.45
523.993	21.55
524.341	21.71
524.688	21.65
525.036	21.62
525.383	21.65
525.73	21.83
526.078	21.84
526.425	21.67
526.772	21.81
527.119	21.68
527.466	21.53
527.814	21.65
528.161	21.42
528.508	21.59
528.854	21.45
529.201	21.54
529.548	21.64
529.895	21.52
530.242	21.29
530.588	21.27
530.935	21.29
531.282	21.18
531.628	21.16
531.975	21.34
532.321	21.48
532.667	21.75
533.014	21.77
533.36	22
533.706	22.07
534.052	22.12
534.399	21.96
534.745	21.97
535.091	21.95
535.437	21.81
535.783	21.9
536.129	21.96
536.474	21.97
536.82	22.21
537.166	22.22
537.512	22.54
537.857	22.44
538.203	22.43
538.549	22.36
538.894	22.34
539.239	22.47
539.585	22.41
539.93	22.55
540.276	22.6
540.621	22.91
540.966	22.88
541.311	22.98
541.656	22.88
542.001	23.06
542.346	23.04
542.691	22.92
543.036	22.6
543.381	22.51
543.726	22.31
544.071	22.42
544.415	22.46
544.76	22.53
545.105	22.69
545.449	22.71
545.794	23.02
546.138	22.98
546.483	23.25
546.827	23.31
547.171	23.17
547.516	23.4
547.86	23.36
548.204	23.39
548.548	23.35
548.892	23.48
549.236	23.45
549.58	23.49
549.924	23.38
550.268	23.75
550.612	23.85
550.956	24.02
551.3	23.78
551.643	24.12
551.987	24.21
552.33	24.13
552.674	24.26
553.017	24.41
553.361	24.19
553.704	24.49
554.048	24.23
554.391	24.48
554.734	24.37
555.077	24.32
555.42	24.09
555.764	24.2
556.107	24.24
556.45	24.34
556.793	24.38
557.135	24.39
557.478	24.61
557.821	24.79
558.164	24.47
558.507	24.6
558.849	24.39
559.192	24.69
559.534	24.63
559.877	24.98
560.219	24.75
560.562	24.9
560.904	25
561.246	24.84
561.589	24.89
561.931	24.87
562.273	24.94
562.615	25.05
562.957	25.08
563.299	24.9
563.641	25.06
563.983	24.97
564.325	25.08
564.667	25.14
565.008	25.15
565.35	25.06
565.692	25.16
566.033	25.47
566.375	25.42
566.716	25.26
567.058	25.29
567.399	25.31
567.741	25.02
568.082	25.41
568.423	25.51
568.764	25.44
569.105	25.27
569.447	25.35
569.788	25.48
570.129	25.62
570.47	25.44
570.811	25.67
571.151	25.74
571.492	25.65
571.833	25.7
572.174	25.72
572.514	26.12
572.855	25.84
573.195	25.75
573.536	25.77
573.876	25.56
574.217	25.7
574.557	25.71
574.898	25.91
575.238	25.7
575.578	25.91
575.918	26.08
576.258	26.08
576.598	26.16
576.938	26.21
577.278	25.94
577.618	26.13
577.958	26.05
578.298	26.16
578.638	26.19
578.977	26.37
579.317	26.18
579.657	26.25
579.996	26.39
580.336	26.38
580.675	26.63
581.014	26.69
581.354	26.54
581.693	26.79
582.032	26.47
582.372	26.92
582.711	26.56
583.05	26.34
583.389	26.86
583.728	26.77
584.067	27.12
584.406	26.76
584.745	26.65
585.083	27.23
585.422	27.05
585.761	26.98
586.1	27.2
586.438	26.9
586.777	26.86
587.115	26.94
587.454	26.95
587.792	27.07
588.13	27.42
588.469	26.96
588.807	26.84
589.145	26.98
589.483	27.4
589.821	27.27
590.159	27.14
590.497	27.43
590.835	27.43
591.173	27.12
591.511	27.64
591.849	27.33
592.187	27.54
592.524	27.52
592.862	27.6
593.2	27.77
593.537	27.45
593.875	27.41
594.212	27.52
594.55	27.22
594.887	28.1
595.224	27.84
595.561	27.54
595.899	27.72
596.236	27.62
596.573	27.82
596.91	27.69
597.247	27.51
597.584	28.06
597.921	27.61
598.258	27.47
598.594	27.53
598.931	27.76
599.268	27.81
599.604	27.73
599.941	27.74
600.277	27.76
600.614	27.71
600.95	28.1
601.287	28.22
601.623	28.26
601.959	27.92
602.296	28.19
602.632	28.24
602.968	28.04
603.304	28.68
603.64	28.05
603.976	28.45
604.312	28.02
604.648	28.21
604.984	28.56
605.319	28.71
605.655	28.25
605.991	28.2
606.326	28.33
606.662	28.13
606.998	28.2
607.333	28.13
607.668	28.12
608.004	28.31
608.339	28.48
608.674	28.54
609.01	28.39
609.345	28.4
609.68	28.97
610.015	28.64
610.35	28.42
610.685	28.87
611.02	28.87
611.355	28.82
611.689	28.79
612.024	29.1
612.359	28.59
612.694	28.86
613.028	28.54
613.363	29.01
613.697	29.26
614.032	29.23
614.366	28.56
614.7	29.11
615.035	29.32
615.369	29.24
615.703	29.49
616.037	29.09
616.371	29.03
616.705	29.25
617.039	29.49
617.373	29.25
617.707	29.46
618.041	29.37
618.375	29.24
618.709	29.6
619.042	29.19
619.376	29.53
619.71	29.85
620.043	29.63
620.377	29.59
620.71	29.39
621.043	29.52
621.377	29.52
621.71	30.07
622.043	29.64
622.376	29.45
622.709	29.75
623.043	30.09
623.376	30.13
623.709	30.04
624.041	29.94
624.374	29.96
624.707	30.01
625.04	30.17
625.373	29.87
625.705	30.03
626.038	29.82
626.37	30.4
626.703	30.04
627.035	30.5
627.368	30.4
627.7	30.32
628.032	30.17
628.365	30.47
628.697	29.98
629.029	29.91
629.361	30.18
629.693	30.39
630.025	30.01
630.357	30.24
630.689	30.16
631.021	30.68
631.353	30.64
631.684	30.37
632.016	30.3
632.348	30.09
632.679	30.4
633.011	30.86
633.342	30.84
633.674	31.01
634.005	30.62
634.336	30.39
634.668	30.77
634.999	30.8
635.33	30.63
635.661	30.58
635.992	30.55
636.323	31.3
636.654	30.75
636.985	30.7
637.316	31.03
637.647	30.83
637.977	31.22
638.308	30.73
638.639	30.68
638.969	31.27
639.3	30.73
639.63	30.82
639.961	30.9
640.291	31.11
640.622	30.97
640.952	30.87
641.282	31.36
641.612	30.95
641.943	31.05
642.273	30.45
642.603	30.89
642.933	31.07
643.263	31.45
643.592	31.61
643.922	31.3
644.252	31.54
644.582	31.06
644.911	31.56
645.241	31.67
645.571	31.8
645.9	31.1
646.23	31.32
646.559	31.49
646.888	31.53
647.218	31.21
647.547	31.82
647.876	31.66
648.205	31.75
648.534	31.43
648.863	31.26
649.192	32.16
649.521	31.76
649.85	31.78
650.179	31.66
650.508	32
650.837	31.5
651.165	31.72
651.494	32.01
651.822	31.63
652.151	31.65
652.479	31.29
652.808	31.97
653.136	32.14
653.465	31.93
653.793	31.7
654.121	31.73
654.449	32.14
654.777	32.42
655.105	31.8
655.433	31.45
655.761	32.15
656.089	32.22
656.417	32.44
656.745	32.65
657.073	32.47
657.4	32.57
657.728	32.69
658.056	32.36
658.383	32.11
658.711	31.88
659.038	32.49
659.365	32.61
659.693	32.15
660.02	32.35
660.347	32.96
660.674	32.33
661.001	32.91
661.329	32.25
661.656	32.73
661.982	32.29
662.309	32.66
662.636	31.77
662.963	33.03
663.29	32.91
663.616	32.42
663.943	32.63
664.27	32.63
664.596	32.98
664.923	32.95
665.249	32.48
665.576	32.29
665.902	32.94
666.228	33.1
666.554	33.08
666.881	33.09
667.207	32.65
667.533	33.4
667.859	32.93
668.185	33.13
668.511	32.35
668.837	32.22
669.162	32.98
669.488	32.57
669.814	33.32
670.139	33.19
670.465	33.07
670.791	33.11
671.116	33.34
671.442	33.24
671.767	33.33
672.092	34.25
672.418	33.64
672.743	32.81
673.068	32.85
673.393	33.84
673.718	33.59
674.043	33.51
674.368	32.74
674.693	33.97
675.018	33.73
675.343	33.65
675.667	33.1
675.992	32.84
676.317	32.98
676.641	33.53
676.966	33.82
677.29	33.09
677.615	33.91
677.939	34.25
678.264	33.77
678.588	33.49
678.912	33.9
679.236	34.43
679.56	33.13
679.885	33.63
680.209	33.85
680.532	33.5
680.856	34.6
681.18	34.08
681.504	33.62
681.828	34.39
682.152	33.75
682.475	33.93
682.799	34.42
683.122	33.96
683.446	33.36
683.769	34.4
684.093	33.81
684.416	34.35
684.739	33.4
685.062	34.42
685.386	34.11
685.709	33.95
686.032	33.93
686.355	33.93
686.678	34.34
687.001	33.93
687.324	33.57
687.646	34.13
687.969	33.94
688.292	34.14
688.614	33.85
688.937	35.33
689.26	34.11
689.582	34.6
689.904	34.23
690.227	34.78
690.549	34.4
690.871	35
691.194	34.43
691.516	34.59
691.838	34.9
692.16	33.84
692.482	34.97
692.804	34.9
693.126	34.48
693.448	34.31
693.769	35.18
694.091	33.86
694.413	34.54
694.735	34.13
695.056	34.48
695.378	34.3
695.699	34.44
696.021	34.73
696.342	33.86
696.663	33.75
696.984	35.73
697.306	34.11
697.627	34.68
697.948	35.29
698.269	34.56
698.59	35.15
698.911	34.22
699.232	34.73
699.553	34.49
699.873	35.66
700.194	35.81
700.515	35.32
700.835	35.18
701.156	35.59
701.477	34.93
701.797	35.31
702.117	35.13
702.438	34.93
702.758	34.66
703.078	35.01
703.398	34.48
703.719	34.31
704.039	34.87
704.359	35.25
704.679	36.3
704.999	35.25
705.319	34.72
705.638	34.82
705.958	34.97
706.278	35.63
706.597	35.14
706.917	35.05
707.237	35.44
707.556	36.06
707.876	35.79
708.195	35.17
708.514	35.48
708.834	35.85
709.153	35.58
709.472	35.6
709.791	36.79
710.11	35.24
710.429	35.57
710.748	35.9
711.067	35.8
711.386	36.17
711.705	36.15
712.023	35.27
712.342	34.39
712.661	35.35
712.979	35.33
713.298	35.94
713.616	36.16
713.935	36.48
714.253	36.34
714.572	35.95
714.89	35.45
715.208	37.11
715.526	35.34
715.844	36.49
716.162	36.3
716.48	36.76
716.798	35.48
717.116	36.1
717.434	35.96
717.752	34.73
718.069	35.99
718.387	35.76
718.705	35.52
719.022	35.61
719.34	36.35
719.657	34.69
719.975	36.32
720.292	35.33
720.609	35.57
720.927	36.6
721.244	36.61
721.561	35.37
721.878	36.56
722.195	35.12
722.512	36.53
722.829	36.09
723.146	35.46
723.463	36.46
723.779	35.08
724.096	36.14
724.413	35.59
724.729	37.06
725.046	35.86
725.362	36.21
725.679	36.02
725.995	36.58
726.311	36
726.628	35.98
726.944	37.09
727.26	36.36
727.576	36.84
727.892	37.07
728.208	36.43
728.524	36.11
728.84	35.76
729.156	37.45
729.472	36.29
729.787	36.23
730.103	37.87
730.419	35.95
730.734	35.35
731.05	36.28
731.365	36.7
731.681	36.87
731.996	36.95
732.311	36.91
732.626	37.91
732.942	35.98
733.257	36.85
733.572	37.96
733.887	36.63
734.202	36.53
734.517	36.42
734.832	37.65
735.146	36.6
735.461	37.17
735.776	37.22
736.091	36.19
736.405	36.55
736.72	36.35
737.034	37.27
737.349	39.53
737.663	35.8
737.977	37.38
738.292	36.16
738.606	37.09
738.92	38.98
739.234	37.64
739.548	36.86
739.862	37.6
740.176	36.09
740.49	37.55
740.804	38.75
741.117	36.5
741.431	35.81
741.745	36.95
742.058	36.84
742.372	36.75
742.685	36.98
742.999	36.61
743.312	36.47
743.626	38.78
743.939	37.63
744.252	38.44
744.565	39.41
744.878	37.13
745.191	37.9
745.505	38.2
745.817	37.75
746.13	35.28
746.443	39.27
746.756	38.93
747.069	38.77
747.381	36.75
747.694	35.26
748.007	37.73
748.319	37.93
748.632	35.31
748.944	37.72
749.256	39.1
749.569	37.72
749.881	37.16
750.193	37.72
750.505	36.51
750.817	36.17
751.129	38.29
751.441	38.8
751.753	38.48
752.065	37.9
752.377	37.72
752.689	37.12
753	38.33
753.312	37.83
753.624	39.25
753.935	39.48
754.247	38.32
754.558	35.63
754.869	39.22
755.181	35.73
755.492	38.22
755.803	37.48
756.114	37.31
756.425	36.58
756.736	36.73
757.047	38.11
757.358	38.67
757.669	37.62
757.98	37.32
758.291	37.43
758.601	39.57
758.912	37.66
759.223	38
759.533	37.08
759.844	38.03
760.154	35.7
760.464	37.37
760.775	38.31
761.085	35.91
761.395	37.28
761.705	38.33
762.016	36.47
762.326	38.27
762.636	37.32
762.945	38.08
763.255	38.39
763.565	36.97
763.875	37.33
764.185	38.27
764.494	38.4
764.804	37.83
765.113	38.06
765.423	38.2
765.732	39.32
766.042	38.31
766.351	38.46
766.66	38.98
766.97	38.13
767.279	38.2
767.588	37.54
767.897	38.07
768.206	37.72
768.515	37.49
768.824	37.26
769.133	37.27
769.441	39.4
769.75	37.6
770.059	39.16
770.367	35.53
770.676	38.01
770.984	39.1
771.293	37.97
771.601	40.4
771.91	39.36
772.218	38.27
772.526	38.85
772.834	38.39
773.142	33.47
773.45	39.38
773.758	38.24
774.066	38.07
774.374	36.02
774.682	41.69
774.99	40.24
775.298	38.81
775.605	40.52
775.913	38.59
776.22	38.86
776.528	39.77
776.835	40.53
777.143	35.59
777.45	36.53
777.757	38.4
778.065	38.56
778.372	37.44
778.679	41.41
778.986	35.4
779.293	35.16
779.6	41.94
779.907	36.05
780.214	39.18
780.52	38.79
780.827	38.09
781.134	36.36
781.44	37.99
781.747	36.57
782.053	34.32
782.36	38.38
782.666	35.1
782.973	35.85
783.279	36.53
783.585	38.67
783.891	44.2
784.197	38.8
784.503	38.9
784.809	38.34
785.115	41.44
785.421	38.57
785.727	41.05
786.033	35.39
786.339	39.89
786.644	39.53
786.95	39.61
787.255	36.06
787.561	38.71
787.866	38.46
788.172	39.43
788.477	38.09
788.782	36.61
789.088	39.38
789.393	37.7
789.698	38.96
790.003	38.93
790.308	36.69
790.613	37.49
790.918	37.02
791.223	40.55
791.527	33.89
791.832	41.71
792.137	38.71
792.441	39.16
792.746	40.98
793.05	36.93
793.355	37.12
793.659	41.11
793.963	36.61
794.268	37.94
794.572	39.18
794.876	44.84
795.18	40.56
795.484	38.85
795.788	38.49
796.092	40.38
796.396	39.59
796.7	38.23
797.004	38.66
797.307	31.46
797.611	38.92
797.915	40.77
798.218	41.05
798.522	37.45
798.825	38.86
799.128	38.99
799.432	34.66
799.735	40
800.038	40.89
800.341	39.11
800.644	39.03
800.947	40.58
801.25	38.05
801.553	34.88
801.856	38.61
802.159	32.57
802.462	39.7
802.764	38.74
803.067	37.96
803.37	31.58
803.672	31.53
803.975	38.84
804.277	35.14
804.579	36.53
804.882	43.26
805.184	34.8
805.486	35.56
805.788	40.75
806.09	43.4
806.392	34.5
806.694	40.62
806.996	41.49
807.298	36.94
807.6	40.84
807.902	41.07
808.203	33.75
808.505	36.55
808.807	36.74
809.108	39.72
809.409	42.18
809.711	36.18
810.012	37.97
810.313	33.01
810.615	36.83
810.916	38.77
811.217	36.36
811.518	37.48
811.819	35.81
812.12	37.86
812.421	35.15
812.722	40.21
813.023	40.03
813.323	36.89
813.624	36.06
813.925	42.35
814.225	37.06
814.526	39.22
814.826	39.62
815.126	40.12
815.427	38.08
815.727	41.88
816.027	41.43
816.327	35.16
816.627	29.81
816.927	39.61
817.227	43.45
817.527	34.56
817.827	44.92
818.127	42.25
818.427	32.67
818.727	36.75
819.026	36.89
819.326	38.13
819.625	37.39
819.925	38.61
820.224	39.96
820.524	37.85
820.823	38.35
821.122	35.89
821.421	38.02
821.72	39.61
822.019	40.63
822.318	36.04
822.617	38.67
822.916	37.18
823.215	35.84
823.514	39.74
823.813	38.15
824.111	38.98
824.41	42.11
824.709	42.48
825.007	40.97
825.306	41.68
825.604	40.66
825.902	41.44
826.201	41.13
826.499	40.23
826.797	40.46
827.095	39.21
827.393	38.82
827.691	40.04
827.989	39.26
828.287	40.6
828.585	38.57
828.882	39.43
829.18	37.05
829.478	42.33
829.775	40.29
830.073	40.01
830.37	41.17
830.668	39.26
830.965	42.58
831.263	40.78
831.56	38.09
831.857	39.46
832.154	40.44
832.451	40.48
832.748	42.19
833.045	43.07
833.342	40.07
833.639	39.55
833.936	40.48
834.232	35.31
834.529	32.6
834.826	30.1
835.122	33.07
835.419	34.46
835.715	30.38
836.012	40.78
836.308	33.16
836.604	41.77
836.901	41.43
837.197	39.27
837.493	42.92
837.789	39.83
838.085	39.25
838.381	35.97
838.677	35.57
838.972	39.13
839.268	36.76
839.564	32.67
839.86	46.02
840.155	31.77
840.451	32.59
840.746	41.38
841.042	37.24
841.337	44.71
841.632	45.15
841.928	40.25
842.223	29.95
842.518	39.18
842.813	43.25
843.108	38.14
843.403	48.83
843.698	37.02
843.993	34.13
844.287	38.38
844.582	39.09
844.877	35.88
845.171	38.05
845.466	38.6
845.761	39.17
846.055	36.17
846.349	33.51
846.644	36.8
846.938	25.78
847.232	40.35
847.526	22.74
847.82	40.44
848.114	26.37
848.408	47.09
848.702	43.6
848.996	15.02
849.29	33.97
849.584	20.45
849.877	40.69
850.171	34.16
850.465	31.4
850.758	18.85
851.052	17.58
851.345	11.36
851.638	38.39
851.932	17.1
852.225	33.12
852.518	19.55
852.811	22.97
853.104	20.58
853.397	46.4
853.69	40.27
853.983	30.31
854.276	36.52
854.569	25.8
854.861	26.7
855.154	42.74
855.447	11.21
855.739	16.33
856.032	65.83
856.324	42.21
856.616	42.2
856.909	26.66
857.201	23.16
857.493	34.94
857.785	-12.97
858.077	66.22
858.369	31.81
858.661	21.46
858.953	18.65
859.245	32.43
859.537	38.42
859.829	46.98
860.12	31.24
860.412	23.92
860.703	4.33
860.995	25.66
861.286	24.25
861.578	48.11
861.869	26.85
862.16	29.3
862.452	31.38
862.743	24
863.034	30.6
863.325	32.57
863.616	35.42
863.907	43.58
864.198	0.4
864.488	22.68
864.779	13.2
865.07	40.17
865.36	11.98
865.651	45.04
865.941	21.7
866.232	22.62
866.522	-12.95
866.813	32.13
867.103	35.23
867.393	37.56
867.683	33.45
867.973	-0.66
868.263	49.65
868.553	39.44
868.843	41.08
869.133	24.36
869.423	6.79
869.713	22.75
870.002	54.79
870.292	37.05
870.582	37.63
870.871	33.76
871.161	24.53
871.45	17.96
871.739	12.84
872.029	6.28
872.318	30.34
872.607	43.19
872.896	6.4
873.185	36.33
873.474	8.99
873.763	36.78
874.052	27.61
874.341	35.83
874.63	17.67
874.918	38.39
875.207	51.66
875.496	45.82
875.784	30.75
876.073	-12.62
876.361	-6.04
876.649	-6.28
876.938	24.43
877.226	13.58
877.514	37.45
877.802	19.87
878.09	16.14
878.378	55.83
878.666	39.53
878.954	38.51
879.242	28.86
879.53	26.57
879.817	56.11
880.105	10.9
880.392	16.53
880.68	28.75
880.967	31.83
881.255	27.63
881.542	0.98
881.83	-12.09
882.117	15.73
882.404	8.84
882.691	22.82
882.978	39.99
883.265	13.39
883.552	56.79
883.839	19.82
884.126	22.45
884.413	47.29
884.699	42.98
884.986	44.7
885.273	40.87
885.559	40.87
885.846	40.87
