Data from 0199_crown_Reflection__1__346.txt Node

Date: Fri Dec 15 19:46:00 CST 2023
User: ToomeyLab
Spectrometer: FLMS14357
Trigger mode: 0
Integration Time (sec): 1.000000E-2
Scans to average: 100
Electric dark correction enabled: true
Nonlinearity correction enabled: false
Boxcar width: 0
XAxis mode: Wavelengths
Number of Pixels in Spectrum: 2048
>>>>>Begin Spectral Data<<<<<
189.047	126.81
189.435	126.81
189.823	126.81
190.211	-43.62
190.599	18.47
190.987	1061.16
191.375	-51.56
191.763	74.32
192.151	-28.03
192.538	82.48
192.926	36.51
193.314	80.25
193.702	128.25
194.089	-4205.08
194.477	-80.06
194.864	-339.32
195.252	122.18
195.639	89.4
196.027	-92.29
196.414	95.74
196.801	-269.46
197.189	77.26
197.576	88.11
197.963	20.51
198.351	-214.22
198.738	-13.84
199.125	-3.36
199.512	-25.02
199.899	-13.94
200.286	4.24
200.673	-37.42
201.06	-28.35
201.447	-11.35
201.833	-17.5
202.22	8.46
202.607	-3.26
202.994	46.83
203.38	-19.6
203.767	13.57
204.154	15.2
204.54	52.08
204.927	-45.67
205.313	-16.25
205.699	8.26
206.086	53.79
206.472	32.2
206.858	15.47
207.245	-96.47
207.631	-15.58
208.017	-6.73
208.403	-86.6
208.789	34.13
209.175	-12.58
209.561	-9.26
209.947	-44.56
210.333	-72.58
210.719	-3.29
211.105	17.69
211.491	-14.92
211.876	-16.84
212.262	-34.91
212.648	-5.43
213.034	-19.84
213.419	-30.5
213.805	-20.96
214.19	-51.79
214.576	-12.07
214.961	-41.02
215.346	-140.7
215.732	-24.77
216.117	-24.22
216.502	-47.66
216.888	-2.05
217.273	17.87
217.658	-37.89
218.043	-12.18
218.428	-49.19
218.813	-14.62
219.198	-18.28
219.583	4.26
219.968	0.84
220.353	-13
220.738	9.24
221.122	-12.89
221.507	-31
221.892	-68.79
222.276	-27.02
222.661	5.67
223.046	10.14
223.43	11.37
223.815	6.97
224.199	-10.1
224.583	4.08
224.968	5.8
225.352	3.78
225.736	1.37
226.121	-1.16
226.505	2.25
226.889	13.58
227.273	-0.3
227.657	6.58
228.041	1.48
228.425	9.74
228.809	9.25
229.193	7.33
229.577	2.91
229.961	8.1
230.344	6.28
230.728	7
231.112	7.62
231.495	6.68
231.879	5.94
232.263	7.79
232.646	5.05
233.03	6.68
233.413	4.02
233.797	6.25
234.18	5.75
234.563	5.53
234.946	4.93
235.33	6.09
235.713	6.69
236.096	7.07
236.479	8.15
236.862	6.74
237.245	7.27
237.628	5.03
238.011	6.61
238.394	8.07
238.777	7.62
239.16	4.94
239.543	5.92
239.925	4.93
240.308	6.3
240.691	5.95
241.073	6.05
241.456	7.79
241.838	6.02
242.221	5.09
242.603	7.16
242.986	6.46
243.368	7.27
243.75	7.17
244.133	6.51
244.515	6.8
244.897	7.03
245.279	6.55
245.661	6.27
246.043	5.43
246.425	4.59
246.807	5.9
247.189	6.58
247.571	6.44
247.953	6.45
248.335	6.47
248.717	6.51
249.098	6.59
249.48	6.62
249.862	6.28
250.243	6.62
250.625	6.23
251.006	6.84
251.388	5.55
251.769	5.41
252.151	6.62
252.532	5.68
252.913	5.85
253.295	5.61
253.676	6.13
254.057	6.74
254.438	6.29
254.819	5.11
255.2	5.01
255.581	6.74
255.962	3.95
256.343	4.54
256.724	5.76
257.105	6.46
257.486	4.95
257.867	6.13
258.247	5.68
258.628	5.64
259.009	6.19
259.389	5.56
259.77	6.22
260.15	5.38
260.531	5.05
260.911	6.62
261.292	6.41
261.672	6.02
262.052	6.15
262.432	6.04
262.813	5.93
263.193	5.74
263.573	5.88
263.953	5.52
264.333	6.2
264.713	5.85
265.093	5.36
265.473	4.92
265.853	4.89
266.233	5.52
266.612	4.08
266.992	4.94
267.372	5.12
267.752	4.84
268.131	5.3
268.511	6.24
268.89	6.17
269.27	5.81
269.649	5.38
270.029	5.17
270.408	5.51
270.787	5.45
271.167	5.86
271.546	5.65
271.925	4.46
272.304	5.1
272.683	5.79
273.062	5.18
273.441	5.89
273.82	5.18
274.199	5.72
274.578	5.33
274.957	5.63
275.336	5.43
275.715	5.1
276.093	5.22
276.472	5.51
276.851	5.72
277.229	4.85
277.608	4.39
277.986	5.41
278.365	5.91
278.743	5.27
279.122	4.82
279.5	5.33
279.878	5.65
280.257	4.99
280.635	5.13
281.013	5.47
281.391	5.9
281.769	5.51
282.147	5.23
282.525	5.56
282.903	5.05
283.281	4.98
283.659	5.54
284.037	5.55
284.415	5.68
284.792	5.42
285.17	4.85
285.548	4.96
285.925	5.72
286.303	5.37
286.68	5.3
287.058	5.34
287.435	5.43
287.813	5.35
288.19	5.28
288.567	5.05
288.945	5.82
289.322	5.52
289.699	5.03
290.076	5.35
290.453	5.12
290.83	5.13
291.207	4.96
291.584	5.58
291.961	5.72
292.338	5.2
292.715	5.28
293.092	5.27
293.469	4.64
293.845	6.05
294.222	4.62
294.599	4.79
294.975	4.89
295.352	4.97
295.728	4.98
296.105	5.13
296.481	5.35
296.858	5.02
297.234	5.01
297.61	4.6
297.986	5.36
298.363	6.01
298.739	5.4
299.115	5.08
299.491	4.8
299.867	5.19
300.243	5.39
300.619	4.87
300.995	5.11
301.371	5.86
301.746	5.21
302.122	5.71
302.498	4.96
302.874	5.05
303.249	4.96
303.625	4.72
304	5.12
304.376	5.03
304.751	4.48
305.127	5.65
305.502	4.35
305.878	4.38
306.253	4.92
306.628	5.32
307.003	5.26
307.378	5.41
307.754	4.71
308.129	4.47
308.504	5.12
308.879	4.27
309.254	5.87
309.629	5.56
310.003	4.66
310.378	5.31
310.753	5.25
311.128	5.12
311.502	4.67
311.877	4.9
312.252	4.69
312.626	4.88
313.001	5.04
313.375	5.18
313.75	4.54
314.124	5.21
314.498	4.7
314.873	4.85
315.247	4.83
315.621	4.71
315.995	4.21
316.369	4.79
316.743	4.67
317.117	5.29
317.491	4.77
317.865	4.62
318.239	4.45
318.613	5.1
318.987	5.25
319.361	4.23
319.734	5.44
320.108	4.43
320.482	4.66
320.855	5.33
321.229	4.13
321.602	4.19
321.976	5.03
322.349	4.39
322.723	5.14
323.096	5.31
323.469	3.59
323.843	4.46
324.216	4.73
324.589	4.79
324.962	4.78
325.335	4.05
325.708	4.66
326.081	4.13
326.454	4.95
326.827	4.21
327.2	4.89
327.573	4.7
327.945	4.62
328.318	4.19
328.691	4.47
329.063	5.05
329.436	4.56
329.809	4.93
330.181	3.94
330.553	4.67
330.926	5.38
331.298	4.79
331.671	4.07
332.043	4.4
332.415	5.06
332.787	4.44
333.159	5.3
333.532	4.74
333.904	4.27
334.276	4.75
334.648	4.69
335.02	4.39
335.391	4.28
335.763	4.66
336.135	4.82
336.507	5.28
336.879	4.63
337.25	4.78
337.622	4.56
337.993	4.62
338.365	4.7
338.736	5.04
339.108	4.57
339.479	4.41
339.851	4.8
340.222	5
340.593	4.64
340.964	4.18
341.336	5.33
341.707	4.84
342.078	4.9
342.449	4.62
342.82	4.5
343.191	4.59
343.562	4.28
343.933	4.73
344.303	5.08
344.674	4.5
345.045	4.77
345.416	4.85
345.786	4.3
346.157	5.4
346.527	4.32
346.898	4.21
347.268	4.76
347.639	4.59
348.009	4.67
348.38	4.7
348.75	4.88
349.12	4.56
349.49	4.81
349.861	4.62
350.231	4.69
350.601	4.64
350.971	4.79
351.341	4.9
351.711	4.58
352.081	4.52
352.45	4.59
352.82	4.67
353.19	4.62
353.56	4.75
353.929	4.44
354.299	4.39
354.669	4.23
355.038	4.97
355.408	4.51
355.777	4.52
356.147	4.29
356.516	4.6
356.885	4.41
357.254	4.91
357.624	5.06
357.993	4.8
358.362	4.84
358.731	4.34
359.1	4.6
359.469	4.78
359.838	4.99
360.207	4.39
360.576	4.52
360.945	4.67
361.314	5.05
361.682	4.57
362.051	4.45
362.42	4.95
362.788	4.85
363.157	4.99
363.525	5.09
363.894	4.97
364.262	4.92
364.631	4.78
364.999	4.9
365.367	4.62
365.735	5.65
366.104	4.85
366.472	5.21
366.84	4.77
367.208	4.63
367.576	4.9
367.944	4.72
368.312	4.75
368.68	4.36
369.048	5.07
369.416	4.8
369.783	4.82
370.151	5.15
370.519	4.94
370.886	4.72
371.254	4.89
371.621	5.01
371.989	4.97
372.356	4.27
372.724	4.76
373.091	4.53
373.458	5.07
373.826	4.79
374.193	4.5
374.56	5.13
374.927	5.04
375.294	5.2
375.661	4.9
376.028	4.88
376.395	4.81
376.762	5.05
377.129	4.97
377.496	4.95
377.863	4.7
378.229	4.53
378.596	4.8
378.963	4.76
379.329	4.93
379.696	5.05
380.062	5.01
380.429	4.81
380.795	5.02
381.161	4.76
381.528	5.07
381.894	4.52
382.26	4.71
382.626	5.08
382.993	4.35
383.359	4.88
383.725	4.83
384.091	4.93
384.457	5.14
384.823	4.99
385.188	4.92
385.554	4.83
385.92	5.19
386.286	4.96
386.651	5.1
387.017	5.47
387.383	5.19
387.748	4.99
388.114	5.52
388.479	4.88
388.845	5.3
389.21	5.4
389.575	5.28
389.94	5.05
390.306	5.06
390.671	5.44
391.036	4.81
391.401	4.93
391.766	5.04
392.131	5.09
392.496	5.31
392.861	5.08
393.226	5.29
393.591	5.16
393.956	4.97
394.32	5.25
394.685	4.84
395.05	5.1
395.414	5.2
395.779	4.97
396.143	5.27
396.508	5.45
396.872	5.13
397.236	5.41
397.601	5.09
397.965	5.07
398.329	5.2
398.694	5.08
399.058	5.18
399.422	4.88
399.786	5.07
400.15	5.32
400.514	5.11
400.878	5.07
401.242	5.55
401.605	5.35
401.969	5.27
402.333	5.44
402.697	5.22
403.06	5.29
403.424	5.12
403.787	4.93
404.151	5.45
404.514	5.42
404.878	5.37
405.241	5.41
405.604	5.33
405.968	5.28
406.331	5.49
406.694	5.34
407.057	5.33
407.42	5.42
407.783	5.12
408.146	5.38
408.509	5.15
408.872	5.15
409.235	5.45
409.598	5.56
409.961	5.01
410.323	5.3
410.686	5.31
411.049	5.08
411.411	5.23
411.774	5.47
412.136	5.33
412.499	5.19
412.861	5.13
413.223	5.31
413.586	5.29
413.948	5.21
414.31	5.33
414.672	5.22
415.035	5.11
415.397	5.52
415.759	5.23
416.121	5.48
416.483	5.16
416.845	5.3
417.206	5.2
417.568	5.41
417.93	5.3
418.292	5.2
418.653	5.26
419.015	5.34
419.377	5.25
419.738	5.44
420.1	5.26
420.461	5.46
420.822	5.42
421.184	5.39
421.545	5.31
421.906	5.33
422.267	5.36
422.629	5.36
422.99	5.37
423.351	5.26
423.712	5.33
424.073	5.19
424.434	5.34
424.795	5.43
425.155	5.44
425.516	5.39
425.877	5.31
426.238	5.29
426.598	5.44
426.959	5.3
427.32	5.24
427.68	5.32
428.041	5.4
428.401	5.46
428.761	5.4
429.122	5.41
429.482	5.35
429.842	5.55
430.202	5.45
430.563	5.36
430.923	5.28
431.283	5.69
431.643	5.25
432.003	5.45
432.363	5.48
432.722	5.41
433.082	5.36
433.442	5.51
433.802	5.49
434.161	5.39
434.521	5.58
434.881	5.46
435.24	5.38
435.6	5.36
435.959	5.42
436.319	5.43
436.678	5.4
437.037	5.38
437.396	5.5
437.756	5.52
438.115	5.34
438.474	5.55
438.833	5.35
439.192	5.51
439.551	5.56
439.91	5.56
440.269	5.47
440.628	5.41
440.987	5.6
441.345	5.33
441.704	5.59
442.063	5.49
442.421	5.5
442.78	5.44
443.138	5.49
443.497	5.49
443.855	5.51
444.214	5.53
444.572	5.57
444.93	5.65
445.288	5.58
445.647	5.66
446.005	5.5
446.363	5.73
446.721	5.51
447.079	5.32
447.437	5.42
447.795	5.5
448.153	5.5
448.51	5.41
448.868	5.41
449.226	5.58
449.584	5.46
449.941	5.65
450.299	5.55
450.656	5.59
451.014	5.46
451.371	5.47
451.729	5.51
452.086	5.77
452.443	5.55
452.801	5.6
453.158	5.49
453.515	5.51
453.872	5.64
454.229	5.53
454.586	5.53
454.943	5.53
455.3	5.76
455.657	5.45
456.014	5.59
456.371	5.62
456.727	5.52
457.084	5.82
457.441	5.65
457.797	5.59
458.154	5.74
458.51	5.75
458.867	5.7
459.223	5.85
459.58	5.73
459.936	5.74
460.292	5.74
460.648	5.62
461.005	5.47
461.361	5.7
461.717	5.64
462.073	5.49
462.429	5.59
462.785	5.51
463.141	5.6
463.496	5.64
463.852	5.73
464.208	5.63
464.564	5.86
464.919	5.69
465.275	5.66
465.631	5.88
465.986	5.42
466.342	5.59
466.697	5.66
467.052	5.88
467.408	5.63
467.763	5.75
468.118	5.72
468.473	5.6
468.829	5.84
469.184	5.68
469.539	5.61
469.894	5.58
470.249	5.8
470.603	5.63
470.958	5.7
471.313	6.05
471.668	5.88
472.023	5.77
472.377	5.73
472.732	5.74
473.086	5.59
473.441	5.58
473.795	5.83
474.15	5.73
474.504	5.77
474.859	5.72
475.213	5.53
475.567	5.65
475.921	5.67
476.275	5.69
476.63	5.69
476.984	5.9
477.338	5.93
477.692	5.72
478.045	5.58
478.399	5.91
478.753	5.88
479.107	5.79
479.461	5.77
479.814	5.6
480.168	5.83
480.521	5.64
480.875	5.85
481.228	5.63
481.582	5.65
481.935	5.7
482.289	5.61
482.642	5.78
482.995	5.69
483.348	5.67
483.701	5.85
484.055	5.88
484.408	5.88
484.761	5.65
485.114	5.63
485.466	5.53
485.819	5.5
486.172	5.48
486.525	5.44
486.878	5.45
487.23	5.52
487.583	5.64
487.936	5.6
488.288	5.7
488.641	5.75
488.993	5.61
489.345	5.59
489.698	5.53
490.05	5.53
490.402	5.52
490.754	5.57
491.107	5.63
491.459	5.65
491.811	5.7
492.163	5.69
492.515	5.73
492.866	5.78
493.218	5.77
493.57	5.61
493.922	5.56
494.274	5.66
494.625	5.75
494.977	5.76
495.328	5.79
495.68	5.78
496.031	5.9
496.383	5.81
496.734	5.9
497.086	5.96
497.437	5.8
497.788	5.91
498.139	5.84
498.49	6.01
498.842	5.75
499.193	5.82
499.544	5.86
499.894	5.84
500.245	5.9
500.596	5.75
500.947	5.99
501.298	5.69
501.648	5.88
501.999	5.83
502.35	5.8
502.7	5.91
503.051	5.8
503.401	5.78
503.752	5.84
504.102	5.74
504.452	6.02
504.803	5.84
505.153	5.9
505.503	5.78
505.853	5.79
506.203	5.84
506.553	5.89
506.903	5.9
507.253	5.88
507.603	5.73
507.953	5.92
508.303	6.09
508.652	5.77
509.002	5.91
509.352	5.91
509.701	5.76
510.051	5.85
510.4	5.93
510.75	5.93
511.099	5.84
511.449	5.83
511.798	5.85
512.147	5.89
512.496	5.8
512.846	5.9
513.195	5.89
513.544	6.02
513.893	5.92
514.242	5.85
514.591	5.94
514.939	5.93
515.288	5.75
515.637	5.93
515.986	5.83
516.334	5.92
516.683	6.02
517.032	5.96
517.38	6.04
517.729	5.88
518.077	5.69
518.426	5.88
518.774	6
519.122	5.91
519.47	5.91
519.819	5.72
520.167	5.85
520.515	5.87
520.863	5.96
521.211	5.9
521.559	5.95
521.907	5.87
522.255	5.92
522.602	5.93
522.95	5.91
523.298	5.89
523.645	6.05
523.993	5.89
524.341	6.03
524.688	6.01
525.036	5.8
525.383	5.91
525.73	6.17
526.078	5.93
526.425	5.9
526.772	5.97
527.119	6
527.466	5.96
527.814	5.95
528.161	5.83
528.508	5.87
528.854	5.8
529.201	5.86
529.548	5.81
529.895	5.88
530.242	5.78
530.588	5.76
530.935	5.73
531.282	5.75
531.628	5.68
531.975	5.7
532.321	5.79
532.667	5.87
533.014	5.98
533.36	5.88
533.706	6
534.052	5.98
534.399	5.81
534.745	5.88
535.091	5.79
535.437	5.76
535.783	5.79
536.129	5.88
536.474	5.83
536.82	5.91
537.166	5.89
537.512	5.96
537.857	5.95
538.203	5.96
538.549	5.91
538.894	5.8
539.239	5.91
539.585	5.84
539.93	5.91
540.276	6.02
540.621	5.97
540.966	6.1
541.311	5.87
541.656	5.85
542.001	5.92
542.346	6.14
542.691	5.92
543.036	5.89
543.381	5.81
543.726	5.81
544.071	5.87
544.415	5.82
544.76	5.79
545.105	5.94
545.449	5.84
545.794	5.98
546.138	5.95
546.483	5.99
546.827	6.02
547.171	5.99
547.516	6.08
547.86	5.93
548.204	5.85
548.548	5.95
548.892	5.96
549.236	6.06
549.58	5.9
549.924	5.83
550.268	5.99
550.612	6.02
550.956	6.25
551.3	5.93
551.643	5.9
551.987	6
552.33	5.99
552.674	6.04
553.017	5.97
553.361	6.05
553.704	6.21
554.048	6.04
554.391	5.93
554.734	5.88
555.077	6.16
555.42	6.02
555.764	5.76
556.107	5.9
556.45	5.92
556.793	6.11
557.135	5.79
557.478	6.01
557.821	6.13
558.164	6.1
558.507	5.83
558.849	5.89
559.192	6.06
559.534	5.96
559.877	6.09
560.219	6.07
560.562	6.2
560.904	6.14
561.246	5.98
561.589	5.91
561.931	6.01
562.273	5.99
562.615	6.23
562.957	6.05
563.299	5.99
563.641	5.97
563.983	6.31
564.325	5.78
564.667	6.09
565.008	5.93
565.35	6.09
565.692	5.75
566.033	5.96
566.375	6.29
566.716	6.33
567.058	5.96
567.399	6.18
567.741	5.87
568.082	5.94
568.423	6.01
568.764	6.01
569.105	6.05
569.447	6.03
569.788	6.09
570.129	6.04
570.47	6.03
570.811	6.17
571.151	6.04
571.492	6.28
571.833	6.18
572.174	5.9
572.514	6.05
572.855	5.99
573.195	6.05
573.536	6.02
573.876	5.89
574.217	6.06
574.557	6.16
574.898	6.03
575.238	6.04
575.578	5.92
575.918	6.1
576.258	6.07
576.598	6.11
576.938	6.12
577.278	6.15
577.618	6.04
577.958	6.07
578.298	5.97
578.638	6.03
578.977	6.13
579.317	5.91
579.657	6.05
579.996	6
580.336	6.07
580.675	6.22
581.014	5.97
581.354	6.15
581.693	6.1
582.032	6.18
582.372	5.99
582.711	6.12
583.05	5.93
583.389	5.86
583.728	6.19
584.067	6.14
584.406	5.98
584.745	6.1
585.083	5.97
585.422	6.04
585.761	6.24
586.1	6.19
586.438	5.92
586.777	6.25
587.115	6.32
587.454	6.01
587.792	5.96
588.13	6.28
588.469	5.94
588.807	6.2
589.145	5.95
589.483	6.02
589.821	5.9
590.159	5.86
590.497	6.32
590.835	6.32
591.173	6.16
591.511	6.08
591.849	5.96
592.187	5.92
592.524	6.17
592.862	5.92
593.2	6.1
593.537	6.01
593.875	5.94
594.212	6
594.55	6.09
594.887	6.28
595.224	5.89
595.561	5.88
595.899	6.09
596.236	5.93
596.573	6.03
596.91	5.82
597.247	6.01
597.584	6.3
597.921	6.04
598.258	6.09
598.594	6.07
598.931	5.96
599.268	6.14
599.604	5.91
599.941	6.18
600.277	6.11
600.614	5.99
600.95	5.85
601.287	6.07
601.623	6.04
601.959	5.8
602.296	6.03
602.632	6
602.968	6.29
603.304	6.13
603.64	5.9
603.976	6.42
604.312	6.15
604.648	6.16
604.984	6.19
605.319	5.91
605.655	6.02
605.991	6.04
606.326	6
606.662	6.12
606.998	5.91
607.333	6.08
607.668	6.03
608.004	6.13
608.339	6.4
608.674	6.17
609.01	6.04
609.345	5.88
609.68	6.25
610.015	6.13
610.35	6
610.685	6.06
611.02	5.77
611.355	6.25
611.689	5.85
612.024	6.21
612.359	5.96
612.694	6.17
613.028	5.92
613.363	6.05
613.697	6.13
614.032	6.15
614.366	6.38
614.7	6.37
615.035	5.97
615.369	6.09
615.703	6.15
616.037	6.34
616.371	5.51
616.705	6.06
617.039	6
617.373	6.02
617.707	5.99
618.041	5.87
618.375	6.24
618.709	6.18
619.042	5.81
619.376	6.33
619.71	6.25
620.043	6
620.377	6.13
620.71	6.27
621.043	6.23
621.377	5.86
621.71	5.96
622.043	5.92
622.376	5.67
622.709	6.35
623.043	6.35
623.376	6.29
623.709	6
624.041	6.43
624.374	6.09
624.707	5.85
625.04	6.21
625.373	5.69
625.705	6.37
626.038	6.39
626.37	6.03
626.703	6.14
627.035	6.14
627.368	7.05
627.7	6.02
628.032	6.03
628.365	6.42
628.697	5.86
629.029	5.94
629.361	6.38
629.693	5.99
630.025	6.16
630.357	6.22
630.689	6.27
631.021	6.11
631.353	6.09
631.684	6.12
632.016	5.94
632.348	6.51
632.679	6.24
633.011	6.24
633.342	6.46
633.674	6.09
634.005	6.52
634.336	5.97
634.668	6.64
634.999	5.63
635.33	6.7
635.661	6.44
635.992	5.76
636.323	6.24
636.654	6.3
636.985	6.26
637.316	5.94
637.647	5.57
637.977	6.54
638.308	6.4
638.639	5.98
638.969	5.73
639.3	5.96
639.63	5.83
639.961	6.37
640.291	6.23
640.622	6.24
640.952	5.99
641.282	6.8
641.612	6.24
641.943	5.76
642.273	6.07
642.603	6.13
642.933	6.19
643.263	5.88
643.592	6.13
643.922	6.12
644.252	6.37
644.582	6.15
644.911	5.89
645.241	6.2
645.571	6.21
645.9	6.17
646.23	5.9
646.559	6.29
646.888	5.8
647.218	5.47
647.547	6.41
647.876	6.11
648.205	6.01
648.534	6.18
648.863	5.46
649.192	6.28
649.521	5.86
649.85	6.21
650.179	6.56
650.508	5.91
650.837	5.99
651.165	6.05
651.494	6.34
651.822	6.4
652.151	5.81
652.479	6.24
652.808	5.55
653.136	6.72
653.465	5.7
653.793	6.07
654.121	5.87
654.449	5.96
654.777	6.07
655.105	6.15
655.433	5.95
655.761	6.14
656.089	6.43
656.417	6.15
656.745	5.76
657.073	5.93
657.4	6.55
657.728	6.07
658.056	5.88
658.383	6.43
658.711	6.59
659.038	6.27
659.365	6.49
659.693	6.42
660.02	5.8
660.347	6.41
660.674	6.07
661.001	6.5
661.329	5.87
661.656	6.2
661.982	6.25
662.309	6.17
662.636	5.81
662.963	6.49
663.29	6.08
663.616	6.25
663.943	6.16
664.27	6.25
664.596	6.55
664.923	6.26
665.249	6.56
665.576	6.02
665.902	6.82
666.228	6.91
666.554	6.33
666.881	6.14
667.207	5.7
667.533	6.42
667.859	6.52
668.185	6.37
668.511	6.28
668.837	6.03
669.162	6.52
669.488	5.68
669.814	6.58
670.139	6.64
670.465	6.85
670.791	6.71
671.116	7.05
671.442	6.34
671.767	6.1
672.092	6.63
672.418	6.36
672.743	6.74
673.068	6.05
673.393	6.2
673.718	5.92
674.043	6.21
674.368	6.43
674.693	6.62
675.018	6.27
675.343	6.26
675.667	6.13
675.992	6.57
676.317	6.64
676.641	6.45
676.966	6.72
677.29	6.42
677.615	6.83
677.939	6.44
678.264	7
678.588	6.18
678.912	6.67
679.236	7.14
679.56	5.96
679.885	6.67
680.209	5.97
680.532	6.26
680.856	6.94
681.18	6.55
681.504	6.63
681.828	6.56
682.152	6.35
682.475	6.53
682.799	6.49
683.122	6.39
683.446	6.33
683.769	6.95
684.093	5.98
684.416	6.6
684.739	6.84
685.062	6.37
685.386	6.69
685.709	5.92
686.032	6.52
686.355	6.57
686.678	6.71
687.001	6.35
687.324	6.6
687.646	5.66
687.969	5.77
688.292	6.46
688.614	6.48
688.937	7.21
689.26	6.17
689.582	6.61
689.904	6.13
690.227	6.59
690.549	6.42
690.871	6.95
691.194	5.64
691.516	6.43
691.838	6.79
692.16	6.47
692.482	6.15
692.804	6.92
693.126	6.65
693.448	6.85
693.769	6.95
694.091	6.31
694.413	6.41
694.735	5.47
695.056	6.3
695.378	6.14
695.699	5.64
696.021	5.66
696.342	5.71
696.663	5.89
696.984	6.74
697.306	5.89
697.627	6.8
697.948	7.29
698.269	7.09
698.59	7.04
698.911	5.61
699.232	6.33
699.553	6.35
699.873	6.98
700.194	7.66
700.515	6.87
700.835	6.49
701.156	6.95
701.477	6.21
701.797	6.04
702.117	6.85
702.438	6.91
702.758	6.47
703.078	6.62
703.398	6.28
703.719	6.2
704.039	5.3
704.359	7.57
704.679	6.51
704.999	7.14
705.319	6.21
705.638	5.33
705.958	6.08
706.278	5.96
706.597	7.5
706.917	6.03
707.237	7.04
707.556	5.68
707.876	5.77
708.195	5.83
708.514	5.89
708.834	6.49
709.153	6.36
709.472	6.41
709.791	6.97
710.11	6.41
710.429	7.66
710.748	7.12
711.067	5.34
711.386	6.02
711.705	6.68
712.023	7.29
712.342	5.98
712.661	5.73
712.979	5.77
713.298	5.84
713.616	7.23
713.935	6.71
714.253	5.19
714.572	6.09
714.89	7.34
715.208	8.17
715.526	6.56
715.844	6.86
716.162	6.25
716.48	6.53
716.798	6.94
717.116	6.63
717.434	6.34
717.752	5.13
718.069	6.2
718.387	6.82
718.705	6.13
719.022	5.32
719.34	6.9
719.657	5.89
719.975	7.54
720.292	7
720.609	7.57
720.927	5.78
721.244	7.44
721.561	5.71
721.878	6.94
722.195	5.5
722.512	6.36
722.829	5.86
723.146	5.61
723.463	6.8
723.779	6.38
724.096	6.93
724.413	5.76
724.729	5.95
725.046	4.65
725.362	8.16
725.679	6.12
725.995	5.32
726.311	5.31
726.628	6.44
726.944	7.47
727.26	6.76
727.576	7.5
727.892	7.44
728.208	5.5
728.524	7.09
728.84	5.46
729.156	6.24
729.472	3.88
729.787	5.59
730.103	5.68
730.419	5.79
730.734	6.72
731.05	6.51
731.365	7.12
731.681	6.75
731.996	6.82
732.311	6.05
732.626	8.13
732.942	6.66
733.257	6.78
733.572	7.61
733.887	6.07
734.202	6.78
734.517	7.01
734.832	6.17
735.146	6.91
735.461	7.4
735.776	7.1
736.091	6.14
736.405	6
736.72	6.21
737.034	7.56
737.349	8.76
737.663	6.96
737.977	6.54
738.292	6.31
738.606	8.58
738.92	8.12
739.234	8.11
739.548	5.41
739.862	6.73
740.176	5.34
740.49	5.2
740.804	8.35
741.117	6.3
741.431	6.54
741.745	6.07
742.058	6.8
742.372	5.88
742.685	6.11
742.999	6.46
743.312	5.1
743.626	6.14
743.939	7.02
744.252	6.61
744.565	5.91
744.878	7.35
745.191	5.85
745.505	6.08
745.817	9.36
746.13	5.57
746.443	7.77
746.756	6.58
747.069	6.23
747.381	6.7
747.694	4.97
748.007	7.66
748.319	7.37
748.632	7.12
748.944	5.89
749.256	8.93
749.569	5.96
749.881	7.29
750.193	8.76
750.505	5.19
750.817	6.35
751.129	9.02
751.441	7.1
751.753	7.69
752.065	9.02
752.377	7.59
752.689	7
753	5.7
753.312	7.51
753.624	6.46
753.935	7.57
754.247	5.66
754.558	5.81
754.869	6.91
755.181	6.18
755.492	6.99
755.803	6.91
756.114	7.46
756.425	5.46
756.736	6.79
757.047	7.31
757.358	7.29
757.669	5.56
757.98	5.3
758.291	6.93
758.601	7.98
758.912	6.86
759.223	7.35
759.533	5.72
759.844	5.28
760.154	4.94
760.464	9.53
760.775	7.1
761.085	4.9
761.395	7.28
761.705	5.44
762.016	6.63
762.326	6.81
762.636	5.89
762.945	6.31
763.255	8.67
763.565	6.24
763.875	6.82
764.185	6.6
764.494	7.71
764.804	6.46
765.113	7.96
765.423	6.82
765.732	7.7
766.042	5.95
766.351	7.41
766.66	8.73
766.97	8.99
767.279	7.24
767.588	8.69
767.897	8.81
768.206	6.63
768.515	7.41
768.824	6.91
769.133	6.36
769.441	7.25
769.75	6.31
770.059	6.54
770.367	7.46
770.676	6
770.984	6.68
771.293	5.56
771.601	7.9
771.91	6.57
772.218	6.72
772.526	5.43
772.834	9.06
773.142	5.22
773.45	5.23
773.758	6.12
774.066	4.95
774.374	6.84
774.682	7.92
774.99	8.76
775.298	7.25
775.605	6.36
775.913	4.99
776.22	9.39
776.528	4.18
776.835	8.4
777.143	5.5
777.45	2.9
777.757	8.29
778.065	10.06
778.372	5.07
778.679	4.87
778.986	6.88
779.293	4.6
779.6	5.56
779.907	4.62
780.214	9.81
780.52	6.58
780.827	8.72
781.134	5.03
781.44	3.01
781.747	5.92
782.053	4.95
782.36	5.84
782.666	5.53
782.973	5.27
783.279	8.53
783.585	8.22
783.891	9.11
784.197	6.49
784.503	7.86
784.809	7.08
785.115	9.86
785.421	6.27
785.727	6.86
786.033	6.39
786.339	6.99
786.644	6.63
786.95	4.98
787.255	7.58
787.561	7.22
787.866	7.72
788.172	3.04
788.477	1.64
788.782	7.4
789.088	6.52
789.393	4.27
789.698	4.75
790.003	6.26
790.308	4.49
790.613	7.18
790.918	10.12
791.223	6.62
791.527	5.67
791.832	7.72
792.137	0.48
792.441	7.45
792.746	4.72
793.05	1.45
793.355	3.09
793.659	9.64
793.963	4.25
794.268	6.15
794.572	8.88
794.876	8.46
795.18	2.97
795.484	4.53
795.788	5.37
796.092	5.58
796.396	3.95
796.7	7.42
797.004	11.1
797.307	1.39
797.611	6.48
797.915	6.77
798.218	5.2
798.522	7.13
798.825	3.63
799.128	6.44
799.432	2.72
799.735	2.61
800.038	8.14
800.341	7.52
800.644	4.79
800.947	8.69
801.25	5.79
801.553	4.34
801.856	0.34
802.159	3.51
802.462	0.91
802.764	5.47
803.067	9.39
803.37	8.27
803.672	4.98
803.975	4.36
804.277	6.77
804.579	0.35
804.882	9.14
805.184	5.56
805.486	5.16
805.788	8.88
806.09	14.13
806.392	7.65
806.694	5.53
806.996	12.6
807.298	5.93
807.6	9.47
807.902	9.21
808.203	10
808.505	6.36
808.807	3.86
809.108	4.5
809.409	6.71
809.711	4.21
810.012	3.67
810.313	7.82
810.615	4.64
810.916	5.5
811.217	3.59
811.518	8.6
811.819	4.32
812.12	7.89
812.421	2.03
812.722	3.46
813.023	10.61
813.323	1.61
813.624	-0.82
813.925	15.21
814.225	3.49
814.526	12.78
814.826	5.81
815.126	5.03
815.427	6.83
815.727	7.98
816.027	4.21
816.327	1.87
816.627	-5.84
816.927	10.2
817.227	5.37
817.527	2.65
817.827	10.36
818.127	14.48
818.427	3.26
818.727	3.61
819.026	9
819.326	12.21
819.625	6.17
819.925	1.01
820.224	6.74
820.524	5.07
820.823	14.16
821.122	9.9
821.421	7.03
821.72	4.7
822.019	3.33
822.318	9.93
822.617	4.26
822.916	5.14
823.215	8.05
823.514	9.17
823.813	6.33
824.111	8.59
824.41	10.07
824.709	8.93
825.007	9
825.306	8.64
825.604	9.22
825.902	9.37
826.201	9.83
826.499	9.39
826.797	7.82
827.095	8.92
827.393	8.37
827.691	9.34
827.989	5.95
828.287	8.35
828.585	8.35
828.882	7.13
829.18	8.56
829.478	10.57
829.775	8.78
830.073	11.49
830.37	10.43
830.668	6.45
830.965	10.16
831.263	7.61
831.56	8.59
831.857	6.83
832.154	5.43
832.451	10.61
832.748	7.58
833.045	8.28
833.342	7.03
833.639	9.87
833.936	-0.76
834.232	11.33
834.529	4.75
834.826	7.05
835.122	2.07
835.419	4.77
835.715	7.11
836.012	8.1
836.308	4.32
836.604	3.62
836.901	8.25
837.197	8.39
837.493	6.89
837.789	7.26
838.085	4.59
838.381	10.11
838.677	7.8
838.972	7.17
839.268	6.32
839.564	5.45
839.86	3.82
840.155	0.65
840.451	1.94
840.746	8.45
841.042	11.47
841.337	5.59
841.632	1.05
841.928	6.15
842.223	-3.57
842.518	-1.39
842.813	11.38
843.108	5.7
843.403	11.48
843.698	6.38
843.993	2.25
844.287	-3.67
844.582	2.79
844.877	-3.9
845.171	5.59
845.466	-4.99
845.761	0.68
846.055	11.87
846.349	-0.52
846.644	8.43
846.938	-15.31
847.232	-5.05
847.526	-1.96
847.82	5.31
848.114	-5.44
848.408	-4.56
848.702	10.96
848.996	-22.4
849.29	0.44
849.584	2.54
849.877	-17.34
850.171	-0.34
850.465	3.25
850.758	5.83
851.052	-11.34
851.345	12
851.638	1.65
851.932	-23.47
852.225	3.53
852.518	1.75
852.811	-16.13
853.104	-49.1
853.397	14.64
853.69	-13.6
853.983	-23.18
854.276	10.55
854.569	-8.7
854.861	-15.31
855.154	-16.37
855.447	-44.52
855.739	-3.16
856.032	18.22
856.324	13.73
856.616	28.43
856.909	10.94
857.201	18.61
857.493	-13.79
857.785	-9.77
858.077	16.74
858.369	-2.54
858.661	-12.91
858.953	-19.89
859.245	-13.69
859.537	-24.13
859.829	14.19
860.12	10.35
860.412	-15.73
860.703	1.95
860.995	9.87
861.286	-71.43
861.578	0.83
861.869	18.88
862.16	2.58
862.452	-10.19
862.743	-14.59
863.034	-12.57
863.325	-11.44
863.616	9.8
863.907	-12.41
864.198	-23.92
864.488	24.69
864.779	-12.9
865.07	4.13
865.36	5.87
865.651	14.64
865.941	7.56
866.232	-1.3
866.522	-28.66
866.813	12.9
867.103	11.95
867.393	-39.82
867.683	-7.63
867.973	-32.28
868.263	9.14
868.553	2.84
868.843	11.71
869.133	-43.31
869.423	-18.48
869.713	-2.41
870.002	-3.45
870.292	9.3
870.582	8.06
870.871	-46.72
871.161	-18.59
871.45	-23.4
871.739	-43.7
872.029	-22.13
872.318	4.94
872.607	26.58
872.896	2.32
873.185	7.33
873.474	-36.36
873.763	-4.76
874.052	-0.9
874.341	-11.08
874.63	-3.38
874.918	-6.65
875.207	13.05
875.496	3.51
875.784	-49.62
876.073	-75.46
876.361	-75.26
876.649	-38.08
876.938	-8.73
877.226	45.16
877.514	40.56
877.802	6.44
878.09	-68.03
878.378	14.99
878.666	-27.29
878.954	-12.6
879.242	0.09
879.53	-12.13
879.817	4.29
880.105	-35.61
880.392	-3.06
880.68	-13.16
880.967	1.68
881.255	-1.83
881.542	-7.59
881.83	-68.12
882.117	-9.71
882.404	-17.04
882.691	-3.22
882.978	-24.49
883.265	2.48
883.552	32.92
883.839	-6.26
884.126	-17.16
884.413	8.74
884.699	14.35
884.986	15.5
885.273	4.99
885.559	4.99
885.846	4.99
