Data from 0028_chest_Reflection__2__108.txt Node

Date: Thu Oct 20 21:47:11 CDT 2022
User: ToomeyLab
Spectrometer: FLMS14357
Trigger mode: 0
Integration Time (sec): 1.000000E-2
Scans to average: 100
Electric dark correction enabled: true
Nonlinearity correction enabled: false
Boxcar width: 0
XAxis mode: Wavelengths
Number of Pixels in Spectrum: 2048
>>>>>Begin Spectral Data<<<<<
189.047	74.93
189.435	74.93
189.823	74.93
190.211	98.63
190.599	-163.35
190.987	-13.81
191.375	111.67
191.763	37.98
192.151	115.79
192.538	-182.66
192.926	147.39
193.314	94.39
193.702	66.78
194.089	126.9
194.477	124.38
194.864	253.83
195.252	5.51
195.639	229.13
196.027	-126.08
196.414	95.85
196.801	23.44
197.189	-20.61
197.576	143.49
197.963	-99.3
198.351	41.57
198.738	15.16
199.125	11.93
199.512	-14.5
199.899	10.49
200.286	-0.77
200.673	12.31
201.06	58.45
201.447	-1.84
201.833	-8.59
202.22	-40.38
202.607	6.85
202.994	-0.16
203.38	-25.69
203.767	-0.48
204.154	-25.83
204.54	-0.68
204.927	13.89
205.313	-3
205.699	33.84
206.086	1.26
206.472	-1.37
206.858	50.81
207.245	-2.74
207.631	14.23
208.017	-15.35
208.403	-72.74
208.789	-21.43
209.175	15.32
209.561	27.75
209.947	-3.33
210.333	-5.46
210.719	13.16
211.105	13.22
211.491	-60.17
211.876	-12.71
212.262	17.98
212.648	-12.38
213.034	15.1
213.419	-28.76
213.805	-34.72
214.19	-22.85
214.576	-25.3
214.961	-18.45
215.346	-22.64
215.732	31.84
216.117	-14.12
216.502	3.88
216.888	-16.97
217.273	-3.48
217.658	28.11
218.043	19.68
218.428	-8.42
218.813	18.96
219.198	1.57
219.583	-1.97
219.968	24.08
220.353	6.54
220.738	12.87
221.122	2.71
221.507	1.37
221.892	-3.22
222.276	7.56
222.661	13.45
223.046	11.03
223.43	4.21
223.815	9.04
224.199	-7.72
224.583	1.45
224.968	7.65
225.352	6.71
225.736	6.72
226.121	-4.89
226.505	3.43
226.889	4.08
227.273	-3.43
227.657	2.22
228.041	-1.23
228.425	2.32
228.809	0.94
229.193	3.61
229.577	0.52
229.961	1.78
230.344	2.02
230.728	2.09
231.112	1.24
231.495	3.4
231.879	2.28
232.263	2.73
232.646	2.6
233.03	1.33
233.413	-0.61
233.797	-1.96
234.18	2.27
234.563	1.83
234.946	1.69
235.33	2.02
235.713	2.72
236.096	0.77
236.479	3.86
236.862	2.45
237.245	2.29
237.628	1.36
238.011	2.71
238.394	3.4
238.777	2.81
239.16	1.57
239.543	-1.09
239.925	0.14
240.308	3.03
240.691	4.39
241.073	1.23
241.456	2.24
241.838	1.86
242.221	2.28
242.603	2.39
242.986	2.36
243.368	1.85
243.75	2.7
244.133	2.53
244.515	1.87
244.897	2.03
245.279	1.49
245.661	2.92
246.043	2.68
246.425	2.52
246.807	2.59
247.189	2.76
247.571	2.3
247.953	2.06
248.335	1.98
248.717	2.05
249.098	1.99
249.48	2.21
249.862	2.33
250.243	2.11
250.625	2.95
251.006	2.8
251.388	2.32
251.769	1.93
252.151	2.32
252.532	1.08
252.913	2.02
253.295	2.08
253.676	2.42
254.057	1.91
254.438	1.9
254.819	3.04
255.2	2.88
255.581	1.53
255.962	2.34
256.343	2.27
256.724	1.71
257.105	2.07
257.486	1.38
257.867	2.45
258.247	2.64
258.628	2.57
259.009	1.65
259.389	2.49
259.77	2.28
260.15	1.96
260.531	2.58
260.911	2.1
261.292	2.15
261.672	2.15
262.052	2.14
262.432	2.23
262.813	1.99
263.193	2.6
263.573	2.04
263.953	1.5
264.333	2.21
264.713	2.61
265.093	1.68
265.473	2.06
265.853	1.94
266.233	2.35
266.612	1.72
266.992	1.58
267.372	2.22
267.752	1.78
268.131	2.44
268.511	1.9
268.89	1.84
269.27	2.38
269.649	1.93
270.029	1.93
270.408	2.19
270.787	2.26
271.167	1.82
271.546	1.6
271.925	2.03
272.304	2.23
272.683	2.02
273.062	1.7
273.441	2.05
273.82	2.25
274.199	1.87
274.578	1.81
274.957	1.71
275.336	1.97
275.715	2.12
276.093	2.21
276.472	2.5
276.851	2.72
277.229	2.14
277.608	2.06
277.986	2.23
278.365	1.61
278.743	2.08
279.122	2.17
279.5	2.11
279.878	2.52
280.257	1.91
280.635	1.77
281.013	2.24
281.391	2.52
281.769	2.1
282.147	1.41
282.525	1.34
282.903	1.97
283.281	1.7
283.659	1.79
284.037	1.27
284.415	2.15
284.792	1.73
285.17	2.6
285.548	1.52
285.925	1.99
286.303	1.77
286.68	2.19
287.058	1.8
287.435	1.81
287.813	2.21
288.19	2.05
288.567	1.91
288.945	2.54
289.322	1.9
289.699	1.59
290.076	1.98
290.453	1.75
290.83	1.89
291.207	2.23
291.584	2.12
291.961	2.14
292.338	1.77
292.715	1.89
293.092	2.48
293.469	2.24
293.845	2.11
294.222	2.27
294.599	2.75
294.975	2.2
295.352	2.6
295.728	2.02
296.105	2.86
296.481	1.83
296.858	2.4
297.234	2.26
297.61	2.18
297.986	2.11
298.363	2.34
298.739	2.29
299.115	2.07
299.491	2.28
299.867	2.09
300.243	2.18
300.619	2.5
300.995	2.36
301.371	2.36
301.746	2.24
302.122	2.62
302.498	2.53
302.874	2.86
303.249	2.43
303.625	2.52
304	2.69
304.376	2.34
304.751	2.97
305.127	2.56
305.502	2.81
305.878	2.96
306.253	2.24
306.628	2.47
307.003	2.33
307.378	1.92
307.754	2.49
308.129	2.67
308.504	2.62
308.879	2.44
309.254	2.39
309.629	2.6
310.003	2.34
310.378	2.58
310.753	3.08
311.128	2.34
311.502	2.61
311.877	3.04
312.252	2.4
312.626	2.31
313.001	2.62
313.375	2.53
313.75	2.48
314.124	2.41
314.498	2.29
314.873	2.8
315.247	2.56
315.621	2.7
315.995	2.62
316.369	2.72
316.743	2.12
317.117	2.76
317.491	2.96
317.865	3.1
318.239	2.7
318.613	3.16
318.987	2.8
319.361	2.75
319.734	1.86
320.108	3.07
320.482	2.81
320.855	2.74
321.229	2.92
321.602	1.71
321.976	2.8
322.349	2.47
322.723	3.08
323.096	2.83
323.469	2.62
323.843	3.32
324.216	2.53
324.589	3.42
324.962	2.67
325.335	2.95
325.708	2.86
326.081	2.99
326.454	2.68
326.827	2.8
327.2	3.31
327.573	2.97
327.945	3.21
328.318	2.46
328.691	3.22
329.063	3.08
329.436	3.06
329.809	3.15
330.181	2.94
330.553	2.92
330.926	3.17
331.298	2.84
331.671	3.05
332.043	2.95
332.415	3.12
332.787	3.16
333.159	2.8
333.532	3.13
333.904	2.95
334.276	2.62
334.648	2.66
335.02	2.56
335.391	2.94
335.763	3.02
336.135	3.26
336.507	2.34
336.879	3.53
337.25	2.7
337.622	3.12
337.993	3
338.365	3.26
338.736	3.04
339.108	2.89
339.479	3.01
339.851	2.82
340.222	2.71
340.593	2.9
340.964	3.25
341.336	2.68
341.707	2.75
342.078	2.92
342.449	2.68
342.82	3.05
343.191	2.96
343.562	3.18
343.933	3.16
344.303	2.8
344.674	3.17
345.045	3.08
345.416	2.87
345.786	2.82
346.157	2.95
346.527	2.62
346.898	3.11
347.268	2.79
347.639	2.91
348.009	3.08
348.38	3.13
348.75	2.64
349.12	3.26
349.49	2.98
349.861	3.08
350.231	2.77
350.601	3.23
350.971	3.07
351.341	3.38
351.711	3
352.081	2.7
352.45	3.22
352.82	2.66
353.19	3.12
353.56	3.02
353.929	2.81
354.299	3.25
354.669	3
355.038	2.94
355.408	2.76
355.777	3.03
356.147	3.51
356.516	3.21
356.885	3.13
357.254	3.03
357.624	3.15
357.993	3.06
358.362	3.18
358.731	3.1
359.1	2.73
359.469	2.97
359.838	3
360.207	3.35
360.576	2.82
360.945	3.25
361.314	2.74
361.682	3.09
362.051	2.68
362.42	3.02
362.788	2.99
363.157	2.83
363.525	3.15
363.894	2.92
364.262	3.14
364.631	3.29
364.999	3.29
365.367	3.11
365.735	2.86
366.104	2.68
366.472	3.01
366.84	3.57
367.208	3.07
367.576	3.09
367.944	3.43
368.312	2.62
368.68	3.25
369.048	2.9
369.416	3.14
369.783	3.02
370.151	3.48
370.519	3.23
370.886	2.7
371.254	3.16
371.621	3.39
371.989	3.16
372.356	2.82
372.724	3.27
373.091	3.13
373.458	2.84
373.826	3.19
374.193	3.27
374.56	2.66
374.927	2.98
375.294	2.92
375.661	3.51
376.028	3.11
376.395	3.45
376.762	3.24
377.129	3.11
377.496	3.02
377.863	3.17
378.229	2.98
378.596	3.06
378.963	3.07
379.329	3.32
379.696	3.16
380.062	3.33
380.429	3.37
380.795	2.93
381.161	3.25
381.528	3.21
381.894	3.18
382.26	2.98
382.626	3.32
382.993	3.28
383.359	3
383.725	3.28
384.091	3.21
384.457	3.18
384.823	3.28
385.188	3.24
385.554	2.76
385.92	3.06
386.286	3.07
386.651	2.79
387.017	3.1
387.383	3.09
387.748	3.61
388.114	3.47
388.479	3.22
388.845	3.34
389.21	3.22
389.575	2.98
389.94	3.34
390.306	3.39
390.671	3.33
391.036	3.45
391.401	3.09
391.766	3.41
392.131	3.13
392.496	3.13
392.861	3.22
393.226	3.14
393.591	3.28
393.956	3.44
394.32	3.42
394.685	3.45
395.05	3.18
395.414	3.24
395.779	3.15
396.143	3.34
396.508	3.47
396.872	3.32
397.236	3.19
397.601	3.64
397.965	3.44
398.329	3.4
398.694	3.35
399.058	3.26
399.422	3.22
399.786	3.28
400.15	3.31
400.514	3.54
400.878	3.14
401.242	3.49
401.605	3.37
401.969	3.42
402.333	3.39
402.697	3.71
403.06	3.33
403.424	3.22
403.787	3.51
404.151	3.25
404.514	3.17
404.878	3.16
405.241	3.39
405.604	3.4
405.968	3.4
406.331	3.32
406.694	3.29
407.057	3.28
407.42	3.33
407.783	3.41
408.146	3.31
408.509	3.23
408.872	3.32
409.235	3.29
409.598	3.61
409.961	3.45
410.323	3.56
410.686	3.39
411.049	3.35
411.411	3.31
411.774	3.24
412.136	3.55
412.499	3.43
412.861	3.32
413.223	3.49
413.586	3.49
413.948	3.31
414.31	3.3
414.672	3.55
415.035	3.3
415.397	3.4
415.759	3.38
416.121	3.5
416.483	3.55
416.845	3.58
417.206	3.43
417.568	3.55
417.93	3.23
418.292	3.46
418.653	3.53
419.015	3.43
419.377	3.56
419.738	3.19
420.1	3.44
420.461	3.56
420.822	3.3
421.184	3.35
421.545	3.36
421.906	3.39
422.267	3.43
422.629	3.37
422.99	3.41
423.351	3.41
423.712	3.4
424.073	3.51
424.434	3.37
424.795	3.39
425.155	3.48
425.516	3.42
425.877	3.36
426.238	3.54
426.598	3.35
426.959	3.36
427.32	3.55
427.68	3.53
428.041	3.59
428.401	3.66
428.761	3.51
429.122	3.47
429.482	3.55
429.842	3.48
430.202	3.7
430.563	3.54
430.923	3.57
431.283	3.57
431.643	3.39
432.003	3.5
432.363	3.57
432.722	3.83
433.082	3.53
433.442	3.51
433.802	3.47
434.161	3.62
434.521	3.46
434.881	3.56
435.24	3.4
435.6	3.55
435.959	3.64
436.319	3.67
436.678	3.51
437.037	3.51
437.396	3.7
437.756	3.55
438.115	3.6
438.474	3.55
438.833	3.5
439.192	3.55
439.551	3.62
439.91	3.68
440.269	3.59
440.628	3.56
440.987	3.52
441.345	3.65
441.704	3.5
442.063	3.63
442.421	3.45
442.78	3.6
443.138	3.58
443.497	3.62
443.855	3.64
444.214	3.66
444.572	3.69
444.93	3.38
445.288	3.51
445.647	3.52
446.005	3.61
446.363	3.53
446.721	3.6
447.079	3.61
447.437	3.52
447.795	3.56
448.153	3.6
448.51	3.61
448.868	3.61
449.226	3.68
449.584	3.67
449.941	3.68
450.299	3.69
450.656	3.6
451.014	3.67
451.371	3.7
451.729	3.7
452.086	3.84
452.443	3.59
452.801	3.83
453.158	3.67
453.515	3.85
453.872	3.59
454.229	3.59
454.586	3.71
454.943	3.59
455.3	3.78
455.657	3.63
456.014	3.81
456.371	3.66
456.727	3.89
457.084	3.5
457.441	3.95
457.797	3.58
458.154	3.84
458.51	3.64
458.867	3.78
459.223	3.94
459.58	3.66
459.936	3.82
460.292	3.72
460.648	3.65
461.005	3.61
461.361	3.64
461.717	3.74
462.073	3.81
462.429	3.86
462.785	3.96
463.141	3.91
463.496	3.97
463.852	3.87
464.208	3.91
464.564	3.89
464.919	3.91
465.275	3.96
465.631	3.76
465.986	3.79
466.342	3.64
466.697	3.92
467.052	3.78
467.408	3.84
467.763	3.9
468.118	4.11
468.473	4.07
468.829	3.8
469.184	3.84
469.539	3.83
469.894	3.92
470.249	4.03
470.603	3.86
470.958	3.92
471.313	3.81
471.668	3.87
472.023	3.92
472.377	3.84
472.732	3.94
473.086	4.04
473.441	3.94
473.795	4.07
474.15	3.9
474.504	3.82
474.859	3.9
475.213	3.94
475.567	4.05
475.921	3.87
476.275	4.13
476.63	4.05
476.984	4.02
477.338	4.02
477.692	3.99
478.045	4.01
478.399	3.95
478.753	3.86
479.107	3.92
479.461	4.02
479.814	4
480.168	4.03
480.521	4
480.875	4.17
481.228	4.04
481.582	4.11
481.935	4
482.289	3.79
482.642	3.9
482.995	4.1
483.348	4.04
483.701	3.96
484.055	3.82
484.408	3.77
484.761	3.83
485.114	3.71
485.466	3.69
485.819	3.76
486.172	3.86
486.525	3.95
486.878	3.96
487.23	4.01
487.583	3.94
487.936	3.99
488.288	3.86
488.641	3.89
488.993	3.88
489.345	3.83
489.698	3.91
490.05	3.98
490.402	3.99
490.754	4.05
491.107	4.02
491.459	4.04
491.811	4.04
492.163	4.01
492.515	3.97
492.866	3.92
493.218	3.95
493.57	3.94
493.922	4.05
494.274	4.06
494.625	4.09
494.977	4.16
495.328	4.12
495.68	4.22
496.031	4.21
496.383	4.24
496.734	4.09
497.086	4.13
497.437	4.26
497.788	4.24
498.139	4.09
498.49	4.17
498.842	4.07
499.193	4.17
499.544	4.25
499.894	4.28
500.245	4.23
500.596	4.26
500.947	4.18
501.298	4.3
501.648	4.13
501.999	4.34
502.35	4.25
502.7	4.31
503.051	4.34
503.401	4.27
503.752	4.27
504.102	4.19
504.452	4.36
504.803	4.31
505.153	4.44
505.503	4.43
505.853	4.32
506.203	4.34
506.553	4.41
506.903	4.36
507.253	4.38
507.603	4.49
507.953	4.45
508.303	4.45
508.652	4.4
509.002	4.26
509.352	4.36
509.701	4.35
510.051	4.41
510.4	4.37
510.75	4.3
511.099	4.43
511.449	4.48
511.798	4.41
512.147	4.51
512.496	4.61
512.846	4.48
513.195	4.46
513.544	4.5
513.893	4.5
514.242	4.44
514.591	4.6
514.939	4.65
515.288	4.66
515.637	4.52
515.986	4.6
516.334	4.53
516.683	4.6
517.032	4.53
517.38	4.54
517.729	4.61
518.077	4.53
518.426	4.58
518.774	4.61
519.122	4.52
519.47	4.51
519.819	4.56
520.167	4.54
520.515	4.62
520.863	4.56
521.211	4.6
521.559	4.67
521.907	4.57
522.255	4.6
522.602	4.58
522.95	4.75
523.298	4.72
523.645	4.76
523.993	4.77
524.341	4.86
524.688	4.86
525.036	4.74
525.383	4.78
525.73	4.61
526.078	4.76
526.425	4.72
526.772	4.75
527.119	4.64
527.466	4.8
527.814	4.77
528.161	4.73
528.508	4.77
528.854	4.78
529.201	4.66
529.548	4.68
529.895	4.55
530.242	4.56
530.588	4.63
530.935	4.72
531.282	4.72
531.628	4.78
531.975	4.88
532.321	4.84
532.667	4.92
533.014	4.97
533.36	4.88
533.706	4.79
534.052	4.86
534.399	4.88
534.745	4.82
535.091	4.81
535.437	4.91
535.783	4.99
536.129	5.01
536.474	5.15
536.82	5.03
537.166	5.06
537.512	5.11
537.857	5.01
538.203	5.03
538.549	4.99
538.894	5.24
539.239	4.97
539.585	5.13
539.93	5.21
540.276	5.3
540.621	5.2
540.966	5.18
541.311	5.22
541.656	5.25
542.001	5.09
542.346	5.03
542.691	5.01
543.036	5.03
543.381	5.09
543.726	5.17
544.071	5.21
544.415	5.3
544.76	5.23
545.105	5.3
545.449	5.31
545.794	5.44
546.138	5.44
546.483	5.55
546.827	5.48
547.171	5.4
547.516	5.46
547.86	5.42
548.204	5.46
548.548	5.5
548.892	5.53
549.236	5.58
549.58	5.49
549.924	5.56
550.268	5.52
550.612	5.69
550.956	5.55
551.3	5.7
551.643	5.74
551.987	5.89
552.33	5.66
552.674	5.62
553.017	5.7
553.361	5.8
553.704	5.8
554.048	5.88
554.391	5.74
554.734	5.76
555.077	5.83
555.42	5.78
555.764	5.76
556.107	5.8
556.45	5.93
556.793	5.93
557.135	6.12
557.478	6.02
557.821	5.87
558.164	5.95
558.507	5.97
558.849	6.15
559.192	5.94
559.534	6.11
559.877	6.21
560.219	6.15
560.562	6.29
560.904	6.23
561.246	6.02
561.589	6.45
561.931	6.05
562.273	6.12
562.615	6.23
562.957	6.07
563.299	6.38
563.641	6.26
563.983	6.45
564.325	6.36
564.667	6.45
565.008	6.4
565.35	6.41
565.692	6.23
566.033	6.27
566.375	6.47
566.716	6.47
567.058	6.32
567.399	6.38
567.741	6.38
568.082	6.31
568.423	6.43
568.764	6.22
569.105	6.48
569.447	6.61
569.788	6.57
570.129	6.68
570.47	6.77
570.811	6.31
571.151	6.6
571.492	6.52
571.833	6.87
572.174	6.54
572.514	6.74
572.855	6.62
573.195	6.57
573.536	6.69
573.876	6.59
574.217	6.81
574.557	6.9
574.898	6.84
575.238	7.01
575.578	6.76
575.918	6.85
576.258	6.88
576.598	7.02
576.938	6.87
577.278	6.88
577.618	7.21
577.958	6.93
578.298	7.04
578.638	7.18
578.977	7.3
579.317	7.03
579.657	7.06
579.996	7.19
580.336	7.25
580.675	7.49
581.014	7.05
581.354	7.38
581.693	7.07
582.032	7.22
582.372	7.37
582.711	7.58
583.05	7.58
583.389	7.41
583.728	7.42
584.067	7.43
584.406	7.63
584.745	7.51
585.083	7.59
585.422	7.57
585.761	7.69
586.1	7.8
586.438	7.92
586.777	7.67
587.115	7.61
587.454	7.85
587.792	7.74
588.13	7.73
588.469	8.15
588.807	7.7
589.145	7.72
589.483	7.77
589.821	7.64
590.159	7.91
590.497	7.58
590.835	7.74
591.173	7.94
591.511	7.96
591.849	8.02
592.187	7.61
592.524	8.28
592.862	8.06
593.2	8.13
593.537	8.15
593.875	8.21
594.212	8.07
594.55	8.06
594.887	8.23
595.224	8.45
595.561	8.18
595.899	8.23
596.236	8.37
596.573	8.44
596.91	8.29
597.247	8.42
597.584	8.25
597.921	8.36
598.258	8.27
598.594	8.51
598.931	8.44
599.268	8.31
599.604	8.39
599.941	8.63
600.277	8.48
600.614	8.44
600.95	8.69
601.287	8.5
601.623	8.71
601.959	8.63
602.296	8.6
602.632	8.53
602.968	8.8
603.304	8.69
603.64	9.04
603.976	8.59
604.312	8.77
604.648	8.92
604.984	9.06
605.319	8.87
605.655	8.83
605.991	8.73
606.326	8.9
606.662	9
606.998	9.13
607.333	8.91
607.668	8.89
608.004	9.08
608.339	9.2
608.674	9.34
609.01	9.31
609.345	9.04
609.68	9.08
610.015	9.34
610.35	9.15
610.685	9.29
611.02	9.02
611.355	9.15
611.689	9.39
612.024	9.39
612.359	9.14
612.694	9.1
613.028	9.46
613.363	9.38
613.697	9.74
614.032	9.68
614.366	9.53
614.7	9.49
615.035	9.32
615.369	9.5
615.703	9.87
616.037	9.83
616.371	9.6
616.705	9.75
617.039	9.8
617.373	9.97
617.707	9.86
618.041	9.81
618.375	9.82
618.709	10.02
619.042	9.81
619.376	9.84
619.71	10.14
620.043	10.13
620.377	10.04
620.71	10.13
621.043	9.99
621.377	10.04
621.71	9.91
622.043	10.27
622.376	10.15
622.709	10.28
623.043	10.12
623.376	10.53
623.709	10.26
624.041	10.2
624.374	10.43
624.707	10.56
625.04	10.57
625.373	10.79
625.705	10.3
626.038	10.67
626.37	10.55
626.703	10.43
627.035	10.75
627.368	10.54
627.7	10.54
628.032	10.79
628.365	10.49
628.697	10.69
629.029	10.84
629.361	10.74
629.693	11
630.025	10.52
630.357	10.79
630.689	10.91
631.021	10.9
631.353	10.95
631.684	11.13
632.016	10.5
632.348	11.08
632.679	10.65
633.011	11.56
633.342	11.31
633.674	11.03
634.005	11.04
634.336	11.39
634.668	11.29
634.999	11.02
635.33	11.05
635.661	11.33
635.992	11.12
636.323	11.54
636.654	11.29
636.985	11.43
637.316	11.28
637.647	11.12
637.977	11.68
638.308	11.18
638.639	11.99
638.969	11.73
639.3	11.49
639.63	11.59
639.961	11.53
640.291	11.5
640.622	11.95
640.952	12.16
641.282	11.95
641.612	12.02
641.943	11.67
642.273	11.86
642.603	11.72
642.933	12.35
643.263	11.72
643.592	11.47
643.922	11.99
644.252	12.14
644.582	11.66
644.911	12.06
645.241	12.38
645.571	11.77
645.9	12.22
646.23	11.97
646.559	12.22
646.888	12.61
647.218	11.74
647.547	11.77
647.876	12.17
648.205	12.02
648.534	12.1
648.863	12.26
649.192	12.67
649.521	12.34
649.85	12.99
650.179	12.3
650.508	13.01
650.837	12.14
651.165	12.22
651.494	12.5
651.822	12.57
652.151	12.97
652.479	12.61
652.808	12.25
653.136	12.31
653.465	12.95
653.793	12.69
654.121	13.08
654.449	12.79
654.777	12.95
655.105	13.36
655.433	12.1
655.761	12.97
656.089	12.63
656.417	13.16
656.745	13.23
657.073	12.96
657.4	13.13
657.728	13.07
658.056	13.19
658.383	13.13
658.711	12.95
659.038	13.32
659.365	13.09
659.693	13.24
660.02	13.39
660.347	13.2
660.674	13.38
661.001	13.36
661.329	13.08
661.656	13.25
661.982	13.4
662.309	13.27
662.636	13.68
662.963	13.57
663.29	13.55
663.616	13.56
663.943	13.84
664.27	14.03
664.596	14.2
664.923	12.77
665.249	13.7
665.576	13.68
665.902	13.79
666.228	13.72
666.554	13.98
666.881	14.01
667.207	14.13
667.533	14.3
667.859	13.79
668.185	14.22
668.511	14.31
668.837	13.79
669.162	14.57
669.488	13.99
669.814	14.01
670.139	14.32
670.465	13.81
670.791	14.62
671.116	13.93
671.442	14.21
671.767	14.48
672.092	14.59
672.418	14.02
672.743	14.19
673.068	14.1
673.393	14.02
673.718	13.81
674.043	14.22
674.368	14.24
674.693	14.83
675.018	14.68
675.343	14.67
675.667	15.09
675.992	14.92
676.317	15.01
676.641	14.37
676.966	14
677.29	15.04
677.615	15.03
677.939	14.4
678.264	14.28
678.588	15.13
678.912	15
679.236	15.42
679.56	14.41
679.885	14.49
680.209	14.67
680.532	15.7
680.856	14.97
681.18	14.92
681.504	14.44
681.828	15.28
682.152	15.42
682.475	15.1
682.799	15.44
683.122	15.28
683.446	15.01
683.769	15.59
684.093	15.26
684.416	15.19
684.739	15.06
685.062	15
685.386	15.72
685.709	15.43
686.032	15.97
686.355	15.46
686.678	15.36
687.001	15.03
687.324	15.91
687.646	15.84
687.969	15.35
688.292	15.65
688.614	15.48
688.937	15.05
689.26	15.85
689.582	15.33
689.904	16.17
690.227	15.81
690.549	15.99
690.871	15.3
691.194	16.28
691.516	16.19
691.838	15.55
692.16	15.89
692.482	16.07
692.804	15.58
693.126	16.06
693.448	16.1
693.769	16.04
694.091	16.26
694.413	16.34
694.735	16.62
695.056	15.92
695.378	17.1
695.699	17.2
696.021	15.82
696.342	16.16
696.663	16.65
696.984	16.46
697.306	16.34
697.627	17.2
697.948	16.6
698.269	16.79
698.59	16.09
698.911	16.72
699.232	17.27
699.553	17.13
699.873	16.93
700.194	16.94
700.515	16.81
700.835	17.03
701.156	16.98
701.477	16.43
701.797	16.97
702.117	16.94
702.438	16.68
702.758	17.05
703.078	16.1
703.398	17.2
703.719	17.2
704.039	18.2
704.359	17.94
704.679	16.11
704.999	17.35
705.319	17.66
705.638	16.24
705.958	17.1
706.278	17.34
706.597	17.86
706.917	18.05
707.237	17.22
707.556	18.36
707.876	17.44
708.195	17.2
708.514	16.82
708.834	17.11
709.153	17.31
709.472	17.69
709.791	17.64
710.11	17.71
710.429	18.3
710.748	16.96
711.067	17.47
711.386	16.86
711.705	18.74
712.023	16.89
712.342	17.05
712.661	17.19
712.979	18.45
713.298	17.57
713.616	17.43
713.935	16.98
714.253	18.14
714.572	18.19
714.89	18.99
715.208	18.53
715.526	17.84
715.844	18.52
716.162	18.05
716.48	18.31
716.798	18.36
717.116	18.96
717.434	18.7
717.752	18.66
718.069	18.09
718.387	18.57
718.705	18.11
719.022	16.66
719.34	18.17
719.657	18.43
719.975	18.98
720.292	16.89
720.609	18.74
720.927	18.59
721.244	16.94
721.561	19.14
721.878	18.94
722.195	18.59
722.512	18.9
722.829	19.24
723.146	19.31
723.463	18.62
723.779	17.1
724.096	17.92
724.413	20.54
724.729	19.4
725.046	20.52
725.362	19.68
725.679	18.98
725.995	19.4
726.311	19.69
726.628	19.2
726.944	20.03
727.26	18.94
727.576	20
727.892	18.94
728.208	17.27
728.524	19.21
728.84	17.55
729.156	20.01
729.472	18.5
729.787	19.56
730.103	19.45
730.419	19.49
730.734	19.17
731.05	19.12
731.365	19.8
731.681	20.16
731.996	19.66
732.311	18.71
732.626	19.17
732.942	20.32
733.257	19.39
733.572	19.67
733.887	19.86
734.202	19.48
734.517	20.35
734.832	19.1
735.146	19.15
735.461	19.88
735.776	20.73
736.091	19.13
736.405	19.68
736.72	18.78
737.034	18.48
737.349	20.78
737.663	19.54
737.977	19.07
738.292	20.84
738.606	19.3
738.92	20.49
739.234	20.56
739.548	19.96
739.862	19.75
740.176	20.59
740.49	19.82
740.804	21.4
741.117	21.48
741.431	19.71
741.745	20.45
742.058	23.2
742.372	19.27
742.685	20.73
742.999	18.12
743.312	21.03
743.626	20.4
743.939	19.89
744.252	21.21
744.565	20.54
744.878	21.34
745.191	22.3
745.505	21.92
745.817	20.76
746.13	23.18
746.443	21.73
746.756	21.44
747.069	19.29
747.381	20.9
747.694	20.34
748.007	20.38
748.319	22.02
748.632	20.79
748.944	22.04
749.256	21.89
749.569	21.99
749.881	21.15
750.193	22.29
750.505	21.66
750.817	21.55
751.129	21.48
751.441	21.35
751.753	21.45
752.065	21.63
752.377	21.42
752.689	21.59
753	23.43
753.312	20.77
753.624	22.4
753.935	21.53
754.247	22.1
754.558	24.97
754.869	22.04
755.181	21.61
755.492	21.74
755.803	21.76
756.114	23.02
756.425	19.52
756.736	22.73
757.047	22.07
757.358	21.34
757.669	23.19
757.98	22.91
758.291	22.53
758.601	21.79
758.912	22.32
759.223	22.23
759.533	22.2
759.844	21.45
760.154	24.08
760.464	21.23
760.775	22.81
761.085	23.05
761.395	24.91
761.705	22.74
762.016	21.97
762.326	21.59
762.636	22.07
762.945	21.47
763.255	20.27
763.565	22.87
763.875	22.87
764.185	22.66
764.494	21.94
764.804	21.88
765.113	21.94
765.423	23.39
765.732	23.18
766.042	23.28
766.351	23.21
766.66	22.59
766.97	23.63
767.279	23.27
767.588	21.84
767.897	22.64
768.206	24.4
768.515	21.71
768.824	23.38
769.133	22.68
769.441	23.15
769.75	22.94
770.059	23.47
770.367	25.31
770.676	23.3
770.984	24.13
771.293	23.34
771.601	23.46
771.91	23.57
772.218	23.15
772.526	24.84
772.834	24.37
773.142	23.54
773.45	22.69
773.758	22.08
774.066	22.78
774.374	24.77
774.682	24.7
774.99	23.21
775.298	24.57
775.605	25.46
775.913	23.65
776.22	23.46
776.528	20.45
776.835	21.6
777.143	24.84
777.45	22.05
777.757	24.89
778.065	25.7
778.372	20.96
778.679	24.48
778.986	24.05
779.293	23.06
779.6	22.97
779.907	27.71
780.214	26.51
780.52	24.28
780.827	23.3
781.134	24.73
781.44	22.25
781.747	22.44
782.053	22.45
782.36	26.18
782.666	23.05
782.973	22.42
783.279	28.7
783.585	25.48
783.891	25.03
784.197	20.89
784.503	24.96
784.809	23.56
785.115	21.72
785.421	23.85
785.727	23.26
786.033	23.97
786.339	24.04
786.644	23.72
786.95	28.05
787.255	26.72
787.561	22.24
787.866	26.3
788.172	24.8
788.477	24.77
788.782	27
789.088	23.97
789.393	26.75
789.698	23.21
790.003	25.52
790.308	20
790.613	23.75
790.918	21.33
791.223	22.09
791.527	25.06
791.832	27.57
792.137	27.76
792.441	25.3
792.746	24.92
793.05	25.51
793.355	19.62
793.659	26.55
793.963	25.37
794.268	26.88
794.572	22.3
794.876	24.38
795.18	23.95
795.484	26.5
795.788	28.26
796.092	25.67
796.396	23.91
796.7	28.31
797.004	26.08
797.307	22.57
797.611	23.29
797.915	23.67
798.218	22.61
798.522	26.88
798.825	26.47
799.128	22.51
799.432	25.31
799.735	26.12
800.038	24.78
800.341	24.69
800.644	23.82
800.947	26.51
801.25	24.01
801.553	21.88
801.856	26.05
802.159	24.63
802.462	24.42
802.764	26.08
803.067	24.71
803.37	27.35
803.672	26.21
803.975	27.95
804.277	26.59
804.579	27.64
804.882	26.37
805.184	23.49
805.486	23.33
805.788	23.67
806.09	27.77
806.392	27.9
806.694	23.66
806.996	22.92
807.298	30.57
807.6	26.22
807.902	29.59
808.203	27.66
808.505	28.34
808.807	25.01
809.108	25.25
809.409	27.87
809.711	30.59
810.012	23.28
810.313	28.36
810.615	20.68
810.916	26.64
811.217	25.88
811.518	24.82
811.819	30.21
812.12	27.01
812.421	27.45
812.722	26.16
813.023	33.8
813.323	28.52
813.624	31.85
813.925	24
814.225	25.19
814.526	27.25
814.826	27.28
815.126	22.99
815.427	29.46
815.727	26.33
816.027	18.7
816.327	23.66
816.627	29.99
816.927	29.43
817.227	29.74
817.527	28.61
817.827	25.02
818.127	28.13
818.427	29.37
818.727	24.45
819.026	31.65
819.326	23.3
819.625	28.84
819.925	26.25
820.224	27.45
820.524	30.09
820.823	28.99
821.122	26.46
821.421	27.97
821.72	24.55
822.019	31.19
822.318	30.3
822.617	31.11
822.916	28.11
823.215	26.9
823.514	27.61
823.813	28.2
824.111	28.26
824.41	28.44
824.709	29.25
825.007	28.29
825.306	28.77
825.604	29.02
825.902	29.07
826.201	29.98
826.499	27.38
826.797	29.63
827.095	28.49
827.393	28.43
827.691	28.51
827.989	27.62
828.287	27.75
828.585	28.61
828.882	28.82
829.18	28.83
829.478	27.94
829.775	28.45
830.073	28.45
830.37	29.48
830.668	27.87
830.965	30.03
831.263	29.35
831.56	29.26
831.857	28.52
832.154	27.65
832.451	28.15
832.748	28.23
833.045	24.77
833.342	27.12
833.639	26.91
833.936	26.98
834.232	29.14
834.529	28.36
834.826	25.87
835.122	22.03
835.419	29.47
835.715	26.59
836.012	27.7
836.308	29.44
836.604	29.55
836.901	31.09
837.197	28.06
837.493	30.5
837.789	29.14
838.085	35.1
838.381	27.2
838.677	33.63
838.972	28.98
839.268	30.89
839.564	25.49
839.86	29.58
840.155	22.35
840.451	33.25
840.746	27.46
841.042	27.96
841.337	29.89
841.632	22.23
841.928	25.64
842.223	27.83
842.518	25.29
842.813	35.38
843.108	32.62
843.403	30.35
843.698	25.42
843.993	37.61
844.287	27.89
844.582	24.58
844.877	30.87
845.171	34.12
845.466	28.28
845.761	18.62
846.055	29.47
846.349	28.3
846.644	35.8
846.938	24.51
847.232	26.61
847.526	21.18
847.82	25.8
848.114	18.52
848.408	24.99
848.702	13.85
848.996	34.81
849.29	28.68
849.584	24.38
849.877	30.24
850.171	12.07
850.465	25.38
850.758	41.8
851.052	21.93
851.345	35.41
851.638	37.05
851.932	25.93
852.225	22.86
852.518	21.2
852.811	30.23
853.104	33.72
853.397	21.83
853.69	20.73
853.983	40.61
854.276	23.2
854.569	14
854.861	14.64
855.154	17.44
855.447	22.52
855.739	3.09
856.032	56.24
856.324	34.74
856.616	25.32
856.909	10.57
857.201	18.95
857.493	36.31
857.785	31.42
858.077	39.18
858.369	33.43
858.661	50.71
858.953	22.36
859.245	18.65
859.537	52.55
859.829	24.36
860.12	48.15
860.412	9.98
860.703	41.26
860.995	27.69
861.286	32.26
861.578	54.32
861.869	38.86
862.16	28.69
862.452	20.38
862.743	37.45
863.034	28.5
863.325	23.2
863.616	25.79
863.907	25.07
864.198	8.26
864.488	27.44
864.779	41.11
865.07	27.98
865.36	18.15
865.651	21.04
865.941	28.88
866.232	58.12
866.522	37.27
866.813	18.03
867.103	25.16
867.393	48.37
867.683	25.04
867.973	23.11
868.263	17.9
868.553	29.17
868.843	24.6
869.133	26.95
869.423	44.47
869.713	34.75
870.002	21.61
870.292	26.34
870.582	23.95
870.871	14.9
871.161	45.86
871.45	33.59
871.739	29.84
872.029	29.97
872.318	13.81
872.607	37.61
872.896	4.44
873.185	40.52
873.474	12.7
873.763	17.69
874.052	31.78
874.341	31.98
874.63	28.14
874.918	22.82
875.207	61.55
875.496	38.65
875.784	10.92
876.073	20.86
876.361	6.94
876.649	45.05
876.938	17.67
877.226	40.35
877.514	19.32
877.802	46.16
878.09	36.71
878.378	33.48
878.666	51.01
878.954	28.39
879.242	21.93
879.53	-1.73
879.817	21.8
880.105	7.79
880.392	25.15
880.68	43.09
880.967	28.45
881.255	28.27
881.542	18.68
881.83	55.57
882.117	31.88
882.404	39.28
882.691	24.31
882.978	27.24
883.265	31.12
883.552	10.41
883.839	36.28
884.126	38.38
884.413	34.84
884.699	32.89
884.986	29.78
885.273	38.08
885.559	38.08
885.846	38.08
