Data from 0028_crown_Reflection__1__112.txt Node

Date: Thu Oct 20 21:48:31 CDT 2022
User: ToomeyLab
Spectrometer: FLMS14357
Trigger mode: 0
Integration Time (sec): 1.000000E-2
Scans to average: 100
Electric dark correction enabled: true
Nonlinearity correction enabled: false
Boxcar width: 0
XAxis mode: Wavelengths
Number of Pixels in Spectrum: 2048
>>>>>Begin Spectral Data<<<<<
189.047	94.66
189.435	94.66
189.823	94.66
190.211	-61.98
190.599	-173.3
190.987	29.95
191.375	53.51
191.763	-144.06
192.151	133.25
192.538	636.82
192.926	87.16
193.314	177.92
193.702	-174.35
194.089	204.99
194.477	45.8
194.864	250.95
195.252	96.83
195.639	-114.53
196.027	39.15
196.414	13.21
196.801	17.84
197.189	-21.41
197.576	558.21
197.963	-125.81
198.351	30.4
198.738	-70.91
199.125	-11.99
199.512	-11.67
199.899	-31.53
200.286	-23.97
200.673	-8.33
201.06	17.66
201.447	17.1
201.833	4.45
202.22	-20.61
202.607	20.27
202.994	-15.71
203.38	-50.52
203.767	-11.24
204.154	-0.37
204.54	-21.42
204.927	34.77
205.313	4.72
205.699	0.73
206.086	-8.44
206.472	18.55
206.858	-101.73
207.245	15.77
207.631	-24.58
208.017	-17.1
208.403	-85.16
208.789	17.68
209.175	26.72
209.561	35.64
209.947	-1.57
210.333	-18.04
210.719	9.25
211.105	7.99
211.491	-31.58
211.876	-59.6
212.262	16.91
212.648	-12.34
213.034	-19.56
213.419	-15.84
213.805	24.87
214.19	-8.04
214.576	-40.92
214.961	-13.02
215.346	-43
215.732	-7.2
216.117	-9.61
216.502	10.54
216.888	-34.01
217.273	-9.28
217.658	16.73
218.043	9.33
218.428	-21.46
218.813	17.18
219.198	-3.45
219.583	11.41
219.968	8.97
220.353	-21.53
220.738	5.83
221.122	7.21
221.507	-8.84
221.892	-14.32
222.276	-2.3
222.661	1.16
223.046	9.47
223.43	-3.59
223.815	-0.75
224.199	-11.53
224.583	-7.99
224.968	1.28
225.352	4.91
225.736	4.33
226.121	-7.8
226.505	6.05
226.889	0.69
227.273	-3.79
227.657	0.82
228.041	0.76
228.425	2.1
228.809	3.73
229.193	0.77
229.577	0.76
229.961	2.25
230.344	1.58
230.728	1.82
231.112	1.8
231.495	2.58
231.879	2.07
232.263	3.31
232.646	1.31
233.03	1.77
233.413	-0.83
233.797	0.82
234.18	1.71
234.563	1.36
234.946	1.64
235.33	2.66
235.713	1.46
236.096	-0.21
236.479	2.66
236.862	0.14
237.245	2.05
237.628	1.01
238.011	2.54
238.394	2.85
238.777	2.49
239.16	1.85
239.543	1.11
239.925	0.36
240.308	1.78
240.691	4.75
241.073	1.78
241.456	2.32
241.838	2.44
242.221	1.32
242.603	1.04
242.986	2.24
243.368	2.1
243.75	2.28
244.133	2.36
244.515	2.53
244.897	1.79
245.279	0.84
245.661	2.48
246.043	2.76
246.425	2.33
246.807	1.77
247.189	2.15
247.571	2.16
247.953	2.17
248.335	2.13
248.717	2.13
249.098	2.01
249.48	1.99
249.862	1.95
250.243	1.76
250.625	2.25
251.006	2.18
251.388	1.53
251.769	1.95
252.151	1.36
252.532	1.46
252.913	1.59
253.295	1.5
253.676	2.11
254.057	1.75
254.438	1.85
254.819	1.71
255.2	2.4
255.581	1.26
255.962	2.51
256.343	1.54
256.724	1.74
257.105	2.07
257.486	0.32
257.867	1.79
258.247	1.41
258.628	2.05
259.009	1.76
259.389	1.99
259.77	1.58
260.15	2.19
260.531	1.97
260.911	1.75
261.292	2.1
261.672	2.08
262.052	1.99
262.432	2.23
262.813	1.91
263.193	2.71
263.573	1.79
263.953	2.27
264.333	2.02
264.713	2.34
265.093	2.03
265.473	1.72
265.853	3.05
266.233	1.94
266.612	2.12
266.992	1.94
267.372	2.7
267.752	1.95
268.131	2.04
268.511	2.41
268.89	1.52
269.27	2.07
269.649	1.88
270.029	1.46
270.408	1.86
270.787	1.95
271.167	1.47
271.546	1.5
271.925	2.19
272.304	1.83
272.683	1.59
273.062	1.64
273.441	1.59
273.82	2.23
274.199	1.61
274.578	1.79
274.957	1.76
275.336	1.79
275.715	2.27
276.093	2.38
276.472	2.63
276.851	1.86
277.229	1.57
277.608	1.94
277.986	2.01
278.365	1.95
278.743	1.18
279.122	2
279.5	1.52
279.878	2.15
280.257	2.06
280.635	1.84
281.013	1.79
281.391	2.12
281.769	1.95
282.147	1.65
282.525	1.3
282.903	1.99
283.281	1.44
283.659	1.48
284.037	1.51
284.415	1.92
284.792	1.73
285.17	2.31
285.548	1.9
285.925	1.4
286.303	1.69
286.68	2
287.058	1.75
287.435	1.64
287.813	1.74
288.19	1.87
288.567	1.79
288.945	2.13
289.322	1.85
289.699	1.11
290.076	1.51
290.453	1.36
290.83	1.77
291.207	1.99
291.584	1.76
291.961	1.5
292.338	1.67
292.715	1.93
293.092	2.21
293.469	1.92
293.845	2.14
294.222	2.3
294.599	2.66
294.975	1.75
295.352	2.05
295.728	1.48
296.105	2.23
296.481	1.64
296.858	2.02
297.234	1.96
297.61	1.73
297.986	1.64
298.363	1.81
298.739	2.09
299.115	2.08
299.491	2.14
299.867	1.59
300.243	1.78
300.619	1.92
300.995	1.49
301.371	2.13
301.746	1.99
302.122	2.31
302.498	1.91
302.874	2.55
303.249	2.47
303.625	1.71
304	2.3
304.376	2.07
304.751	2.23
305.127	1.69
305.502	2.13
305.878	2.21
306.253	1.84
306.628	1.88
307.003	2.05
307.378	1.63
307.754	1.96
308.129	2.43
308.504	2.28
308.879	1.99
309.254	2.06
309.629	2.01
310.003	1.89
310.378	2.05
310.753	2.47
311.128	1.97
311.502	2.15
311.877	2.35
312.252	1.87
312.626	2.39
313.001	2.01
313.375	1.97
313.75	1.94
314.124	1.76
314.498	1.9
314.873	1.93
315.247	1.94
315.621	1.71
315.995	1.86
316.369	2.5
316.743	1.7
317.117	2.27
317.491	2.39
317.865	1.98
318.239	2.37
318.613	2.72
318.987	2.56
319.361	2.48
319.734	1.74
320.108	2.22
320.482	2.29
320.855	2.22
321.229	2.54
321.602	1.61
321.976	2.58
322.349	2.5
322.723	2.76
323.096	2.47
323.469	2.85
323.843	2.24
324.216	1.93
324.589	2.86
324.962	2.17
325.335	2.37
325.708	2.79
326.081	2.3
326.454	2.43
326.827	1.91
327.2	2.67
327.573	2.41
327.945	2.4
328.318	2.23
328.691	2.67
329.063	2.29
329.436	2.22
329.809	2.53
330.181	2.3
330.553	2.12
330.926	2.57
331.298	2.11
331.671	2.44
332.043	2.23
332.415	2.15
332.787	2.55
333.159	2.63
333.532	2.89
333.904	2.27
334.276	2.52
334.648	2.12
335.02	2.48
335.391	2.58
335.763	2.19
336.135	2.86
336.507	1.91
336.879	3.15
337.25	2.03
337.622	2.65
337.993	2.41
338.365	2.65
338.736	2.28
339.108	2.26
339.479	2.46
339.851	2.14
340.222	2.45
340.593	2.51
340.964	2.65
341.336	2.14
341.707	2.12
342.078	2.38
342.449	2.33
342.82	2.68
343.191	2.47
343.562	2.52
343.933	2.67
344.303	2.28
344.674	2.72
345.045	2.62
345.416	2.62
345.786	2.45
346.157	2.46
346.527	1.88
346.898	2.41
347.268	2.57
347.639	2.7
348.009	2.61
348.38	2.64
348.75	2.33
349.12	2.53
349.49	2.17
349.861	2.28
350.231	2.41
350.601	2.93
350.971	2.51
351.341	2.46
351.711	2.71
352.081	2.09
352.45	2.5
352.82	2.35
353.19	2.53
353.56	2.43
353.929	2.2
354.299	2.52
354.669	2.22
355.038	2.42
355.408	2.28
355.777	2.77
356.147	2.86
356.516	2.53
356.885	2.6
357.254	2.41
357.624	2.5
357.993	2.23
358.362	2.86
358.731	2.58
359.1	2.49
359.469	2.82
359.838	2.41
360.207	2.72
360.576	2.58
360.945	2.7
361.314	2.49
361.682	2.78
362.051	2.32
362.42	2.51
362.788	2.52
363.157	2.38
363.525	2.67
363.894	2.65
364.262	2.65
364.631	2.55
364.999	2.55
365.367	2.78
365.735	2.67
366.104	2.54
366.472	2.45
366.84	2.88
367.208	2.65
367.576	2.54
367.944	2.84
368.312	2.48
368.68	2.7
369.048	2.29
369.416	2.48
369.783	2.45
370.151	3.1
370.519	2.79
370.886	2.69
371.254	2.88
371.621	2.63
371.989	2.73
372.356	2.41
372.724	2.91
373.091	2.55
373.458	2.26
373.826	2.47
374.193	2.51
374.56	2.55
374.927	2.25
375.294	2.64
375.661	3.1
376.028	2.68
376.395	3.47
376.762	2.75
377.129	2.51
377.496	2.76
377.863	2.6
378.229	2.45
378.596	2.61
378.963	2.79
379.329	2.94
379.696	2.79
380.062	2.54
380.429	2.64
380.795	2.77
381.161	2.67
381.528	2.72
381.894	2.52
382.26	2.67
382.626	3.07
382.993	2.59
383.359	2.73
383.725	2.72
384.091	2.85
384.457	2.38
384.823	2.75
385.188	2.7
385.554	2.49
385.92	2.71
386.286	2.66
386.651	2.7
387.017	2.74
387.383	2.86
387.748	3.08
388.114	2.84
388.479	2.7
388.845	2.97
389.21	2.86
389.575	2.74
389.94	3.02
390.306	2.85
390.671	2.76
391.036	2.79
391.401	2.57
391.766	2.69
392.131	2.71
392.496	2.5
392.861	2.59
393.226	2.63
393.591	2.7
393.956	2.6
394.32	2.71
394.685	3.01
395.05	2.77
395.414	2.65
395.779	2.69
396.143	2.75
396.508	2.91
396.872	2.7
397.236	2.61
397.601	3.01
397.965	2.87
398.329	2.53
398.694	2.57
399.058	2.45
399.422	3.01
399.786	2.58
400.15	2.66
400.514	2.96
400.878	2.72
401.242	2.85
401.605	3.03
401.969	2.88
402.333	2.6
402.697	3.01
403.06	2.64
403.424	2.78
403.787	2.94
404.151	2.8
404.514	2.9
404.878	2.7
405.241	2.89
405.604	2.88
405.968	2.76
406.331	2.87
406.694	2.73
407.057	2.83
407.42	2.74
407.783	2.73
408.146	2.82
408.509	2.62
408.872	3
409.235	2.72
409.598	2.93
409.961	2.92
410.323	2.89
410.686	2.68
411.049	2.89
411.411	2.7
411.774	2.76
412.136	2.91
412.499	2.85
412.861	2.82
413.223	3
413.586	2.72
413.948	2.78
414.31	2.81
414.672	2.93
415.035	2.75
415.397	2.74
415.759	2.91
416.121	2.9
416.483	2.75
416.845	2.79
417.206	2.53
417.568	2.76
417.93	2.57
418.292	2.8
418.653	2.95
419.015	2.89
419.377	2.85
419.738	2.77
420.1	2.88
420.461	2.77
420.822	2.74
421.184	2.67
421.545	2.85
421.906	2.68
422.267	2.68
422.629	2.74
422.99	2.77
423.351	2.69
423.712	2.72
424.073	2.76
424.434	2.8
424.795	2.67
425.155	2.72
425.516	2.76
425.877	2.66
426.238	2.9
426.598	2.83
426.959	2.89
427.32	2.8
427.68	2.74
428.041	2.79
428.401	2.85
428.761	2.79
429.122	2.74
429.482	2.83
429.842	2.87
430.202	2.82
430.563	2.63
430.923	3.05
431.283	2.78
431.643	2.69
432.003	2.92
432.363	3.07
432.722	3.04
433.082	2.87
433.442	2.8
433.802	2.78
434.161	3
434.521	2.79
434.881	2.76
435.24	2.67
435.6	2.85
435.959	2.92
436.319	2.87
436.678	2.68
437.037	2.83
437.396	2.83
437.756	2.89
438.115	2.92
438.474	2.77
438.833	2.8
439.192	2.83
439.551	2.7
439.91	2.84
440.269	2.82
440.628	2.88
440.987	2.74
441.345	2.86
441.704	2.87
442.063	2.93
442.421	2.74
442.78	2.8
443.138	2.9
443.497	2.78
443.855	2.72
444.214	2.85
444.572	2.78
444.93	2.6
445.288	2.78
445.647	2.78
446.005	2.78
446.363	2.81
446.721	2.78
447.079	2.83
447.437	2.73
447.795	2.74
448.153	2.71
448.51	2.75
448.868	2.77
449.226	2.86
449.584	2.88
449.941	2.85
450.299	2.86
450.656	2.89
451.014	2.91
451.371	2.91
451.729	2.76
452.086	2.9
452.443	2.88
452.801	2.99
453.158	2.76
453.515	2.83
453.872	2.79
454.229	2.77
454.586	2.88
454.943	2.77
455.3	2.91
455.657	2.87
456.014	2.86
456.371	2.82
456.727	2.92
457.084	2.61
457.441	3.06
457.797	2.78
458.154	2.94
458.51	2.74
458.867	2.79
459.223	3.11
459.58	2.84
459.936	2.8
460.292	2.84
460.648	2.81
461.005	2.68
461.361	2.8
461.717	2.84
462.073	2.93
462.429	2.94
462.785	3.11
463.141	3.04
463.496	2.94
463.852	2.91
464.208	2.92
464.564	2.99
464.919	3.02
465.275	3.07
465.631	2.79
465.986	2.97
466.342	2.86
466.697	2.88
467.052	2.9
467.408	2.83
467.763	3.04
468.118	3.01
468.473	2.96
468.829	2.92
469.184	2.8
469.539	2.96
469.894	2.83
470.249	3.08
470.603	2.87
470.958	2.89
471.313	2.76
471.668	2.89
472.023	2.88
472.377	2.91
472.732	3.07
473.086	3
473.441	2.89
473.795	3.01
474.15	2.82
474.504	2.93
474.859	2.99
475.213	3.09
475.567	3.08
475.921	2.83
476.275	3.08
476.63	3.05
476.984	2.86
477.338	2.91
477.692	2.96
478.045	2.96
478.399	2.96
478.753	2.84
479.107	2.91
479.461	2.97
479.814	2.87
480.168	3
480.521	2.87
480.875	2.96
481.228	2.83
481.582	2.89
481.935	2.93
482.289	2.88
482.642	2.76
482.995	2.92
483.348	3.04
483.701	2.87
484.055	2.83
484.408	2.77
484.761	2.67
485.114	2.65
485.466	2.63
485.819	2.71
486.172	2.78
486.525	2.86
486.878	2.86
487.23	2.86
487.583	2.83
487.936	2.84
488.288	2.82
488.641	2.8
488.993	2.73
489.345	2.72
489.698	2.74
490.05	2.8
490.402	2.91
490.754	2.9
491.107	2.83
491.459	2.95
491.811	2.76
492.163	2.84
492.515	2.75
492.866	2.78
493.218	2.74
493.57	2.8
493.922	2.85
494.274	2.87
494.625	2.87
494.977	2.93
495.328	2.89
495.68	2.92
496.031	2.92
496.383	2.9
496.734	2.93
497.086	2.89
497.437	2.99
497.788	2.89
498.139	2.8
498.49	2.98
498.842	2.77
499.193	2.92
499.544	2.97
499.894	2.9
500.245	2.98
500.596	2.94
500.947	2.92
501.298	3.03
501.648	3.02
501.999	2.97
502.35	3.05
502.7	2.88
503.051	3.1
503.401	2.99
503.752	2.98
504.102	2.96
504.452	2.91
504.803	2.79
505.153	3.01
505.503	3.08
505.853	2.92
506.203	2.91
506.553	3
506.903	2.94
507.253	3
507.603	3.05
507.953	2.96
508.303	2.93
508.652	2.94
509.002	2.92
509.352	2.95
509.701	2.92
510.051	2.94
510.4	2.86
510.75	2.83
511.099	2.87
511.449	2.94
511.798	2.99
512.147	3.04
512.496	3.03
512.846	3.06
513.195	2.95
513.544	3.02
513.893	3.02
514.242	2.9
514.591	2.96
514.939	2.98
515.288	3.08
515.637	2.84
515.986	2.96
516.334	2.92
516.683	3
517.032	2.99
517.38	3
517.729	3.11
518.077	2.91
518.426	2.95
518.774	2.99
519.122	2.98
519.47	2.83
519.819	2.92
520.167	2.89
520.515	2.94
520.863	2.93
521.211	2.91
521.559	3.01
521.907	2.93
522.255	2.9
522.602	2.98
522.95	3.12
523.298	2.98
523.645	3.05
523.993	2.91
524.341	3.03
524.688	2.98
525.036	2.97
525.383	3.1
525.73	2.93
526.078	3.01
526.425	2.95
526.772	2.95
527.119	2.81
527.466	3.01
527.814	2.95
528.161	3
528.508	2.9
528.854	3.02
529.201	2.89
529.548	2.83
529.895	2.74
530.242	2.77
530.588	2.83
530.935	2.91
531.282	2.89
531.628	2.91
531.975	3.04
532.321	3.02
532.667	2.96
533.014	3.02
533.36	2.99
533.706	2.83
534.052	2.89
534.399	2.94
534.745	2.88
535.091	2.89
535.437	2.91
535.783	3
536.129	2.93
536.474	3.01
536.82	2.99
537.166	3
537.512	2.95
537.857	2.95
538.203	2.95
538.549	2.94
538.894	3.02
539.239	3.04
539.585	3.06
539.93	2.99
540.276	3.08
540.621	2.94
540.966	3.02
541.311	2.99
541.656	2.96
542.001	3.02
542.346	2.89
542.691	2.81
543.036	2.79
543.381	2.9
543.726	2.91
544.071	2.99
544.415	3.1
544.76	2.85
545.105	2.95
545.449	3.03
545.794	3.1
546.138	3.12
546.483	3.1
546.827	3.06
547.171	2.92
547.516	3.04
547.86	3.08
548.204	3.01
548.548	3
548.892	2.98
549.236	2.97
549.58	3.08
549.924	3.13
550.268	3.14
550.612	3.25
550.956	3.12
551.3	3.18
551.643	3.1
551.987	3.25
552.33	3.07
552.674	3
553.017	3.02
553.361	3.17
553.704	3.12
554.048	3.12
554.391	3.04
554.734	3.05
555.077	2.93
555.42	2.99
555.764	3.21
556.107	3.01
556.45	3.12
556.793	3.01
557.135	3.19
557.478	3.06
557.821	3.25
558.164	3.08
558.507	3.07
558.849	3.19
559.192	3.18
559.534	3.1
559.877	3.26
560.219	3.2
560.562	3.13
560.904	3.23
561.246	3.14
561.589	3.27
561.931	3.06
562.273	3.06
562.615	3.33
562.957	3.23
563.299	3.07
563.641	3.15
563.983	3.2
564.325	3.2
564.667	3.3
565.008	3.25
565.35	3.26
565.692	3.14
566.033	2.9
566.375	3.18
566.716	3.19
567.058	3.14
567.399	3.24
567.741	2.95
568.082	3.21
568.423	3.2
568.764	3.09
569.105	3.05
569.447	3.15
569.788	3.14
570.129	3.25
570.47	3.04
570.811	2.86
571.151	2.98
571.492	2.95
571.833	3.04
572.174	3.14
572.514	3.27
572.855	3.15
573.195	3.22
573.536	3.1
573.876	3.11
574.217	3.12
574.557	3.17
574.898	3.12
575.238	3.27
575.578	3.06
575.918	3.18
576.258	3.12
576.598	3.26
576.938	3.16
577.278	3
577.618	3.31
577.958	3.28
578.298	3.39
578.638	3.1
578.977	3.37
579.317	3.17
579.657	3.08
579.996	3.38
580.336	3.43
580.675	3.63
581.014	3.27
581.354	3.41
581.693	3.21
582.032	3.25
582.372	3.29
582.711	2.96
583.05	3.31
583.389	3.1
583.728	3.23
584.067	3.24
584.406	3.36
584.745	3.32
585.083	3.23
585.422	3.4
585.761	3.38
586.1	3.35
586.438	3.39
586.777	3.22
587.115	3.27
587.454	3.29
587.792	3.32
588.13	3.39
588.469	3.48
588.807	3.43
589.145	3.27
589.483	3.2
589.821	3.07
590.159	3.34
590.497	3.12
590.835	3.24
591.173	3.24
591.511	3.37
591.849	3.17
592.187	3.12
592.524	3.31
592.862	3.14
593.2	3.24
593.537	3.12
593.875	3.26
594.212	3.2
594.55	3.32
594.887	3.06
595.224	3.3
595.561	3.26
595.899	3.5
596.236	3.3
596.573	3.52
596.91	3.26
597.247	3.24
597.584	3.31
597.921	3.32
598.258	3.25
598.594	3.15
598.931	3.23
599.268	3.22
599.604	3.16
599.941	3.35
600.277	3.13
600.614	3.21
600.95	3.35
601.287	3.3
601.623	3.24
601.959	3.26
602.296	3.22
602.632	3.22
602.968	3.4
603.304	3.13
603.64	3.51
603.976	3
604.312	3.34
604.648	3.33
604.984	3.26
605.319	3.42
605.655	3.45
605.991	3.23
606.326	3.32
606.662	3.39
606.998	3.36
607.333	3.25
607.668	3.38
608.004	3.38
608.339	3.43
608.674	3.27
609.01	3.47
609.345	3.41
609.68	3.22
610.015	3.66
610.35	3.34
610.685	3.43
611.02	3.26
611.355	3.02
611.689	3.46
612.024	3.2
612.359	3.31
612.694	3.36
613.028	3.29
613.363	3.36
613.697	3.35
614.032	3.69
614.366	3.46
614.7	3.39
615.035	3.29
615.369	3.42
615.703	3.41
616.037	3.53
616.371	3.17
616.705	3.04
617.039	3.39
617.373	3.26
617.707	3.48
618.041	3.35
618.375	3.17
618.709	3.41
619.042	2.97
619.376	3.3
619.71	3.6
620.043	3.32
620.377	3.63
620.71	3.61
621.043	3.54
621.377	3.09
621.71	3.33
622.043	3.22
622.376	3.6
622.709	3.59
623.043	3.47
623.376	3.37
623.709	3.35
624.041	3.56
624.374	3.5
624.707	3.35
625.04	3.64
625.373	3.55
625.705	3.13
626.038	3.42
626.37	3.44
626.703	3.39
627.035	3.39
627.368	3.61
627.7	3.21
628.032	3.59
628.365	3.28
628.697	3.41
629.029	3.24
629.361	3.55
629.693	3.65
630.025	3.47
630.357	3.39
630.689	3.41
631.021	3.62
631.353	3.59
631.684	3.49
632.016	3.5
632.348	3.58
632.679	3.44
633.011	3.69
633.342	3.73
633.674	3.71
634.005	3.7
634.336	3.8
634.668	3.5
634.999	3.29
635.33	3.82
635.661	3.43
635.992	3.64
636.323	3.84
636.654	3.65
636.985	3.59
637.316	3.45
637.647	3.31
637.977	3.77
638.308	3.43
638.639	3.9
638.969	3.72
639.3	3.43
639.63	3.88
639.961	3.57
640.291	3.18
640.622	3.98
640.952	3.8
641.282	4.05
641.612	3.79
641.943	3.53
642.273	3.58
642.603	3.55
642.933	3.69
643.263	3.4
643.592	3.51
643.922	3.7
644.252	3.96
644.582	3.52
644.911	3.98
645.241	3.75
645.571	3.61
645.9	3.82
646.23	3.54
646.559	3.85
646.888	4.06
647.218	3.41
647.547	3.5
647.876	3.48
648.205	3.78
648.534	3.3
648.863	3.41
649.192	3.62
649.521	3.55
649.85	3.46
650.179	3.45
650.508	4.05
650.837	3.7
651.165	3.24
651.494	3.85
651.822	3.92
652.151	3.7
652.479	3.67
652.808	3.73
653.136	3.23
653.465	3.44
653.793	3.77
654.121	3.81
654.449	3.59
654.777	3.77
655.105	3.76
655.433	3.88
655.761	4.27
656.089	3.65
656.417	3.84
656.745	3.79
657.073	3.48
657.4	3.97
657.728	3.88
658.056	3.53
658.383	3.66
658.711	4.26
659.038	3.63
659.365	3.4
659.693	4.04
660.02	3.88
660.347	3.73
660.674	3.65
661.001	3.43
661.329	3.84
661.656	3.45
661.982	3.8
662.309	3.81
662.636	3.97
662.963	3.45
663.29	3.53
663.616	3.55
663.943	4
664.27	4.16
664.596	3.82
664.923	3.38
665.249	4.09
665.576	4.48
665.902	4.13
666.228	4.11
666.554	3.38
666.881	3.86
667.207	3.84
667.533	3.26
667.859	3.73
668.185	4.42
668.511	3.89
668.837	3.75
669.162	4.05
669.488	3.81
669.814	3.9
670.139	3.99
670.465	3.67
670.791	4.16
671.116	4.19
671.442	3.81
671.767	4.01
672.092	3.89
672.418	3.77
672.743	2.98
673.068	3.54
673.393	3.86
673.718	4.13
674.043	3.43
674.368	3.68
674.693	3.92
675.018	4.15
675.343	3.15
675.667	3.99
675.992	3.9
676.317	4.31
676.641	4.58
676.966	3.42
677.29	3.82
677.615	4.37
677.939	3.65
678.264	4.38
678.588	4.11
678.912	3.91
679.236	3.9
679.56	3.54
679.885	3.87
680.209	3.28
680.532	4.26
680.856	4.67
681.18	3.86
681.504	3.9
681.828	3.86
682.152	4.37
682.475	3.51
682.799	4.37
683.122	4.21
683.446	3.82
683.769	3.75
684.093	3.91
684.416	3.82
684.739	4.31
685.062	3.75
685.386	3.87
685.709	3.98
686.032	4.38
686.355	3.94
686.678	4.34
687.001	3.87
687.324	4.01
687.646	4.29
687.969	3.5
688.292	4.1
688.614	4.44
688.937	4.08
689.26	3.55
689.582	4.33
689.904	3.78
690.227	3.27
690.549	4.86
690.871	3.45
691.194	4.38
691.516	4.05
691.838	3.27
692.16	3.59
692.482	4.02
692.804	4.49
693.126	4.51
693.448	3.97
693.769	4.4
694.091	4.25
694.413	4.32
694.735	4.98
695.056	3.63
695.378	4.11
695.699	4.32
696.021	3.45
696.342	4.24
696.663	3.8
696.984	4.23
697.306	4.23
697.627	4.1
697.948	3.95
698.269	3.7
698.59	3.4
698.911	3.62
699.232	4.62
699.553	4.24
699.873	4.1
700.194	4.58
700.515	3.72
700.835	4.6
701.156	4.26
701.477	3.81
701.797	3.93
702.117	4.75
702.438	3.85
702.758	4.49
703.078	3.76
703.398	4.46
703.719	4.63
704.039	4.81
704.359	5.59
704.679	4.18
704.999	4.81
705.319	4.18
705.638	3.22
705.958	4.56
706.278	4.46
706.597	4.03
706.917	4.21
707.237	3.49
707.556	4.01
707.876	3.9
708.195	4.17
708.514	4.12
708.834	4.03
709.153	3.75
709.472	4.03
709.791	4.12
710.11	4.72
710.429	5.24
710.748	4.3
711.067	3.85
711.386	3.58
711.705	4.43
712.023	4.24
712.342	4.21
712.661	3.41
712.979	4.13
713.298	3.91
713.616	3.2
713.935	4.36
714.253	4.33
714.572	4.75
714.89	3.51
715.208	4.64
715.526	3.7
715.844	4.93
716.162	5.07
716.48	3.7
716.798	4.61
717.116	4.56
717.434	4.27
717.752	4.33
718.069	4.4
718.387	5.1
718.705	4.17
719.022	2.99
719.34	3.94
719.657	4.56
719.975	4.53
720.292	3.31
720.609	4.65
720.927	3.81
721.244	4.07
721.561	4.86
721.878	5.55
722.195	4.72
722.512	4.27
722.829	4.13
723.146	3.86
723.463	5.18
723.779	2.68
724.096	4.33
724.413	4.66
724.729	3.8
725.046	4.34
725.362	6.09
725.679	3.96
725.995	5.27
726.311	5.51
726.628	5.19
726.944	4.13
727.26	3.7
727.576	5.18
727.892	3.86
728.208	2.9
728.524	4.62
728.84	3.98
729.156	6.08
729.472	4.69
729.787	3.72
730.103	4.88
730.419	4.39
730.734	4.41
731.05	3.69
731.365	4.16
731.681	4.64
731.996	5.1
732.311	3.09
732.626	3.93
732.942	4.86
733.257	4.08
733.572	4.05
733.887	3.89
734.202	4.92
734.517	4.9
734.832	3.27
735.146	5.02
735.461	4.98
735.776	4.92
736.091	3.31
736.405	3.08
736.72	3.12
737.034	4.53
737.349	5.9
737.663	4.81
737.977	4.6
738.292	4.6
738.606	2.6
738.92	5.33
739.234	4.82
739.548	3.98
739.862	4.06
740.176	4.07
740.49	4.75
740.804	4.92
741.117	5.83
741.431	3.97
741.745	6.3
742.058	6.92
742.372	4.29
742.685	3.74
742.999	2.48
743.312	4.5
743.626	3.56
743.939	5.12
744.252	5.38
744.565	4.82
744.878	6.73
745.191	7
745.505	7.23
745.817	3.4
746.13	5.38
746.443	6.66
746.756	3.47
747.069	5.77
747.381	3.69
747.694	5.7
748.007	3.99
748.319	4.97
748.632	4.56
748.944	5.32
749.256	4.62
749.569	5.41
749.881	5.53
750.193	5.04
750.505	2.58
750.817	6.35
751.129	4.93
751.441	5.76
751.753	6.43
752.065	2.98
752.377	4.95
752.689	5.74
753	5.36
753.312	3.15
753.624	4.53
753.935	4.82
754.247	4.13
754.558	7.71
754.869	4.78
755.181	4.75
755.492	3.92
755.803	5.07
756.114	5.87
756.425	5.39
756.736	5.17
757.047	4.63
757.358	5.52
757.669	6.58
757.98	5.39
758.291	4.11
758.601	3.82
758.912	4.59
759.223	5.89
759.533	5.73
759.844	4.14
760.154	6.66
760.464	3.01
760.775	6.31
761.085	3.73
761.395	5.31
761.705	6.13
762.016	5.09
762.326	4.37
762.636	4.97
762.945	4.14
763.255	3.68
763.565	5.39
763.875	6.05
764.185	3.38
764.494	5.42
764.804	4.86
765.113	5.01
765.423	5.49
765.732	6
766.042	5.69
766.351	6.23
766.66	5.11
766.97	4.31
767.279	6.41
767.588	4.03
767.897	5.33
768.206	5.06
768.515	5.03
768.824	4.47
769.133	5.12
769.441	5.5
769.75	4.71
770.059	6.75
770.367	6.72
770.676	5.77
770.984	5.34
771.293	4.33
771.601	4.15
771.91	5.62
772.218	3.9
772.526	5.3
772.834	7.59
773.142	4.78
773.45	5.99
773.758	3.31
774.066	5.09
774.374	6.1
774.682	5.99
774.99	5.16
775.298	6.15
775.605	6.17
775.913	6.07
776.22	6.24
776.528	6.03
776.835	4.46
777.143	5.69
777.45	4.44
777.757	7.26
778.065	9.77
778.372	2.84
778.679	4.07
778.986	6.19
779.293	2.19
779.6	2.87
779.907	9.65
780.214	7.26
780.52	7.09
780.827	2.06
781.134	3.04
781.44	5.35
781.747	5.24
782.053	5.13
782.36	6.94
782.666	3.18
782.973	3.39
783.279	7.2
783.585	6.37
783.891	4.56
784.197	2.19
784.503	6.64
784.809	4.23
785.115	6.72
785.421	6.84
785.727	2.65
786.033	6.82
786.339	6.37
786.644	6.23
786.95	7.5
787.255	5.16
787.561	2.23
787.866	7.53
788.172	6.9
788.477	7.36
788.782	7.22
789.088	4.65
789.393	7.02
789.698	6.39
790.003	6.11
790.308	4.03
790.613	5.28
790.918	4.86
791.223	3.16
791.527	6.16
791.832	6.35
792.137	2.56
792.441	7.22
792.746	5.7
793.05	7.74
793.355	7.36
793.659	8.44
793.963	2.25
794.268	6.12
794.572	6.07
794.876	7.28
795.18	7.08
795.484	4.4
795.788	6.53
796.092	2.88
796.396	3.72
796.7	5.11
797.004	7.31
797.307	3.55
797.611	2.55
797.915	5.89
798.218	2.66
798.522	1.13
798.825	8.83
799.128	6.24
799.432	8.94
799.735	6.74
800.038	5.37
800.341	4.99
800.644	5.14
800.947	7.05
801.25	2.39
801.553	4.07
801.856	2.94
802.159	3.12
802.462	7.03
802.764	5.46
803.067	6.77
803.37	5.69
803.672	5.43
803.975	7.52
804.277	6.87
804.579	10.04
804.882	8.32
805.184	8.41
805.486	5.31
805.788	5.6
806.09	10.36
806.392	3.63
806.694	8.01
806.996	6.78
807.298	5.81
807.6	5.3
807.902	8.02
808.203	6.87
808.505	11.09
808.807	6.2
809.108	2.96
809.409	7.49
809.711	12.8
810.012	5.73
810.313	7.12
810.615	3.76
810.916	4.87
811.217	6.23
811.518	7.06
811.819	6.77
812.12	5.37
812.421	6.03
812.722	9.08
813.023	5.52
813.323	8.53
813.624	7.2
813.925	7.57
814.225	3.89
814.526	1.94
814.826	5.65
815.126	2.33
815.427	3.76
815.727	7.33
816.027	0.7
816.327	3.82
816.627	6.57
816.927	5.93
817.227	7.94
817.527	4.91
817.827	4.69
818.127	6.78
818.427	5.84
818.727	5.94
819.026	8.98
819.326	3.26
819.625	7.69
819.925	9.05
820.224	3.03
820.524	10.64
820.823	7.28
821.122	6.98
821.421	0.87
821.72	9.14
822.019	7.74
822.318	8.75
822.617	8.69
822.916	8.72
823.215	2.92
823.514	7.16
823.813	7.87
824.111	5.82
824.41	6.87
824.709	7.84
825.007	6.8
825.306	7.77
825.604	6.64
825.902	6.29
826.201	7.31
826.499	5.35
826.797	6.44
827.095	6.34
827.393	7.81
827.691	6.04
827.989	6.43
828.287	6.52
828.585	6.08
828.882	8.3
829.18	7.11
829.478	6.89
829.775	5.11
830.073	5.64
830.37	8.16
830.668	7.02
830.965	7.11
831.263	6.22
831.56	6.21
831.857	5.62
832.154	6.34
832.451	7.89
832.748	9.92
833.045	2.32
833.342	3.71
833.639	5.93
833.936	8.38
834.232	5.5
834.529	11.51
834.826	10.23
835.122	7.47
835.419	8.79
835.715	7.99
836.012	6.78
836.308	7.17
836.604	5.51
836.901	7.62
837.197	7.97
837.493	8.06
837.789	1.45
838.085	11.34
838.381	2.83
838.677	8.96
838.972	7.41
839.268	9.22
839.564	-2.58
839.86	7.61
840.155	3.19
840.451	8.56
840.746	5.31
841.042	9.06
841.337	1.58
841.632	8.75
841.928	8.34
842.223	7.41
842.518	-0.25
842.813	8.55
843.108	13.45
843.403	9.16
843.698	6.7
843.993	9.54
844.287	-0.04
844.582	4.6
844.877	8.12
845.171	10.28
845.466	11.76
845.761	4.6
846.055	8.45
846.349	9.5
846.644	4.64
846.938	2.78
847.232	2.26
847.526	0.96
847.82	10.1
848.114	-5.5
848.408	17.77
848.702	-0.53
848.996	0.5
849.29	-18.16
849.584	11.7
849.877	7.73
850.171	-12.79
850.465	5
850.758	8.07
851.052	2.97
851.345	0.56
851.638	6.53
851.932	4.84
852.225	-2.08
852.518	-0.93
852.811	13.49
853.104	11.56
853.397	8.1
853.69	-5.94
853.983	14.71
854.276	-11.35
854.569	-6.77
854.861	18.07
855.154	-23.06
855.447	11.59
855.739	5.09
856.032	4.01
856.324	4.02
856.616	-10.29
856.909	-10.88
857.201	17.71
857.493	15.32
857.785	5.6
858.077	21.29
858.369	22.8
858.661	14.11
858.953	-11.39
859.245	8.47
859.537	1.6
859.829	-4.56
860.12	10.33
860.412	-1.32
860.703	3.3
860.995	18.99
861.286	10.53
861.578	18.17
861.869	5.18
862.16	21.47
862.452	11.28
862.743	16.88
863.034	-7.27
863.325	-15.6
863.616	-12.74
863.907	11.81
864.198	3.81
864.488	4.6
864.779	21.08
865.07	17.63
865.36	-5.58
865.651	4.46
865.941	8.69
866.232	18.86
866.522	10.58
866.813	0.27
867.103	13.81
867.393	11.2
867.683	-4.05
867.973	4.62
868.263	-1.58
868.553	7
868.843	-13.16
869.133	-4.08
869.423	3.07
869.713	-8.49
870.002	3.74
870.292	12.22
870.582	-0.82
870.871	-14.41
871.161	-4.66
871.45	3.33
871.739	11.85
872.029	18.48
872.318	-3.03
872.607	18.51
872.896	14.57
873.185	-11.53
873.474	-13.5
873.763	5.43
874.052	-8.04
874.341	9.06
874.63	-5.04
874.918	-4.21
875.207	4.15
875.496	1.49
875.784	-7.14
876.073	-0.17
876.361	-26.95
876.649	8.7
876.938	-20.43
877.226	18.65
877.514	-5.94
877.802	6.37
878.09	-19.66
878.378	-4.06
878.666	25.44
878.954	15.4
879.242	10.06
879.53	-5.08
879.817	9.5
880.105	20.63
880.392	-3.67
880.68	28.09
880.967	3.13
881.255	10.82
881.542	-14.63
881.83	8.23
882.117	2.62
882.404	15.84
882.691	-23.54
882.978	28.31
883.265	7.64
883.552	-11.87
883.839	2.11
884.126	17.05
884.413	6.19
884.699	7.38
884.986	5.64
885.273	8.47
885.559	8.47
885.846	8.47
