Data from 0042_chest_Reflection__1__91.txt Node

Date: Fri Nov 04 15:32:36 CDT 2022
User: ToomeyLab
Spectrometer: FLMS14357
Trigger mode: 0
Integration Time (sec): 1.000000E-2
Scans to average: 100
Electric dark correction enabled: true
Nonlinearity correction enabled: false
Boxcar width: 0
XAxis mode: Wavelengths
Number of Pixels in Spectrum: 2048
>>>>>Begin Spectral Data<<<<<
189.047	68.74
189.435	68.74
189.823	68.74
190.211	-109.59
190.599	-36.49
190.987	2.15
191.375	-8.88
191.763	144.55
192.151	-3394.38
192.538	38.27
192.926	184.25
193.314	-5.86
193.702	136.78
194.089	83.7
194.477	35.3
194.864	472.78
195.252	128.3
195.639	24.42
196.027	24.46
196.414	-47.81
196.801	119.01
197.189	-19.37
197.576	118.78
197.963	23.65
198.351	3.02
198.738	18.72
199.125	1.88
199.512	-21.38
199.899	-51.92
200.286	-24.72
200.673	-26.06
201.06	-23.89
201.447	-11.38
201.833	3.98
202.22	-7.48
202.607	45.4
202.994	20.69
203.38	32.98
203.767	7.83
204.154	21.13
204.54	-53.52
204.927	-3.45
205.313	40.08
205.699	28.98
206.086	6.05
206.472	-22.21
206.858	-17.69
207.245	19.03
207.631	18.09
208.017	21.47
208.403	-1.82
208.789	20.76
209.175	-6.32
209.561	-86.84
209.947	-90.37
210.333	-36.26
210.719	-12.51
211.105	-13.99
211.491	2.75
211.876	-8.13
212.262	13.31
212.648	-30.38
213.034	26.6
213.419	18.98
213.805	-8.91
214.19	-61.16
214.576	-24.99
214.961	8.12
215.346	-3.11
215.732	0.87
216.117	-23.44
216.502	1.36
216.888	-32.8
217.273	5.21
217.658	-7.39
218.043	23.29
218.428	5.03
218.813	-0.31
219.198	-5.29
219.583	-35.9
219.968	20.73
220.353	-56.44
220.738	-29.14
221.122	13.29
221.507	7.61
221.892	-11.28
222.276	-6.11
222.661	3.64
223.046	10.75
223.43	1.93
223.815	-6.83
224.199	-3.36
224.583	-4.62
224.968	3.75
225.352	3.49
225.736	-3.43
226.121	-6.57
226.505	3.17
226.889	-1.09
227.273	7.02
227.657	-0.62
228.041	3.63
228.425	6.33
228.809	3.77
229.193	4.77
229.577	3.75
229.961	5.53
230.344	5.53
230.728	4.54
231.112	4.67
231.495	4.74
231.879	5.15
232.263	4.01
232.646	3.23
233.03	3.59
233.413	2.85
233.797	2.63
234.18	4.47
234.563	3.02
234.946	3.05
235.33	6.51
235.713	4.12
236.096	4.4
236.479	3.96
236.862	2.09
237.245	2.79
237.628	3.46
238.011	1.99
238.394	6.2
238.777	4.11
239.16	6.07
239.543	3.22
239.925	4.09
240.308	5.45
240.691	3.92
241.073	4.14
241.456	3.8
241.838	4.01
242.221	4.64
242.603	3.53
242.986	4.29
243.368	4.77
243.75	4.45
244.133	4.54
244.515	4.66
244.897	4.37
245.279	4.48
245.661	4.88
246.043	4.29
246.425	4.24
246.807	4.56
247.189	4.22
247.571	5.02
247.953	4.52
248.335	4.51
248.717	4.53
249.098	4.55
249.48	4.57
249.862	4.53
250.243	4.4
250.625	4.1
251.006	4.51
251.388	4.17
251.769	4.32
252.151	4.41
252.532	4.16
252.913	3.79
253.295	4.78
253.676	4.12
254.057	3.95
254.438	4.34
254.819	4.34
255.2	3.43
255.581	4.82
255.962	4.26
256.343	3.57
256.724	3.6
257.105	3.78
257.486	4.37
257.867	6.19
258.247	4.48
258.628	3.63
259.009	3.67
259.389	4.52
259.77	4.62
260.15	4.1
260.531	4.27
260.911	3.86
261.292	3.99
261.672	4.07
262.052	4.22
262.432	4.36
262.813	3.92
263.193	3.6
263.573	4.04
263.953	4.43
264.333	4.35
264.713	4.23
265.093	4.12
265.473	4.25
265.853	3.41
266.233	3.69
266.612	4.74
266.992	4.54
267.372	3.62
267.752	3.88
268.131	4.28
268.511	4.21
268.89	4.15
269.27	3.97
269.649	4.17
270.029	3.86
270.408	4.08
270.787	4.34
271.167	4.48
271.546	4.18
271.925	4.2
272.304	4.16
272.683	4.2
273.062	4.05
273.441	4.3
273.82	3.7
274.199	4.21
274.578	3.62
274.957	3.95
275.336	3.85
275.715	3.61
276.093	4.05
276.472	4.03
276.851	3.65
277.229	3.92
277.608	3.82
277.986	4.6
278.365	4.19
278.743	3.82
279.122	3.62
279.5	3.98
279.878	3.93
280.257	3.87
280.635	3.62
281.013	4.02
281.391	4.56
281.769	4.16
282.147	3.67
282.525	4.19
282.903	3.74
283.281	4.23
283.659	4.26
284.037	3.77
284.415	3.97
284.792	4.07
285.17	3.4
285.548	4.21
285.925	3.87
286.303	4.3
286.68	4
287.058	3.91
287.435	4.14
287.813	3.74
288.19	3.88
288.567	3.79
288.945	4.14
289.322	3.8
289.699	4.16
290.076	3.86
290.453	3.57
290.83	3.89
291.207	3.91
291.584	3.93
291.961	4.08
292.338	3.87
292.715	4.05
293.092	4.08
293.469	4.23
293.845	3.56
294.222	3.6
294.599	3.26
294.975	3.85
295.352	4.09
295.728	4.33
296.105	3.9
296.481	4.01
296.858	4.07
297.234	4.33
297.61	4.21
297.986	3.9
298.363	3.77
298.739	3.85
299.115	3.93
299.491	3.76
299.867	3.69
300.243	3.85
300.619	4.2
300.995	4.29
301.371	4.28
301.746	3.87
302.122	4.13
302.498	3.91
302.874	4.43
303.249	3.66
303.625	3.57
304	3.91
304.376	3.42
304.751	3.7
305.127	3.11
305.502	3.91
305.878	4.11
306.253	4.25
306.628	3.89
307.003	3.57
307.378	4.22
307.754	3.69
308.129	3.63
308.504	3.68
308.879	3.78
309.254	3.8
309.629	4.38
310.003	4.05
310.378	3.99
310.753	4.88
311.128	3.5
311.502	3.68
311.877	4.05
312.252	3.75
312.626	4.46
313.001	4.07
313.375	4.19
313.75	3.9
314.124	3.96
314.498	4.09
314.873	4.08
315.247	4.02
315.621	3.76
315.995	4.46
316.369	4.24
316.743	4.56
317.117	4.64
317.491	3.89
317.865	3.81
318.239	4.01
318.613	4.09
318.987	4.2
319.361	4.16
319.734	4.25
320.108	4.02
320.482	3.89
320.855	4.5
321.229	3.8
321.602	3.99
321.976	3.94
322.349	4.81
322.723	4.23
323.096	4.25
323.469	4.33
323.843	4.04
324.216	4.51
324.589	4.01
324.962	4.42
325.335	4.42
325.708	3.99
326.081	3.87
326.454	4.3
326.827	4.09
327.2	4.1
327.573	3.9
327.945	4.24
328.318	3.81
328.691	3.98
329.063	4.19
329.436	4.48
329.809	3.86
330.181	3.83
330.553	4.16
330.926	4.52
331.298	4.73
331.671	4.51
332.043	4.02
332.415	4.22
332.787	4.12
333.159	3.91
333.532	3.92
333.904	4.17
334.276	4.12
334.648	4.39
335.02	3.9
335.391	4.6
335.763	4.41
336.135	4.55
336.507	4.27
336.879	4.06
337.25	4.26
337.622	4.22
337.993	3.73
338.365	3.71
338.736	4.33
339.108	4.52
339.479	4.04
339.851	4.06
340.222	3.86
340.593	4.48
340.964	4.16
341.336	4.18
341.707	3.95
342.078	3.79
342.449	4.4
342.82	4.15
343.191	3.93
343.562	4.4
343.933	4.37
344.303	4.38
344.674	4.37
345.045	4.04
345.416	3.84
345.786	4.23
346.157	4.37
346.527	4.31
346.898	4.35
347.268	3.78
347.639	4.26
348.009	4.48
348.38	4.16
348.75	3.73
349.12	3.85
349.49	4.09
349.861	4.11
350.231	4.46
350.601	4.1
350.971	3.94
351.341	4.45
351.711	3.93
352.081	4.32
352.45	4.41
352.82	4.23
353.19	4.17
353.56	4.57
353.929	4.12
354.299	4.59
354.669	4.13
355.038	4.53
355.408	4.11
355.777	4.28
356.147	3.84
356.516	4.15
356.885	4.24
357.254	4.43
357.624	4.76
357.993	4.28
358.362	3.84
358.731	4.2
359.1	4.23
359.469	4.4
359.838	4.19
360.207	4.12
360.576	4.4
360.945	4.51
361.314	4.31
361.682	4.26
362.051	4.41
362.42	4.66
362.788	4.35
363.157	4.27
363.525	4.32
363.894	4.44
364.262	4.52
364.631	4.59
364.999	4.62
365.367	4.16
365.735	4.47
366.104	4.39
366.472	4.58
366.84	3.81
367.208	4.3
367.576	4.21
367.944	4.49
368.312	4.53
368.68	4.19
369.048	4.38
369.416	4.33
369.783	4.11
370.151	4.28
370.519	4.68
370.886	4.38
371.254	4.62
371.621	4.47
371.989	4.6
372.356	4.39
372.724	4.6
373.091	4.3
373.458	4.39
373.826	4.56
374.193	4.32
374.56	4.23
374.927	4.57
375.294	4.37
375.661	4.85
376.028	4.39
376.395	4.64
376.762	4.76
377.129	4.49
377.496	4.74
377.863	4.35
378.229	4.55
378.596	4.5
378.963	4.47
379.329	4.33
379.696	4.44
380.062	4.51
380.429	4.38
380.795	4.71
381.161	4.46
381.528	4.37
381.894	4.12
382.26	4.58
382.626	4.4
382.993	4.78
383.359	4.61
383.725	4.47
384.091	4.58
384.457	4.7
384.823	4.7
385.188	4.89
385.554	4.38
385.92	4.48
386.286	4.75
386.651	4.63
387.017	4.62
387.383	4.78
387.748	4.31
388.114	4.24
388.479	5.11
388.845	4.8
389.21	4.85
389.575	4.87
389.94	4.48
390.306	4.6
390.671	4.84
391.036	4.54
391.401	4.78
391.766	4.61
392.131	4.31
392.496	4.68
392.861	4.66
393.226	4.54
393.591	4.7
393.956	4.75
394.32	4.59
394.685	4.57
395.05	4.66
395.414	4.61
395.779	4.54
396.143	4.41
396.508	4.71
396.872	4.83
397.236	4.76
397.601	4.59
397.965	4.62
398.329	4.65
398.694	4.71
399.058	4.67
399.422	4.64
399.786	4.61
400.15	4.61
400.514	4.88
400.878	4.98
401.242	4.68
401.605	4.73
401.969	4.76
402.333	4.63
402.697	4.86
403.06	4.9
403.424	4.7
403.787	4.78
404.151	4.82
404.514	4.73
404.878	4.79
405.241	4.85
405.604	4.99
405.968	4.52
406.331	4.64
406.694	4.65
407.057	4.78
407.42	4.68
407.783	4.59
408.146	4.71
408.509	4.91
408.872	4.86
409.235	4.63
409.598	4.75
409.961	4.89
410.323	4.48
410.686	4.75
411.049	4.71
411.411	4.7
411.774	4.86
412.136	4.97
412.499	4.91
412.861	4.86
413.223	4.76
413.586	4.77
413.948	4.82
414.31	4.96
414.672	4.91
415.035	4.85
415.397	4.81
415.759	5.06
416.121	4.86
416.483	4.83
416.845	4.93
417.206	4.78
417.568	5.01
417.93	4.97
418.292	4.7
418.653	4.7
419.015	4.75
419.377	4.85
419.738	4.86
420.1	4.94
420.461	4.91
420.822	4.88
421.184	4.93
421.545	4.74
421.906	4.89
422.267	4.81
422.629	4.92
422.99	4.76
423.351	4.7
423.712	4.77
424.073	4.95
424.434	4.79
424.795	4.86
425.155	4.88
425.516	4.88
425.877	4.83
426.238	4.86
426.598	4.88
426.959	4.71
427.32	4.88
427.68	4.91
428.041	4.89
428.401	4.9
428.761	4.98
429.122	4.88
429.482	4.95
429.842	4.68
430.202	5.2
430.563	4.91
430.923	5.16
431.283	4.91
431.643	5.02
432.003	5.16
432.363	4.92
432.722	5.1
433.082	5.23
433.442	5
433.802	4.8
434.161	4.91
434.521	5
434.881	5.18
435.24	4.8
435.6	5.05
435.959	4.9
436.319	5.04
436.678	5.16
437.037	4.98
437.396	5.19
437.756	5.09
438.115	4.84
438.474	5.05
438.833	5.2
439.192	4.99
439.551	5.15
439.91	5.13
440.269	5.12
440.628	5.06
440.987	5.04
441.345	5.02
441.704	5.11
442.063	5.01
442.421	4.99
442.78	5.14
443.138	5.06
443.497	5.02
443.855	4.98
444.214	5.24
444.572	5.04
444.93	5.17
445.288	5.12
445.647	5.17
446.005	5.15
446.363	5.09
446.721	5.06
447.079	5.07
447.437	5.01
447.795	5.02
448.153	5
448.51	5.15
448.868	5.14
449.226	5
449.584	5.08
449.941	5.01
450.299	5.08
450.656	5.15
451.014	5.28
451.371	5.21
451.729	5.19
452.086	5.19
452.443	5.07
452.801	5.31
453.158	5.27
453.515	5.2
453.872	5.25
454.229	5.33
454.586	5.13
454.943	5.33
455.3	5.21
455.657	5.17
456.014	5.21
456.371	5.2
456.727	5.19
457.084	5.39
457.441	5.31
457.797	5.34
458.154	5.15
458.51	5.48
458.867	5.16
459.223	5.43
459.58	5.41
459.936	5.19
460.292	5.28
460.648	5.13
461.005	5.2
461.361	5.25
461.717	5.19
462.073	5.25
462.429	5.37
462.785	5.21
463.141	5.39
463.496	5.39
463.852	5.27
464.208	5.23
464.564	5.26
464.919	5.39
465.275	5.46
465.631	5.4
465.986	5.33
466.342	5.46
466.697	5.36
467.052	5.37
467.408	5.26
467.763	5.43
468.118	5.36
468.473	5.53
468.829	5.34
469.184	5.3
469.539	5.34
469.894	5.37
470.249	5.41
470.603	5.36
470.958	5.35
471.313	5.25
471.668	5.33
472.023	5.28
472.377	5.56
472.732	5.4
473.086	5.43
473.441	5.36
473.795	5.48
474.15	5.55
474.504	5.45
474.859	5.35
475.213	5.49
475.567	5.37
475.921	5.47
476.275	5.59
476.63	5.49
476.984	5.4
477.338	5.46
477.692	5.58
478.045	5.47
478.399	5.37
478.753	5.44
479.107	5.53
479.461	5.62
479.814	5.55
480.168	5.58
480.521	5.38
480.875	5.47
481.228	5.59
481.582	5.58
481.935	5.64
482.289	5.56
482.642	5.43
482.995	5.61
483.348	5.59
483.701	5.47
484.055	5.45
484.408	5.48
484.761	5.45
485.114	5.37
485.466	5.33
485.819	5.29
486.172	5.31
486.525	5.3
486.878	5.28
487.23	5.33
487.583	5.32
487.936	5.43
488.288	5.41
488.641	5.43
488.993	5.39
489.345	5.36
489.698	5.41
490.05	5.4
490.402	5.41
490.754	5.43
491.107	5.47
491.459	5.54
491.811	5.51
492.163	5.65
492.515	5.66
492.866	5.54
493.218	5.5
493.57	5.48
493.922	5.58
494.274	5.5
494.625	5.55
494.977	5.52
495.328	5.61
495.68	5.52
496.031	5.61
496.383	5.61
496.734	5.65
497.086	5.9
497.437	5.74
497.788	5.88
498.139	5.73
498.49	5.72
498.842	5.87
499.193	5.73
499.544	5.7
499.894	5.64
500.245	5.74
500.596	5.77
500.947	5.8
501.298	5.77
501.648	5.72
501.999	5.9
502.35	5.84
502.7	5.9
503.051	5.84
503.401	5.87
503.752	6.03
504.102	5.8
504.452	5.84
504.803	5.8
505.153	5.88
505.503	5.93
505.853	6.06
506.203	5.94
506.553	6.12
506.903	6.05
507.253	5.95
507.603	5.84
507.953	5.93
508.303	6.02
508.652	6.05
509.002	6.12
509.352	6.01
509.701	6.02
510.051	5.91
510.4	6.01
510.75	5.97
511.099	5.98
511.449	6.01
511.798	5.91
512.147	6.08
512.496	5.94
512.846	5.9
513.195	6.08
513.544	5.97
513.893	5.99
514.242	6.05
514.591	6.07
514.939	6.07
515.288	6.07
515.637	6.1
515.986	5.98
516.334	6.14
516.683	6.08
517.032	6.16
517.38	6.28
517.729	6.14
518.077	6.09
518.426	6.23
518.774	6.28
519.122	6.09
519.47	6.21
519.819	6.06
520.167	6.09
520.515	6.12
520.863	6.18
521.211	6.12
521.559	6.22
521.907	6.15
522.255	6.24
522.602	6.35
522.95	6.26
523.298	6.27
523.645	6.35
523.993	6.43
524.341	6.43
524.688	6.35
525.036	6.44
525.383	6.51
525.73	6.45
526.078	6.4
526.425	6.5
526.772	6.36
527.119	6.38
527.466	6.44
527.814	6.35
528.161	6.34
528.508	6.35
528.854	6.37
529.201	6.28
529.548	6.39
529.895	6.36
530.242	6.21
530.588	6.32
530.935	6.27
531.282	6.33
531.628	6.24
531.975	6.33
532.321	6.31
532.667	6.4
533.014	6.44
533.36	6.48
533.706	6.54
534.052	6.53
534.399	6.59
534.745	6.55
535.091	6.5
535.437	6.55
535.783	6.49
536.129	6.6
536.474	6.63
536.82	6.49
537.166	6.63
537.512	6.67
537.857	6.62
538.203	6.59
538.549	6.63
538.894	6.76
539.239	6.73
539.585	6.62
539.93	6.73
540.276	6.8
540.621	6.73
540.966	6.85
541.311	6.75
541.656	6.97
542.001	6.94
542.346	6.86
542.691	6.91
543.036	6.74
543.381	6.83
543.726	6.79
544.071	6.79
544.415	6.82
544.76	6.85
545.105	6.86
545.449	6.93
545.794	6.93
546.138	6.91
546.483	7.03
546.827	7.11
547.171	7.1
547.516	7.15
547.86	7.05
548.204	7.15
548.548	7.05
548.892	7.14
549.236	7.08
549.58	7.15
549.924	7.05
550.268	7.18
550.612	7.21
550.956	7.19
551.3	7.19
551.643	7.28
551.987	7.23
552.33	7.49
552.674	7.41
553.017	7.37
553.361	7.51
553.704	7.27
554.048	7.44
554.391	7.28
554.734	7.66
555.077	7.57
555.42	7.6
555.764	7.78
556.107	7.55
556.45	7.51
556.793	7.63
557.135	7.66
557.478	7.66
557.821	7.73
558.164	7.66
558.507	7.8
558.849	7.72
559.192	7.76
559.534	7.75
559.877	7.92
560.219	7.8
560.562	7.82
560.904	7.82
561.246	7.8
561.589	7.91
561.931	7.62
562.273	7.96
562.615	7.8
562.957	7.96
563.299	8.03
563.641	7.99
563.983	7.78
564.325	7.95
564.667	8.25
565.008	7.99
565.35	8.04
565.692	8.12
566.033	8.19
566.375	8.15
566.716	8.25
567.058	8.23
567.399	8.19
567.741	8.12
568.082	8.33
568.423	8.31
568.764	8.13
569.105	8.43
569.447	8.31
569.788	8.16
570.129	8.26
570.47	8.33
570.811	8.44
571.151	8.43
571.492	8.65
571.833	8.39
572.174	8.58
572.514	8.4
572.855	8.22
573.195	8.72
573.536	8.56
573.876	8.46
574.217	8.7
574.557	8.67
574.898	8.73
575.238	8.63
575.578	8.81
575.918	8.74
576.258	8.62
576.598	8.8
576.938	8.93
577.278	8.72
577.618	8.74
577.958	8.72
578.298	8.94
578.638	8.92
578.977	9.09
579.317	9.04
579.657	9.01
579.996	9.18
580.336	9.01
580.675	8.79
581.014	9.09
581.354	9.13
581.693	9.31
582.032	9.06
582.372	9.3
582.711	9.18
583.05	9.42
583.389	9.15
583.728	9.2
584.067	9.55
584.406	9.17
584.745	9.4
585.083	9.34
585.422	9.38
585.761	9.52
586.1	9.37
586.438	9.2
586.777	9.42
587.115	9.57
587.454	9.77
587.792	9.8
588.13	9.58
588.469	9.7
588.807	10.12
589.145	9.53
589.483	9.43
589.821	9.92
590.159	9.79
590.497	10.03
590.835	9.91
591.173	10
591.511	9.93
591.849	10.15
592.187	9.74
592.524	10.1
592.862	9.99
593.2	10.08
593.537	9.98
593.875	10.24
594.212	10.16
594.55	10.13
594.887	10.2
595.224	10.3
595.561	10.15
595.899	10.29
596.236	10.32
596.573	10.45
596.91	10.38
597.247	10.23
597.584	10.13
597.921	10.68
598.258	10.53
598.594	10.11
598.931	10.36
599.268	10.47
599.604	10.35
599.941	10.58
600.277	10.44
600.614	10.6
600.95	10.5
601.287	10.4
601.623	10.72
601.959	10.86
602.296	10.91
602.632	10.79
602.968	10.83
603.304	10.98
603.64	10.89
603.976	10.81
604.312	10.85
604.648	10.94
604.984	10.84
605.319	10.95
605.655	10.78
605.991	11.07
606.326	11
606.662	11.04
606.998	10.94
607.333	10.85
607.668	11.24
608.004	11.09
608.339	10.93
608.674	11.27
609.01	11.41
609.345	11.45
609.68	11.35
610.015	11.28
610.35	11.4
610.685	11.51
611.02	11.6
611.355	11.43
611.689	11.52
612.024	11.53
612.359	11.43
612.694	11.54
613.028	11.72
613.363	11.89
613.697	11.74
614.032	11.67
614.366	11.86
614.7	11.62
615.035	11.89
615.369	11.68
615.703	12.26
616.037	11.89
616.371	12.02
616.705	11.88
617.039	12.07
617.373	12.06
617.707	12.36
618.041	12.37
618.375	12.11
618.709	12.16
619.042	12.3
619.376	11.89
619.71	12.5
620.043	12.43
620.377	12.57
620.71	12.72
621.043	12.52
621.377	12.47
621.71	12.71
622.043	12.73
622.376	12.83
622.709	12.27
623.043	12.33
623.376	12.98
623.709	12.63
624.041	12.6
624.374	12.8
624.707	12.55
625.04	12.83
625.373	12.9
625.705	12.79
626.038	13.05
626.37	13.1
626.703	12.94
627.035	12.84
627.368	12.92
627.7	13.25
628.032	12.87
628.365	13.49
628.697	13.12
629.029	13.24
629.361	13.07
629.693	13.3
630.025	13.34
630.357	13.27
630.689	13.51
631.021	13.36
631.353	13.22
631.684	13.49
632.016	13.32
632.348	13.56
632.679	13.35
633.011	13.39
633.342	13.66
633.674	13.41
634.005	13.64
634.336	13.59
634.668	13.95
634.999	14.12
635.33	13.58
635.661	13.99
635.992	13.89
636.323	13.82
636.654	13.64
636.985	13.91
637.316	13.9
637.647	13.7
637.977	14.2
638.308	14.47
638.639	14.19
638.969	14.12
639.3	14.46
639.63	13.99
639.961	13.97
640.291	14.45
640.622	14.33
640.952	14.5
641.282	14.25
641.612	14.79
641.943	14.22
642.273	14.13
642.603	14.82
642.933	14.15
643.263	14.22
643.592	14.79
643.922	14.79
644.252	14.66
644.582	14.98
644.911	14.63
645.241	14.4
645.571	14.62
645.9	14.92
646.23	14.52
646.559	15.29
646.888	14.84
647.218	15.16
647.547	14.99
647.876	15.25
648.205	14.5
648.534	15.41
648.863	15.68
649.192	15.44
649.521	15.03
649.85	15.59
650.179	15.39
650.508	15.44
650.837	15.22
651.165	15.62
651.494	15.29
651.822	15.54
652.151	15.72
652.479	15.05
652.808	15.28
653.136	15.5
653.465	15.67
653.793	15.99
654.121	15.5
654.449	15.54
654.777	15.49
655.105	15.57
655.433	15.7
655.761	15.7
656.089	15.39
656.417	15.86
656.745	15.85
657.073	16.16
657.4	16.12
657.728	16.28
658.056	15.44
658.383	16.4
658.711	15.83
659.038	16.58
659.365	16.81
659.693	16.26
660.02	16.4
660.347	16.28
660.674	16.67
661.001	16.7
661.329	16.29
661.656	16.67
661.982	16.28
662.309	16.22
662.636	16.56
662.963	16.15
663.29	16.86
663.616	16.9
663.943	16.86
664.27	16.97
664.596	17.03
664.923	16.46
665.249	16.87
665.576	16.75
665.902	16.19
666.228	16.53
666.554	18
666.881	16.62
667.207	17.32
667.533	17.1
667.859	17.05
668.185	16.81
668.511	16.89
668.837	17.23
669.162	17.29
669.488	16.94
669.814	17.21
670.139	17.13
670.465	17.31
670.791	17.23
671.116	17.52
671.442	17.38
671.767	17.88
672.092	17.71
672.418	17.66
672.743	18.29
673.068	17.66
673.393	17.55
673.718	17.98
674.043	18.03
674.368	17.54
674.693	18.27
675.018	17.8
675.343	17.96
675.667	18.18
675.992	17.97
676.317	18.35
676.641	18.33
676.966	18.17
677.29	18.05
677.615	18.43
677.939	18.27
678.264	18
678.588	18.06
678.912	18.28
679.236	17.81
679.56	18.26
679.885	18.65
680.209	18.77
680.532	19.09
680.856	18.35
681.18	18.56
681.504	19.13
681.828	18.28
682.152	19.17
682.475	18.93
682.799	19.2
683.122	19.2
683.446	18.94
683.769	18.46
684.093	19.21
684.416	18.08
684.739	18.91
685.062	19.21
685.386	18.75
685.709	20.07
686.032	19.58
686.355	19.28
686.678	19.51
687.001	19.52
687.324	19.07
687.646	19.72
687.969	19.47
688.292	19.4
688.614	19.76
688.937	19.58
689.26	19.18
689.582	19.79
689.904	20.36
690.227	20.03
690.549	19.46
690.871	19.56
691.194	19.49
691.516	19.53
691.838	19.87
692.16	20.57
692.482	19.57
692.804	19.86
693.126	19.52
693.448	19.4
693.769	20.4
694.091	20.48
694.413	19.82
694.735	19.56
695.056	19.41
695.378	20.29
695.699	21.23
696.021	20.59
696.342	20.16
696.663	20.09
696.984	19.74
697.306	19.94
697.627	19.9
697.948	19.97
698.269	20.6
698.59	21.08
698.911	20.56
699.232	20.52
699.553	21.51
699.873	20.38
700.194	20.29
700.515	20.56
700.835	20.98
701.156	21.07
701.477	20.75
701.797	21.25
702.117	20.57
702.438	21.07
702.758	21.14
703.078	20.23
703.398	20.71
703.719	20.85
704.039	21
704.359	21.49
704.679	21.02
704.999	21.08
705.319	20.62
705.638	21.52
705.958	21.62
706.278	21.23
706.597	21
706.917	21.35
707.237	20.87
707.556	22.48
707.876	20.62
708.195	20.71
708.514	21.22
708.834	21.63
709.153	21.87
709.472	22.7
709.791	20.84
710.11	21.08
710.429	22.5
710.748	22.29
711.067	22.13
711.386	21.73
711.705	21.19
712.023	21.75
712.342	21.51
712.661	21.92
712.979	21.63
713.298	22.78
713.616	21.98
713.935	22.4
714.253	21.92
714.572	22.02
714.89	23.04
715.208	23.38
715.526	23.31
715.844	22.54
716.162	23.22
716.48	22.43
716.798	23.3
717.116	23.88
717.434	22.43
717.752	22.78
718.069	23.13
718.387	22.38
718.705	23
719.022	23.69
719.34	23.59
719.657	23.44
719.975	23.52
720.292	22.79
720.609	23
720.927	22.69
721.244	23.89
721.561	23.5
721.878	22.3
722.195	24.11
722.512	24.41
722.829	24.13
723.146	22.26
723.463	23.52
723.779	24.57
724.096	24.59
724.413	24.88
724.729	23.06
725.046	23.65
725.362	23.46
725.679	24.1
725.995	23.81
726.311	23.79
726.628	22.62
726.944	23.36
727.26	23.62
727.576	23.34
727.892	24.55
728.208	24.93
728.524	22.33
728.84	22.63
729.156	25.12
729.472	25.05
729.787	24.5
730.103	23.62
730.419	24.64
730.734	23.91
731.05	25.22
731.365	24.27
731.681	23.88
731.996	25.12
732.311	25.89
732.626	25.05
732.942	24.02
733.257	24.6
733.572	24.75
733.887	25.92
734.202	24.72
734.517	23.92
734.832	25.36
735.146	24.74
735.461	25.45
735.776	24.11
736.091	24.99
736.405	23.87
736.72	23.84
737.034	24.36
737.349	24.8
737.663	24.89
737.977	25.41
738.292	25.64
738.606	26.5
738.92	25.24
739.234	25.26
739.548	26.18
739.862	25.89
740.176	26.37
740.49	24.67
740.804	24.55
741.117	25.77
741.431	25.97
741.745	24.67
742.058	25.44
742.372	25.16
742.685	23.81
742.999	25.79
743.312	25.83
743.626	25.49
743.939	26.71
744.252	25.43
744.565	24.89
744.878	25.84
745.191	27.19
745.505	25.92
745.817	24.67
746.13	25.53
746.443	25.48
746.756	25.96
747.069	25.7
747.381	26.43
747.694	26.91
748.007	27.21
748.319	26.34
748.632	25.75
748.944	26.66
749.256	25.13
749.569	26.44
749.881	24.51
750.193	27.54
750.505	26.91
750.817	27.49
751.129	26.82
751.441	25.22
751.753	26.22
752.065	26.61
752.377	26.69
752.689	27.53
753	25.73
753.312	27.62
753.624	27.07
753.935	27.71
754.247	27.67
754.558	26.44
754.869	25.97
755.181	27.28
755.492	28.64
755.803	27.05
756.114	29.67
756.425	24.47
756.736	28.38
757.047	27.84
757.358	26.36
757.669	27.67
757.98	26.91
758.291	27.26
758.601	27.1
758.912	27.8
759.223	27.91
759.533	27.9
759.844	25.47
760.154	27.93
760.464	27.75
760.775	29.9
761.085	26.21
761.395	27.24
761.705	27.15
762.016	29.55
762.326	28.99
762.636	29.63
762.945	28.65
763.255	28.48
763.565	29.64
763.875	28.85
764.185	28.45
764.494	29.55
764.804	30.12
765.113	30.37
765.423	28.08
765.732	28.84
766.042	29.39
766.351	29.74
766.66	29.57
766.97	28.14
767.279	28.78
767.588	27.74
767.897	27.44
768.206	29.04
768.515	29.04
768.824	28.08
769.133	27.24
769.441	27.88
769.75	29.17
770.059	28.19
770.367	26.76
770.676	29.85
770.984	30.01
771.293	31.16
771.601	27.59
771.91	30.25
772.218	28.94
772.526	28.1
772.834	29.57
773.142	28.19
773.45	27.29
773.758	29.71
774.066	29.21
774.374	32.24
774.682	25.9
774.99	28.72
775.298	30.5
775.605	27.47
775.913	29.52
776.22	28.34
776.528	31.43
776.835	31.98
777.143	28.25
777.45	28.53
777.757	27.07
778.065	28.62
778.372	29.07
778.679	29.08
778.986	26.28
779.293	29.95
779.6	30.73
779.907	30.62
780.214	30.17
780.52	30.67
780.827	34.22
781.134	31.18
781.44	28.2
781.747	28.85
782.053	29.48
782.36	29.07
782.666	27.89
782.973	30.55
783.279	30.12
783.585	31.64
783.891	28.93
784.197	28.54
784.503	28.5
784.809	31.05
785.115	27.06
785.421	28.54
785.727	30.16
786.033	27.23
786.339	30.91
786.644	27.83
786.95	29.28
787.255	30.92
787.561	29.22
787.866	30.61
788.172	30.93
788.477	35.03
788.782	31.56
789.088	27.97
789.393	29.52
789.698	30.73
790.003	30.94
790.308	30.38
790.613	28.36
790.918	29.5
791.223	31.46
791.527	31.33
791.832	31.94
792.137	29.48
792.441	30.33
792.746	32.57
793.05	29.84
793.355	31.49
793.659	28.6
793.963	26.8
794.268	28.15
794.572	34.77
794.876	32.58
795.18	32.08
795.484	26.4
795.788	32.4
796.092	28.92
796.396	32.06
796.7	31.97
797.004	34.79
797.307	30.13
797.611	32.59
797.915	32.12
798.218	31.84
798.522	32.19
798.825	30.97
799.128	29.27
799.432	32.42
799.735	35.22
800.038	30.34
800.341	28.63
800.644	28.68
800.947	29.73
801.25	33.95
801.553	32.37
801.856	34.87
802.159	31.61
802.462	32.05
802.764	32.58
803.067	28.62
803.37	26.73
803.672	31.31
803.975	33.49
804.277	33.34
804.579	31.45
804.882	30.09
805.184	29.65
805.486	34.13
805.788	36.09
806.09	28.62
806.392	31.38
806.694	24.25
806.996	31.43
807.298	28.44
807.6	31.99
807.902	33.98
808.203	28.03
808.505	38.68
808.807	32.05
809.108	32.68
809.409	36.55
809.711	31.3
810.012	35.5
810.313	30.86
810.615	30.66
810.916	31.11
811.217	34.32
811.518	34.67
811.819	33.03
812.12	30.84
812.421	41.72
812.722	34.16
813.023	30.79
813.323	35.38
813.624	31.27
813.925	30.55
814.225	35.28
814.526	36.14
814.826	24.23
815.126	28.06
815.427	31.92
815.727	27.89
816.027	29.52
816.327	34.17
816.627	33.54
816.927	32.65
817.227	37.62
817.527	34.84
817.827	33.85
818.127	34.44
818.427	31.83
818.727	35.55
819.026	34.31
819.326	26.95
819.625	25.98
819.925	27.71
820.224	32.89
820.524	34.5
820.823	30.87
821.122	32.73
821.421	36.74
821.72	36.05
822.019	35.95
822.318	31.18
822.617	30.72
822.916	35.94
823.215	34.57
823.514	34.9
823.813	34.36
824.111	36.67
824.41	33.75
824.709	37.03
825.007	38.24
825.306	36.71
825.604	36.51
825.902	35.62
826.201	36.55
826.499	36.78
826.797	34.85
827.095	36.73
827.393	35.3
827.691	36.72
827.989	35.74
828.287	38.04
828.585	36.17
828.882	33.74
829.18	35.78
829.478	34.97
829.775	36.69
830.073	35.93
830.37	35.48
830.668	36.03
830.965	35.17
831.263	36.33
831.56	35.76
831.857	34.45
832.154	37.6
832.451	34.31
832.748	35.38
833.045	40.98
833.342	32.89
833.639	34.84
833.936	33.83
834.232	35.15
834.529	38.56
834.826	28.87
835.122	36.91
835.419	36.84
835.715	27.25
836.012	37.24
836.308	34.3
836.604	37.36
836.901	35.74
837.197	34.77
837.493	34.99
837.789	35.29
838.085	36.06
838.381	37.73
838.677	38.07
838.972	37.19
839.268	31.69
839.564	33.77
839.86	31.81
840.155	36.99
840.451	37.77
840.746	36.04
841.042	33.35
841.337	32.82
841.632	32.02
841.928	32.59
842.223	25.05
842.518	27.07
842.813	30.72
843.108	30.27
843.403	38.21
843.698	26.89
843.993	29.11
844.287	37.47
844.582	33.4
844.877	35.67
845.171	30.63
845.466	24.9
845.761	32.46
846.055	27.71
846.349	23.72
846.644	40.17
846.938	32.83
847.232	8.54
847.526	33.52
847.82	26.71
848.114	39.04
848.408	24.72
848.702	32.38
848.996	37.74
849.29	38.5
849.584	43.97
849.877	19.46
850.171	34.15
850.465	24.13
850.758	31.28
851.052	35.4
851.345	24.03
851.638	37.47
851.932	38.14
852.225	36.7
852.518	18.76
852.811	56.76
853.104	43.99
853.397	25.06
853.69	34.19
853.983	30.83
854.276	39.69
854.569	34.24
854.861	29.49
855.154	10.99
855.447	7.98
855.739	19.57
856.032	38.31
856.324	35.67
856.616	46.17
856.909	31.05
857.201	25.52
857.493	43.54
857.785	33.94
858.077	17.97
858.369	56.32
858.661	31.75
858.953	55.74
859.245	17.7
859.537	31.11
859.829	54.82
860.12	29.85
860.412	44.52
860.703	-13.48
860.995	14.84
861.286	32.07
861.578	33.33
861.869	35.31
862.16	37.31
862.452	24.72
862.743	47.32
863.034	37.52
863.325	22.77
863.616	35.59
863.907	30.7
864.198	14.7
864.488	13.23
864.779	41.71
865.07	30.72
865.36	7.78
865.651	29.28
865.941	20.53
866.232	19.11
866.522	33.95
866.813	31.11
867.103	48.31
867.393	31.8
867.683	31.2
867.973	59.08
868.263	23.86
868.553	21.06
868.843	29.54
869.133	32.05
869.423	36.38
869.713	35.97
870.002	39.88
870.292	-1.81
870.582	30.6
870.871	26.27
871.161	32.16
871.45	27.4
871.739	37.25
872.029	22.94
872.318	30.7
872.607	22.45
872.896	42.43
873.185	35.59
873.474	52.63
873.763	22.3
874.052	28.34
874.341	44.74
874.63	29.91
874.918	35.46
875.207	40.37
875.496	29.96
875.784	8.26
876.073	41.48
876.361	39.27
876.649	12
876.938	24.62
877.226	43.22
877.514	47.03
877.802	43.64
878.09	-1.35
878.378	32.66
878.666	28.9
878.954	36.67
879.242	57.96
879.53	45.91
879.817	30.37
880.105	18.03
880.392	51.94
880.68	26.47
880.967	39.68
881.255	34.37
881.542	23.1
881.83	28.75
882.117	11.14
882.404	33.81
882.691	4.06
882.978	48.22
883.265	49.8
883.552	32.27
883.839	40.06
884.126	25.09
884.413	47.28
884.699	42.23
884.986	45.1
885.273	40.52
885.559	40.52
885.846	40.52
