Data from 0042_crown_Reflection__4__99.txt Node

Date: Fri Nov 04 15:35:58 CDT 2022
User: ToomeyLab
Spectrometer: FLMS14357
Trigger mode: 0
Integration Time (sec): 1.000000E-2
Scans to average: 100
Electric dark correction enabled: true
Nonlinearity correction enabled: false
Boxcar width: 0
XAxis mode: Wavelengths
Number of Pixels in Spectrum: 2048
>>>>>Begin Spectral Data<<<<<
189.047	-79.03
189.435	-79.03
189.823	-79.03
190.211	-183.8
190.599	107.99
190.987	-72.92
191.375	-299.36
191.763	152.4
192.151	-4297.75
192.538	-60.96
192.926	130.32
193.314	33.47
193.702	94.83
194.089	85.58
194.477	-169.5
194.864	220.87
195.252	127.05
195.639	277.41
196.027	-30.75
196.414	-33.98
196.801	129.83
197.189	-90.51
197.576	49.92
197.963	59.13
198.351	-19.67
198.738	14.75
199.125	-5.47
199.512	-22.06
199.899	-18.51
200.286	23.49
200.673	62.27
201.06	7.45
201.447	-68.26
201.833	23.36
202.22	10.07
202.607	26.49
202.994	29.76
203.38	13.98
203.767	-14.65
204.154	26.97
204.54	-29.92
204.927	29.31
205.313	32.1
205.699	17.07
206.086	6.52
206.472	-14.21
206.858	-3.66
207.245	23.63
207.631	22.3
208.017	21.93
208.403	9.73
208.789	28.03
209.175	9.98
209.561	-89.87
209.947	-72.51
210.333	18.84
210.719	10.64
211.105	-87.2
211.491	17.56
211.876	55.37
212.262	3.07
212.648	-12.33
213.034	28.54
213.419	-1.18
213.805	0.63
214.19	-22.19
214.576	-9.87
214.961	23.81
215.346	10.67
215.732	-2.66
216.117	4.34
216.502	9.29
216.888	-14.99
217.273	18.34
217.658	-23.94
218.043	-2.35
218.428	47.25
218.813	13.31
219.198	-13.82
219.583	-40.3
219.968	19.72
220.353	-1.99
220.738	-19.12
221.122	-18.7
221.507	9
221.892	-13.83
222.276	-13.2
222.661	1.33
223.046	4.37
223.43	-4.59
223.815	-8.05
224.199	6.87
224.583	5.67
224.968	4.81
225.352	6.53
225.736	-6.53
226.121	-7.76
226.505	10.06
226.889	5.07
227.273	4.67
227.657	2.09
228.041	2.95
228.425	4.12
228.809	5.86
229.193	5.13
229.577	-0.34
229.961	3.43
230.344	3.32
230.728	3.41
231.112	3.26
231.495	3.62
231.879	4.01
232.263	3.19
232.646	3.36
233.03	2.14
233.413	1.76
233.797	3.06
234.18	2.48
234.563	4.47
234.946	3.08
235.33	4.45
235.713	3.65
236.096	3.84
236.479	2.92
236.862	2.37
237.245	3.64
237.628	2.65
238.011	1.48
238.394	3.81
238.777	3.75
239.16	3.95
239.543	4.65
239.925	4.04
240.308	5.67
240.691	3.08
241.073	3.49
241.456	3.34
241.838	2.82
242.221	3.21
242.603	2.68
242.986	3.18
243.368	3.66
243.75	3.44
244.133	3.35
244.515	3.22
244.897	3.13
245.279	2.78
245.661	3.18
246.043	3.93
246.425	2.53
246.807	3.99
247.189	3.46
247.571	3.23
247.953	2.83
248.335	2.85
248.717	3.08
249.098	2.93
249.48	3.13
249.862	3.25
250.243	2.97
250.625	2.66
251.006	2.94
251.388	3.33
251.769	3.66
252.151	4.1
252.532	2.95
252.913	2.41
253.295	3.31
253.676	3.06
254.057	2.92
254.438	3.13
254.819	2.97
255.2	2.18
255.581	2.81
255.962	3.27
256.343	3.2
256.724	2.91
257.105	2.9
257.486	4.07
257.867	4.35
258.247	2.98
258.628	1.78
259.009	2.04
259.389	2.85
259.77	3.56
260.15	3.16
260.531	3.07
260.911	2.76
261.292	2.89
261.672	2.91
262.052	2.81
262.432	3.01
262.813	2.88
263.193	2.04
263.573	3.26
263.953	2.82
264.333	3.05
264.713	3.32
265.093	3.3
265.473	3.03
265.853	2
266.233	3.82
266.612	3.11
266.992	3.7
267.372	1.86
267.752	2.5
268.131	2.5
268.511	3.36
268.89	3.05
269.27	2.83
269.649	2.65
270.029	2.31
270.408	2.52
270.787	2.82
271.167	2.89
271.546	3.41
271.925	2.79
272.304	2.91
272.683	2.55
273.062	2.77
273.441	2.88
273.82	2.74
274.199	3.01
274.578	2.34
274.957	2.54
275.336	2.52
275.715	2.65
276.093	2.63
276.472	2.52
276.851	2.87
277.229	2.91
277.608	2.42
277.986	2.84
278.365	3.25
278.743	2.51
279.122	2.61
279.5	2.75
279.878	2.92
280.257	2.84
280.635	2.1
281.013	2.29
281.391	3.14
281.769	2.89
282.147	2.25
282.525	2.75
282.903	2.93
283.281	2.73
283.659	2.6
284.037	2.43
284.415	2.19
284.792	2.47
285.17	2.35
285.548	3.16
285.925	3.03
286.303	2.94
286.68	2.98
287.058	2.51
287.435	2.35
287.813	2.22
288.19	2.62
288.567	2.53
288.945	2.76
289.322	2.48
289.699	2.57
290.076	2.6
290.453	2.53
290.83	2.47
291.207	2.81
291.584	2.7
291.961	2.64
292.338	2.85
292.715	2.63
293.092	2.53
293.469	2.77
293.845	2.55
294.222	2.03
294.599	2.42
294.975	2.01
295.352	2.7
295.728	2.79
296.105	2.56
296.481	2.51
296.858	2.36
297.234	3.01
297.61	2.75
297.986	2.41
298.363	2.43
298.739	2.39
299.115	2.83
299.491	2.61
299.867	2.52
300.243	2.47
300.619	3.05
300.995	2.44
301.371	2.75
301.746	2.49
302.122	2.52
302.498	2.22
302.874	3
303.249	2.29
303.625	2.26
304	2.43
304.376	2.44
304.751	2.73
305.127	2.3
305.502	2.54
305.878	2.47
306.253	2.59
306.628	2.4
307.003	2.35
307.378	2.44
307.754	2.38
308.129	1.85
308.504	2.45
308.879	2.86
309.254	2.92
309.629	2.55
310.003	2.64
310.378	2.47
310.753	3.14
311.128	2.06
311.502	2.29
311.877	2.57
312.252	2.61
312.626	2.32
313.001	2.62
313.375	2.6
313.75	2.33
314.124	2.39
314.498	2.59
314.873	2.63
315.247	2.82
315.621	2.56
315.995	2.73
316.369	2.38
316.743	2.91
317.117	2.52
317.491	3.03
317.865	1.99
318.239	2.74
318.613	3.04
318.987	2.72
319.361	2.77
319.734	2.94
320.108	2.48
320.482	2
320.855	2.4
321.229	2.92
321.602	2.73
321.976	2.9
322.349	2.86
322.723	2.49
323.096	2.28
323.469	2.12
323.843	2.14
324.216	2.38
324.589	2.69
324.962	2.9
325.335	2.62
325.708	2.37
326.081	2.38
326.454	2.3
326.827	2.49
327.2	2.95
327.573	2.34
327.945	2.73
328.318	2.38
328.691	2.38
329.063	2.59
329.436	2.18
329.809	2.3
330.181	2.33
330.553	2.35
330.926	2.89
331.298	2.88
331.671	2.52
332.043	2.68
332.415	2.37
332.787	2.34
333.159	2.12
333.532	1.99
333.904	2.83
334.276	2.45
334.648	2.85
335.02	2.2
335.391	2.78
335.763	2
336.135	2.53
336.507	2.76
336.879	1.99
337.25	2.52
337.622	2.65
337.993	3.03
338.365	2.68
338.736	2.73
339.108	2.81
339.479	2.98
339.851	2.57
340.222	2.54
340.593	2.62
340.964	2.56
341.336	2.46
341.707	2.63
342.078	2.51
342.449	2.53
342.82	2.8
343.191	2.7
343.562	2.7
343.933	2.88
344.303	2.5
344.674	2.8
345.045	2.13
345.416	1.89
345.786	2.41
346.157	2.58
346.527	2.5
346.898	2.88
347.268	2.44
347.639	2.72
348.009	2.7
348.38	2.44
348.75	2.3
349.12	1.99
349.49	2.4
349.861	2.34
350.231	2.85
350.601	2.39
350.971	2.21
351.341	2.72
351.711	2.59
352.081	2.23
352.45	2.48
352.82	2.88
353.19	2.41
353.56	2.61
353.929	2.4
354.299	3.03
354.669	2.61
355.038	3.06
355.408	2.61
355.777	2.66
356.147	2.46
356.516	2.39
356.885	2.89
357.254	2.95
357.624	2.71
357.993	2.41
358.362	2.61
358.731	2.87
359.1	2.84
359.469	2.64
359.838	2.73
360.207	2.29
360.576	2.75
360.945	3.08
361.314	2.68
361.682	2.69
362.051	2.82
362.42	2.55
362.788	2.57
363.157	2.49
363.525	2.67
363.894	2.42
364.262	2.73
364.631	2.88
364.999	2.52
365.367	2.58
365.735	2.48
366.104	2.53
366.472	2.96
366.84	2.21
367.208	2.84
367.576	2.46
367.944	2.75
368.312	2.79
368.68	2.62
369.048	2.65
369.416	2.73
369.783	2.23
370.151	2.5
370.519	3.29
370.886	2.56
371.254	2.89
371.621	2.8
371.989	2.56
372.356	2.63
372.724	2.68
373.091	2.67
373.458	2.85
373.826	2.89
374.193	2.51
374.56	2.4
374.927	2.97
375.294	2.53
375.661	2.88
376.028	2.61
376.395	2.59
376.762	2.63
377.129	2.79
377.496	2.8
377.863	2.72
378.229	2.65
378.596	2.47
378.963	2.78
379.329	2.39
379.696	2.68
380.062	3.16
380.429	2.89
380.795	2.55
381.161	2.61
381.528	2.84
381.894	2.44
382.26	2.69
382.626	2.55
382.993	2.85
383.359	2.99
383.725	2.73
384.091	2.86
384.457	2.76
384.823	3.02
385.188	2.86
385.554	2.66
385.92	2.48
386.286	2.92
386.651	2.81
387.017	2.9
387.383	2.75
387.748	2.7
388.114	2.44
388.479	3.17
388.845	2.8
389.21	2.87
389.575	2.96
389.94	2.88
390.306	2.69
390.671	2.69
391.036	2.68
391.401	2.92
391.766	2.73
392.131	2.78
392.496	2.72
392.861	3.02
393.226	2.67
393.591	2.85
393.956	3.06
394.32	2.73
394.685	2.89
395.05	3.12
395.414	2.85
395.779	2.82
396.143	2.66
396.508	2.91
396.872	2.88
397.236	2.88
397.601	2.66
397.965	2.89
398.329	2.92
398.694	3.12
399.058	2.98
399.422	2.92
399.786	2.87
400.15	2.77
400.514	2.88
400.878	2.84
401.242	3
401.605	2.74
401.969	3.07
402.333	2.87
402.697	2.85
403.06	3.13
403.424	2.92
403.787	2.98
404.151	2.83
404.514	3.07
404.878	2.77
405.241	3.03
405.604	2.87
405.968	2.71
406.331	2.83
406.694	2.62
407.057	2.83
407.42	2.8
407.783	2.62
408.146	2.88
408.509	2.72
408.872	3.03
409.235	2.86
409.598	2.85
409.961	3.09
410.323	3
410.686	3.09
411.049	3
411.411	2.98
411.774	2.92
412.136	2.94
412.499	3.14
412.861	2.96
413.223	2.83
413.586	3.02
413.948	3.07
414.31	3.04
414.672	2.93
415.035	2.94
415.397	2.96
415.759	3.2
416.121	2.8
416.483	2.99
416.845	3.1
417.206	2.83
417.568	3.07
417.93	2.98
418.292	2.83
418.653	3.05
419.015	2.84
419.377	2.98
419.738	2.87
420.1	2.97
420.461	3.03
420.822	2.89
421.184	2.89
421.545	2.67
421.906	2.97
422.267	2.82
422.629	2.89
422.99	2.85
423.351	2.75
423.712	2.8
424.073	3.04
424.434	2.86
424.795	3.02
425.155	2.98
425.516	2.93
425.877	2.87
426.238	2.85
426.598	2.92
426.959	2.87
427.32	2.85
427.68	2.93
428.041	2.82
428.401	2.9
428.761	2.94
429.122	2.8
429.482	2.88
429.842	2.82
430.202	3.02
430.563	3.22
430.923	3.01
431.283	2.85
431.643	2.96
432.003	3.18
432.363	2.99
432.722	3.08
433.082	3.1
433.442	3.11
433.802	3
434.161	3.03
434.521	2.87
434.881	2.94
435.24	2.83
435.6	2.97
435.959	2.99
436.319	2.89
436.678	3.02
437.037	3.06
437.396	3.07
437.756	3.16
438.115	2.83
438.474	2.98
438.833	3.1
439.192	2.97
439.551	3.02
439.91	3.06
440.269	3.05
440.628	3.04
440.987	3
441.345	2.89
441.704	3.03
442.063	2.91
442.421	3.03
442.78	2.99
443.138	2.88
443.497	3.03
443.855	2.92
444.214	3.12
444.572	2.95
444.93	2.94
445.288	3.03
445.647	2.91
446.005	2.97
446.363	3.04
446.721	2.98
447.079	3.01
447.437	2.93
447.795	2.9
448.153	2.97
448.51	2.99
448.868	2.98
449.226	2.95
449.584	2.96
449.941	2.88
450.299	2.97
450.656	2.99
451.014	3.14
451.371	3.11
451.729	3.2
452.086	3.04
452.443	3.12
452.801	3.03
453.158	3.02
453.515	3.11
453.872	2.91
454.229	3.06
454.586	3.04
454.943	3.19
455.3	3.09
455.657	2.82
456.014	2.97
456.371	3.1
456.727	3.1
457.084	3.12
457.441	2.87
457.797	3.06
458.154	3.15
458.51	3.21
458.867	3.05
459.223	3.18
459.58	3.21
459.936	2.98
460.292	3.19
460.648	3.08
461.005	2.99
461.361	2.96
461.717	2.95
462.073	2.98
462.429	3.09
462.785	2.97
463.141	3.12
463.496	3.01
463.852	3.2
464.208	3.09
464.564	2.99
464.919	3.29
465.275	3.24
465.631	3.24
465.986	3.19
466.342	3.03
466.697	3.18
467.052	3.22
467.408	3.09
467.763	3.04
468.118	3.28
468.473	3.11
468.829	2.87
469.184	2.96
469.539	2.99
469.894	3.16
470.249	3.22
470.603	3.21
470.958	3.05
471.313	3.1
471.668	3.09
472.023	2.97
472.377	3.2
472.732	2.96
473.086	3.17
473.441	3.15
473.795	3.16
474.15	3.25
474.504	3.16
474.859	3.01
475.213	3.21
475.567	3.07
475.921	2.99
476.275	3.19
476.63	3.18
476.984	3.02
477.338	3.14
477.692	3.18
478.045	3.17
478.399	3.08
478.753	3.18
479.107	3.12
479.461	3.32
479.814	3.17
480.168	3.23
480.521	3.09
480.875	3.12
481.228	3.2
481.582	3.21
481.935	3.21
482.289	3.14
482.642	3.19
482.995	3.05
483.348	3.14
483.701	3.22
484.055	3.02
484.408	3.1
484.761	3.01
485.114	2.92
485.466	2.91
485.819	2.87
486.172	2.86
486.525	2.93
486.878	3.02
487.23	3.03
487.583	3.05
487.936	3.06
488.288	3.08
488.641	2.99
488.993	2.93
489.345	2.94
489.698	2.94
490.05	3.01
490.402	2.97
490.754	3.03
491.107	3.06
491.459	3.1
491.811	3.11
492.163	3.09
492.515	3.1
492.866	3.08
493.218	2.98
493.57	3
493.922	3.03
494.274	3.03
494.625	3.05
494.977	3.17
495.328	3.08
495.68	3.01
496.031	3.12
496.383	3.15
496.734	3.12
497.086	3.3
497.437	3.27
497.788	3.27
498.139	3.13
498.49	2.99
498.842	3.17
499.193	3.18
499.544	3.12
499.894	3.15
500.245	3.15
500.596	3.09
500.947	3.16
501.298	3.27
501.648	3.17
501.999	3.3
502.35	3.09
502.7	3.23
503.051	3.23
503.401	3.19
503.752	3.29
504.102	3.22
504.452	3.26
504.803	3.27
505.153	3.14
505.503	3.2
505.853	3.15
506.203	3.25
506.553	3.23
506.903	3.15
507.253	3.25
507.603	3.11
507.953	3.21
508.303	3.21
508.652	3.14
509.002	3.46
509.352	3.26
509.701	3.23
510.051	3.2
510.4	3.2
510.75	3.15
511.099	3.19
511.449	3.19
511.798	3.28
512.147	3.12
512.496	3.12
512.846	3.1
513.195	3.32
513.544	3.11
513.893	3.23
514.242	3.17
514.591	3.12
514.939	3.17
515.288	3.27
515.637	3.19
515.986	3.31
516.334	3.33
516.683	3.16
517.032	3.28
517.38	3.17
517.729	3.26
518.077	3.17
518.426	3.25
518.774	3.2
519.122	3.22
519.47	3.25
519.819	3.11
520.167	3.18
520.515	3.13
520.863	3.17
521.211	3.14
521.559	3.23
521.907	3.15
522.255	3.25
522.602	3.27
522.95	3.18
523.298	3.29
523.645	3.17
523.993	3.3
524.341	3.25
524.688	3.22
525.036	3.2
525.383	3.31
525.73	3.27
526.078	3.25
526.425	3.34
526.772	3.23
527.119	3.17
527.466	3.23
527.814	3.13
528.161	3.24
528.508	3.14
528.854	3.21
529.201	3.17
529.548	3.15
529.895	3.11
530.242	3.08
530.588	2.98
530.935	3.01
531.282	3.06
531.628	3.08
531.975	3.16
532.321	3.22
532.667	3.17
533.014	3.22
533.36	3.23
533.706	3.32
534.052	3.16
534.399	3.21
534.745	3.2
535.091	3.05
535.437	3.12
535.783	3.09
536.129	3.21
536.474	3.22
536.82	3.16
537.166	3.25
537.512	3.31
537.857	3.13
538.203	3.19
538.549	3.12
538.894	3.19
539.239	3.25
539.585	3.15
539.93	3.17
540.276	3.23
540.621	3.24
540.966	3.25
541.311	3.18
541.656	3.23
542.001	3.27
542.346	3.33
542.691	3.21
543.036	3.12
543.381	3.1
543.726	3.17
544.071	3.17
544.415	3.24
544.76	3.2
545.105	3.28
545.449	3.28
545.794	3.26
546.138	3.22
546.483	3.28
546.827	3.29
547.171	3.23
547.516	3.33
547.86	3.24
548.204	3.33
548.548	3.26
548.892	3.14
549.236	3.28
549.58	3.26
549.924	3.35
550.268	3.44
550.612	3.2
550.956	3.28
551.3	3.26
551.643	3.25
551.987	3.19
552.33	3.3
552.674	3.3
553.017	3.53
553.361	3.54
553.704	3.32
554.048	3.36
554.391	3.32
554.734	3.24
555.077	3.29
555.42	3.38
555.764	3.48
556.107	3.46
556.45	3.37
556.793	3.26
557.135	3.45
557.478	3.26
557.821	3.33
558.164	3.33
558.507	3.28
558.849	3.44
559.192	3.33
559.534	3.13
559.877	3.21
560.219	3.34
560.562	3.44
560.904	3.58
561.246	3.23
561.589	3.39
561.931	3.28
562.273	3.39
562.615	3.21
562.957	3.39
563.299	3.38
563.641	3.29
563.983	3.47
564.325	3.37
564.667	3.41
565.008	3.25
565.35	3.45
565.692	3.57
566.033	3.43
566.375	3.16
566.716	3.29
567.058	3.49
567.399	3.39
567.741	3.28
568.082	3.31
568.423	3.31
568.764	3.31
569.105	3.45
569.447	3.52
569.788	3.33
570.129	3.55
570.47	3.39
570.811	3.56
571.151	3.39
571.492	3.43
571.833	3.46
572.174	3.52
572.514	3.3
572.855	3.3
573.195	3.61
573.536	3.2
573.876	3.34
574.217	3.23
574.557	3.31
574.898	3.33
575.238	3.38
575.578	3.64
575.918	3.36
576.258	3.41
576.598	3.47
576.938	3.3
577.278	3.35
577.618	3.31
577.958	3.38
578.298	3.44
578.638	3.38
578.977	3.26
579.317	3.6
579.657	3.29
579.996	3.53
580.336	3.43
580.675	3.23
581.014	3.69
581.354	3.45
581.693	3.54
582.032	3.34
582.372	3.61
582.711	3.27
583.05	3.52
583.389	3.33
583.728	3.29
584.067	3.44
584.406	3.21
584.745	3.42
585.083	3.31
585.422	3.56
585.761	3.4
586.1	3.26
586.438	3.2
586.777	3.41
587.115	3.45
587.454	3.62
587.792	3.62
588.13	3.56
588.469	3.68
588.807	3.67
589.145	3.34
589.483	3.25
589.821	3.6
590.159	3.3
590.497	3.69
590.835	3.35
591.173	3.34
591.511	3.48
591.849	3.58
592.187	3.39
592.524	3.42
592.862	3.41
593.2	3.48
593.537	3.43
593.875	3.52
594.212	3.59
594.55	3.42
594.887	3.45
595.224	3.5
595.561	3.4
595.899	3.37
596.236	3.49
596.573	3.51
596.91	3.24
597.247	3.45
597.584	3.44
597.921	3.58
598.258	3.41
598.594	3.14
598.931	3.53
599.268	3.5
599.604	3.4
599.941	3.52
600.277	3.41
600.614	3.69
600.95	3.54
601.287	3.52
601.623	3.6
601.959	3.56
602.296	3.61
602.632	3.49
602.968	3.39
603.304	3.49
603.64	3.6
603.976	3.12
604.312	3.61
604.648	3.46
604.984	3.34
605.319	3.3
605.655	3.42
605.991	3.46
606.326	3.35
606.662	3.37
606.998	3.42
607.333	3.36
607.668	3.45
608.004	3.6
608.339	3.36
608.674	3.55
609.01	3.57
609.345	3.36
609.68	3.43
610.015	3.46
610.35	3.39
610.685	3.56
611.02	3.44
611.355	3.38
611.689	3.6
612.024	3.47
612.359	3.44
612.694	3.47
613.028	3.68
613.363	3.76
613.697	3.35
614.032	3.58
614.366	3.46
614.7	3.45
615.035	3.49
615.369	3.63
615.703	3.59
616.037	3.44
616.371	3.64
616.705	3.52
617.039	3.57
617.373	3.48
617.707	3.58
618.041	3.52
618.375	3.58
618.709	3.91
619.042	3.67
619.376	3.55
619.71	3.36
620.043	3.54
620.377	3.71
620.71	4.09
621.043	3.73
621.377	3.64
621.71	3.9
622.043	4
622.376	3.75
622.709	3.86
623.043	3.44
623.376	3.97
623.709	3.37
624.041	3.53
624.374	3.75
624.707	3.27
625.04	3.53
625.373	3.93
625.705	3.43
626.038	3.49
626.37	3.72
626.703	3.78
627.035	3.47
627.368	3.5
627.7	3.49
628.032	3.64
628.365	3.92
628.697	3.45
629.029	3.24
629.361	3.48
629.693	3.73
630.025	3.75
630.357	3.7
630.689	3.83
631.021	3.72
631.353	3.66
631.684	3.85
632.016	3.72
632.348	3.62
632.679	3.94
633.011	3.81
633.342	3.77
633.674	3.36
634.005	3.58
634.336	3.57
634.668	3.44
634.999	3.87
635.33	3.45
635.661	3.85
635.992	3.74
636.323	3.33
636.654	3.3
636.985	3.59
637.316	3.52
637.647	3.54
637.977	3.89
638.308	3.84
638.639	3.75
638.969	3.66
639.3	3.88
639.63	3.29
639.961	3.9
640.291	3.96
640.622	3.81
640.952	3.68
641.282	3.4
641.612	4.17
641.943	3.73
642.273	3.39
642.603	4.12
642.933	3.47
643.263	2.7
643.592	3.75
643.922	3.97
644.252	3.71
644.582	3.85
644.911	3.59
645.241	3.38
645.571	3.43
645.9	3.59
646.23	3.82
646.559	4.11
646.888	3.95
647.218	4.07
647.547	3.83
647.876	3.9
648.205	3.46
648.534	3.73
648.863	4.24
649.192	3.92
649.521	3.78
649.85	4.03
650.179	3.55
650.508	3.94
650.837	4.08
651.165	4.15
651.494	3.67
651.822	3.64
652.151	4.1
652.479	3.48
652.808	3.53
653.136	4
653.465	3.71
653.793	4.08
654.121	3.43
654.449	3.14
654.777	3.64
655.105	4.02
655.433	3.79
655.761	3.9
656.089	3.67
656.417	3.48
656.745	3.15
657.073	3.61
657.4	3.96
657.728	3.78
658.056	3.67
658.383	3.82
658.711	3.47
659.038	3.59
659.365	4
659.693	4.29
660.02	4.11
660.347	3.95
660.674	3.69
661.001	3.86
661.329	3.98
661.656	3.67
661.982	3.51
662.309	3.71
662.636	3.84
662.963	3.65
663.29	3.65
663.616	4.3
663.943	3.99
664.27	3.93
664.596	4.24
664.923	4.13
665.249	3.69
665.576	3.8
665.902	3.34
666.228	3.21
666.554	3.96
666.881	3.62
667.207	3.76
667.533	4.01
667.859	3.99
668.185	3.89
668.511	3.79
668.837	3.34
669.162	4.21
669.488	3.62
669.814	3.92
670.139	3.76
670.465	3.87
670.791	3.56
671.116	3.38
671.442	3.76
671.767	3.86
672.092	3.82
672.418	4.09
672.743	4.48
673.068	3.86
673.393	3.95
673.718	3.99
674.043	3.72
674.368	3.19
674.693	3.93
675.018	3.81
675.343	4.17
675.667	3.86
675.992	4.42
676.317	4.18
676.641	4.25
676.966	3.68
677.29	3.44
677.615	4.46
677.939	4.05
678.264	4.25
678.588	3.51
678.912	4.25
679.236	3.57
679.56	4.01
679.885	3.58
680.209	4.41
680.532	3.88
680.856	3.99
681.18	3.16
681.504	3.89
681.828	4.23
682.152	4.3
682.475	4.01
682.799	4.35
683.122	4.48
683.446	4.11
683.769	3.89
684.093	4
684.416	3.32
684.739	3.64
685.062	4.34
685.386	3.61
685.709	4.08
686.032	3.95
686.355	5.08
686.678	4.21
687.001	4.25
687.324	4.16
687.646	4.43
687.969	3.71
688.292	4.61
688.614	4.39
688.937	3.76
689.26	4.19
689.582	4.67
689.904	4.68
690.227	3.89
690.549	3.97
690.871	4.34
691.194	4.58
691.516	4.31
691.838	3.72
692.16	4.68
692.482	3.14
692.804	4.31
693.126	3.51
693.448	4.21
693.769	4.92
694.091	4.48
694.413	4.09
694.735	4.07
695.056	3.58
695.378	4.37
695.699	4.36
696.021	4.87
696.342	3.97
696.663	3.61
696.984	4.12
697.306	4.02
697.627	4.08
697.948	3.5
698.269	4.48
698.59	4.19
698.911	4.56
699.232	4.54
699.553	4.33
699.873	4.19
700.194	4.47
700.515	4.32
700.835	4.16
701.156	4.16
701.477	4.12
701.797	4.64
702.117	4.58
702.438	4.24
702.758	4.53
703.078	4.4
703.398	3.61
703.719	3.59
704.039	5.06
704.359	4.92
704.679	4.5
704.999	4.08
705.319	4.82
705.638	3.85
705.958	3.74
706.278	3.07
706.597	4.38
706.917	4.19
707.237	3.93
707.556	4.85
707.876	3.24
708.195	3.16
708.514	4.66
708.834	3.28
709.153	4.13
709.472	4.44
709.791	3.59
710.11	4.22
710.429	4.53
710.748	4.34
711.067	5.23
711.386	3.5
711.705	4.86
712.023	4.14
712.342	4.6
712.661	4.97
712.979	4.1
713.298	4.63
713.616	4.68
713.935	4.39
714.253	4.25
714.572	4.08
714.89	3.7
715.208	4.57
715.526	4.93
715.844	3.67
716.162	4.13
716.48	5.41
716.798	5.17
717.116	4.62
717.434	3.73
717.752	3.4
718.069	4.58
718.387	4.28
718.705	4.59
719.022	5.69
719.34	4.32
719.657	4.37
719.975	4.73
720.292	4.51
720.609	3.92
720.927	4.63
721.244	3.61
721.561	4.33
721.878	3.41
722.195	4.71
722.512	3.99
722.829	5.72
723.146	3.58
723.463	5.14
723.779	5.38
724.096	5.21
724.413	4.55
724.729	5.47
725.046	3.79
725.362	5.12
725.679	5.65
725.995	4.4
726.311	4.57
726.628	3.53
726.944	5.28
727.26	4.78
727.576	5.28
727.892	6.34
728.208	5.24
728.524	3.5
728.84	3.34
729.156	5.59
729.472	5.68
729.787	4.94
730.103	4.04
730.419	4.74
730.734	3.66
731.05	4.67
731.365	4.88
731.681	3.9
731.996	5.79
732.311	3.76
732.626	5.29
732.942	4.1
733.257	3.83
733.572	5.3
733.887	4.11
734.202	5.09
734.517	3.84
734.832	5.06
735.146	4.57
735.461	4.3
735.776	3.79
736.091	4.21
736.405	5.43
736.72	4.65
737.034	4.89
737.349	5.42
737.663	4.88
737.977	5.75
738.292	6.61
738.606	6.37
738.92	4.33
739.234	5.43
739.548	5.93
739.862	5.02
740.176	4.23
740.49	3.87
740.804	5.19
741.117	4.82
741.431	5.18
741.745	5.27
742.058	4.67
742.372	3.59
742.685	5.05
742.999	5.35
743.312	4.86
743.626	3.28
743.939	7.6
744.252	5.36
744.565	3.29
744.878	4.85
745.191	5.54
745.505	3.71
745.817	3.35
746.13	3.7
746.443	4.07
746.756	5.05
747.069	3.92
747.381	6.74
747.694	4.97
748.007	4.87
748.319	3.29
748.632	3.67
748.944	4.93
749.256	5.24
749.569	5.7
749.881	4.59
750.193	5.32
750.505	3.42
750.817	5.64
751.129	4.12
751.441	4.94
751.753	4.15
752.065	4.69
752.377	3.49
752.689	5.22
753	4.48
753.312	5.45
753.624	4.69
753.935	7.08
754.247	5.87
754.558	6.11
754.869	3.86
755.181	3.86
755.492	4.82
755.803	4
756.114	5.97
756.425	5.29
756.736	5.49
757.047	6.98
757.358	5.84
757.669	7.37
757.98	3.33
758.291	6.05
758.601	6.2
758.912	5.93
759.223	6.99
759.533	5.7
759.844	5.02
760.154	4.79
760.464	5.01
760.775	5.96
761.085	5.82
761.395	4.59
761.705	5.56
762.016	5.88
762.326	7.1
762.636	5.14
762.945	6.89
763.255	5.18
763.565	6.9
763.875	5.93
764.185	5.65
764.494	6.69
764.804	6.87
765.113	7.06
765.423	6.39
765.732	5.77
766.042	5.32
766.351	4.55
766.66	5.39
766.97	5.15
767.279	4.3
767.588	6.09
767.897	4.42
768.206	6.33
768.515	3.9
768.824	5.21
769.133	4.11
769.441	5.09
769.75	6.12
770.059	4.96
770.367	4.41
770.676	5.98
770.984	6.81
771.293	5.66
771.601	5.15
771.91	5.12
772.218	4.28
772.526	4.56
772.834	4.32
773.142	5.52
773.45	4.58
773.758	6.57
774.066	3.42
774.374	7.15
774.682	4.85
774.99	5.85
775.298	5.61
775.605	6.21
775.913	3.22
776.22	6.56
776.528	9.07
776.835	5.03
777.143	5.89
777.45	4.56
777.757	5.71
778.065	4.87
778.372	4.3
778.679	6.45
778.986	3.49
779.293	7.67
779.6	6.5
779.907	4.3
780.214	4.49
780.52	8.79
780.827	6.79
781.134	4.46
781.44	2.63
781.747	4.5
782.053	7
782.36	6.94
782.666	-0.23
782.973	7.51
783.279	8.11
783.585	7.44
783.891	6.78
784.197	4.04
784.503	3.24
784.809	7.48
785.115	6.35
785.421	6
785.727	6.67
786.033	3.9
786.339	5.68
786.644	4.03
786.95	5.2
787.255	5.79
787.561	7.31
787.866	2.45
788.172	6.31
788.477	6.99
788.782	8.17
789.088	5.18
789.393	5.44
789.698	5.77
790.003	5.81
790.308	7.7
790.613	-1.69
790.918	4.37
791.223	8.43
791.527	8.22
791.832	6.18
792.137	9.81
792.441	7.46
792.746	5.33
793.05	7.6
793.355	4.66
793.659	5.57
793.963	5.92
794.268	6.28
794.572	9.18
794.876	4.85
795.18	5.33
795.484	3.25
795.788	6.25
796.092	6.27
796.396	9.43
796.7	6.96
797.004	10.18
797.307	4.04
797.611	5.85
797.915	10.71
798.218	4.57
798.522	5.31
798.825	5
799.128	1.14
799.432	4.82
799.735	8.56
800.038	3.13
800.341	5.86
800.644	7.17
800.947	6.55
801.25	7.68
801.553	9.87
801.856	6.31
802.159	6.92
802.462	4.81
802.764	5.25
803.067	1.69
803.37	5.44
803.672	10.09
803.975	11.56
804.277	5.86
804.579	3.65
804.882	4.45
805.184	3.01
805.486	6.98
805.788	9.62
806.09	8.71
806.392	4.28
806.694	0.19
806.996	8.05
807.298	4.65
807.6	4.45
807.902	7.97
808.203	4.53
808.505	6.32
808.807	7.07
809.108	8.2
809.409	10.57
809.711	-2.59
810.012	8.66
810.313	6.61
810.615	6.51
810.916	7.11
811.217	4.95
811.518	3.8
811.819	11.96
812.12	-0.54
812.421	4.63
812.722	6.36
813.023	2.58
813.323	10.33
813.624	5.24
813.925	11.9
814.225	10.89
814.526	15.2
814.826	7.14
815.126	2.37
815.427	4.17
815.727	3.26
816.027	0.26
816.327	2.91
816.627	4.61
816.927	0.65
817.227	12.92
817.527	7.83
817.827	5.27
818.127	11.56
818.427	14.16
818.727	9.49
819.026	2.27
819.326	3.18
819.625	7.39
819.925	7.8
820.224	8.54
820.524	12.43
820.823	7.37
821.122	6.02
821.421	-0.22
821.72	8.5
822.019	1.38
822.318	8.85
822.617	4.53
822.916	4.53
823.215	6.64
823.514	7.96
823.813	5.99
824.111	8.22
824.41	3.64
824.709	7.3
825.007	8.14
825.306	6.22
825.604	7.51
825.902	6.93
826.201	7.43
826.499	7.67
826.797	7.28
827.095	7.27
827.393	5.18
827.691	6.66
827.989	6.47
828.287	9.19
828.585	6.56
828.882	5.42
829.18	5.8
829.478	6.08
829.775	6.82
830.073	5.19
830.37	7.72
830.668	6.91
830.965	6.84
831.263	7.11
831.56	5.27
831.857	5.78
832.154	7.94
832.451	7.4
832.748	7.3
833.045	10.32
833.342	8.81
833.639	12.87
833.936	13.12
834.232	3.79
834.529	12.93
834.826	8.03
835.122	11.6
835.419	11.87
835.715	2.38
836.012	10.7
836.308	3.49
836.604	8.21
836.901	8.62
837.197	5.27
837.493	8.42
837.789	7.8
838.085	8.38
838.381	8.32
838.677	7.28
838.972	6.42
839.268	5.37
839.564	12.24
839.86	5.97
840.155	6.97
840.451	6.81
840.746	5.22
841.042	12.79
841.337	8.73
841.632	9.43
841.928	0.98
842.223	6.45
842.518	6.66
842.813	2.85
843.108	11.07
843.403	4.97
843.698	2.43
843.993	6.15
844.287	15.88
844.582	11.64
844.877	0.58
845.171	-4.48
845.466	8.38
845.761	1.92
846.055	7.26
846.349	6.89
846.644	17.54
846.938	14.06
847.232	13.17
847.526	2.31
847.82	13.19
848.114	22.39
848.408	16.27
848.702	4.73
848.996	1.09
849.29	12.82
849.584	10.18
849.877	8.55
850.171	3.9
850.465	5.18
850.758	29.64
851.052	-9.54
851.345	-4.2
851.638	-1.98
851.932	7.7
852.225	3.59
852.518	8.48
852.811	20.53
853.104	15.52
853.397	-14.04
853.69	14.33
853.983	22.06
854.276	19.44
854.569	-1.48
854.861	-4.9
855.154	16.81
855.447	-16.38
855.739	11.61
856.032	17.56
856.324	25.33
856.616	12.73
856.909	13.28
857.201	15.3
857.493	22.96
857.785	38.81
858.077	-7.88
858.369	14.79
858.661	1.31
858.953	2.13
859.245	3.53
859.537	2.43
859.829	37.94
860.12	17.17
860.412	5.81
860.703	-37.19
860.995	7.04
861.286	20.22
861.578	25.61
861.869	0.21
862.16	2.7
862.452	1.64
862.743	8.53
863.034	8.51
863.325	-1.14
863.616	32.25
863.907	1.31
864.198	17.24
864.488	-34.86
864.779	25.17
865.07	15.88
865.36	2.82
865.651	18.3
865.941	3.97
866.232	-16.94
866.522	19.07
866.813	1.67
867.103	40.96
867.393	3.62
867.683	-6.96
867.973	-10.87
868.263	11.98
868.553	-5.3
868.843	9.71
869.133	25.05
869.423	1.99
869.713	7.93
870.002	4.56
870.292	-16.82
870.582	21.91
870.871	-9.99
871.161	12.93
871.45	24.74
871.739	17.48
872.029	-6.62
872.318	5.02
872.607	-25.05
872.896	6.39
873.185	6.37
873.474	-7.15
873.763	12.36
874.052	0
874.341	19.29
874.63	24.53
874.918	25.2
875.207	23.25
875.496	13.05
875.784	9.84
876.073	3.81
876.361	18.87
876.649	-3.93
876.938	-20.09
877.226	18.69
877.514	9.5
877.802	20.94
878.09	-26.17
878.378	0.68
878.666	12.44
878.954	4.49
879.242	-9.28
879.53	1.54
879.817	-13.37
880.105	-14.65
880.392	-27.9
880.68	-15.89
880.967	12.53
881.255	30.39
881.542	6.62
881.83	10.07
882.117	-10.38
882.404	-3.65
882.691	-11.13
882.978	16.43
883.265	13.23
883.552	3.05
883.839	5.05
884.126	21.81
884.413	6.66
884.699	1.21
884.986	10.51
885.273	5.64
885.559	5.64
885.846	5.64
