Data from 0042_forehead_Reflection__3__103.txt Node

Date: Fri Nov 04 15:38:43 CDT 2022
User: ToomeyLab
Spectrometer: FLMS14357
Trigger mode: 0
Integration Time (sec): 1.000000E-2
Scans to average: 100
Electric dark correction enabled: true
Nonlinearity correction enabled: false
Boxcar width: 0
XAxis mode: Wavelengths
Number of Pixels in Spectrum: 2048
>>>>>Begin Spectral Data<<<<<
189.047	97.65
189.435	97.65
189.823	97.65
190.211	-102.82
190.599	-64.1
190.987	273.97
191.375	-265.67
191.763	188.05
192.151	-5442.7
192.538	-8.81
192.926	311.51
193.314	26.37
193.702	19.48
194.089	-75.42
194.477	-87
194.864	-511.8
195.252	61.08
195.639	-170.25
196.027	32.75
196.414	-7.93
196.801	171.67
197.189	22.66
197.576	61.7
197.963	133.58
198.351	8.55
198.738	17.58
199.125	10.71
199.512	-50
199.899	-10.66
200.286	-12.76
200.673	-36.59
201.06	-38.91
201.447	-25.79
201.833	19.05
202.22	-23.77
202.607	46.59
202.994	50.67
203.38	25.37
203.767	6.93
204.154	20.04
204.54	28.85
204.927	38.3
205.313	20.8
205.699	13.95
206.086	23.36
206.472	-2.12
206.858	-12.54
207.245	10.61
207.631	12.22
208.017	24.31
208.403	-0.42
208.789	45.82
209.175	26.52
209.561	-3.33
209.947	-64.88
210.333	11.57
210.719	-7.25
211.105	-68.52
211.491	14.68
211.876	15.55
212.262	-11.9
212.648	4.16
213.034	8.82
213.419	2.15
213.805	-18.88
214.19	29.65
214.576	0.54
214.961	12.74
215.346	-16.86
215.732	5.75
216.117	17.54
216.502	15.09
216.888	-3.58
217.273	7.14
217.658	0.14
218.043	-1.56
218.428	-7.5
218.813	2.23
219.198	18.2
219.583	-9.64
219.968	16.69
220.353	-14.45
220.738	-20.4
221.122	-12.29
221.507	29.36
221.892	-14.34
222.276	9.72
222.661	10.62
223.046	-1.76
223.43	7.74
223.815	-1.73
224.199	-0.41
224.583	3.86
224.968	-9.15
225.352	11.76
225.736	-1.16
226.121	-9.49
226.505	-0.1
226.889	-2.89
227.273	1.45
227.657	0.03
228.041	3.26
228.425	3.51
228.809	3.11
229.193	3.39
229.577	1.48
229.961	2.5
230.344	3.16
230.728	2.53
231.112	2.53
231.495	2.4
231.879	2.91
232.263	3.17
232.646	1.27
233.03	1.24
233.413	0.69
233.797	1.76
234.18	2.28
234.563	3.32
234.946	1.79
235.33	3.02
235.713	2.8
236.096	3.07
236.479	-0.01
236.862	3.48
237.245	1.83
237.628	3.38
238.011	-0.18
238.394	4.75
238.777	2.67
239.16	2.34
239.543	2.86
239.925	4.31
240.308	3.25
240.691	3.78
241.073	2.43
241.456	2.89
241.838	2.1
242.221	2.77
242.603	2.74
242.986	2.04
243.368	3.08
243.75	3.08
244.133	3.06
244.515	2.8
244.897	3.16
245.279	3.01
245.661	3.59
246.043	3.85
246.425	3.06
246.807	3.6
247.189	2.36
247.571	4.53
247.953	3.12
248.335	3.18
248.717	3.47
249.098	3
249.48	3.21
249.862	3.3
250.243	3.29
250.625	2.75
251.006	2.95
251.388	3.46
251.769	3.04
252.151	4.32
252.532	4.07
252.913	2.49
253.295	3.49
253.676	3.07
254.057	2.96
254.438	3.04
254.819	3.55
255.2	2.28
255.581	4.38
255.962	3.38
256.343	3.66
256.724	3.19
257.105	2.58
257.486	3.87
257.867	4.11
258.247	3.27
258.628	2.3
259.009	2.23
259.389	3.09
259.77	3.45
260.15	3.11
260.531	3.17
260.911	2.83
261.292	3.05
261.672	3.09
262.052	3.24
262.432	3.24
262.813	3
263.193	2.39
263.573	3.05
263.953	2.82
264.333	3.44
264.713	4.17
265.093	3.09
265.473	2.7
265.853	2.48
266.233	3.12
266.612	3.36
266.992	3.7
267.372	2.2
267.752	3.35
268.131	3.29
268.511	2.95
268.89	3.47
269.27	2.72
269.649	3.21
270.029	2.72
270.408	2.95
270.787	3.03
271.167	2.98
271.546	3.95
271.925	3.1
272.304	2.58
272.683	3.05
273.062	2.76
273.441	3.34
273.82	2.85
274.199	3.12
274.578	2.84
274.957	3.13
275.336	2.71
275.715	2.93
276.093	3.45
276.472	2.85
276.851	2.24
277.229	2.79
277.608	3.03
277.986	3.64
278.365	3.01
278.743	3.56
279.122	3.03
279.5	2.67
279.878	3.03
280.257	2.65
280.635	2.36
281.013	2.91
281.391	3.5
281.769	3.44
282.147	3.09
282.525	3.16
282.903	3.74
283.281	3.48
283.659	3.06
284.037	3.19
284.415	2.83
284.792	3.11
285.17	2.62
285.548	3.25
285.925	3.14
286.303	3.39
286.68	3.46
287.058	2.78
287.435	2.95
287.813	2.9
288.19	3.15
288.567	2.92
288.945	3.13
289.322	3.25
289.699	3.2
290.076	3.12
290.453	3.22
290.83	3
291.207	3.16
291.584	3.47
291.961	3.41
292.338	3.58
292.715	3.41
293.092	3.51
293.469	3.67
293.845	3.1
294.222	3.44
294.599	3.43
294.975	4.13
295.352	4.05
295.728	3.99
296.105	3.86
296.481	3.31
296.858	3.82
297.234	4.05
297.61	3.76
297.986	3.61
298.363	3.31
298.739	3.74
299.115	3.88
299.491	3.8
299.867	3.66
300.243	3.85
300.619	4.11
300.995	4.06
301.371	4.21
301.746	3.99
302.122	3.88
302.498	3.96
302.874	4.22
303.249	3.7
303.625	3.64
304	4.38
304.376	3.95
304.751	4.27
305.127	3.58
305.502	4.17
305.878	4.41
306.253	4.78
306.628	4.18
307.003	4.39
307.378	4.41
307.754	4.3
308.129	3.65
308.504	3.99
308.879	4.57
309.254	4.95
309.629	4.49
310.003	4.45
310.378	4.4
310.753	4.98
311.128	4.3
311.502	3.81
311.877	4.48
312.252	4.3
312.626	4.59
313.001	4.47
313.375	4.16
313.75	4.45
314.124	4.29
314.498	4.76
314.873	4.47
315.247	4.87
315.621	4.69
315.995	4.81
316.369	4.72
316.743	4.97
317.117	4.86
317.491	4.6
317.865	4.65
318.239	4.81
318.613	4.83
318.987	5.04
319.361	4.84
319.734	5.12
320.108	5.26
320.482	4.11
320.855	4.51
321.229	4.88
321.602	5.11
321.976	4.77
322.349	5.05
322.723	5.69
323.096	5.1
323.469	4.85
323.843	4.96
324.216	5.19
324.589	5.51
324.962	5.57
325.335	5.07
325.708	4.42
326.081	4.92
326.454	5.02
326.827	5.39
327.2	4.83
327.573	4.89
327.945	5.25
328.318	4.43
328.691	4.81
329.063	5.26
329.436	5.55
329.809	4.79
330.181	4.87
330.553	4.91
330.926	5.35
331.298	5.84
331.671	5.39
332.043	5.12
332.415	5.37
332.787	4.83
333.159	5.32
333.532	4.68
333.904	5.49
334.276	5.04
334.648	5.15
335.02	4.88
335.391	5.52
335.763	5.54
336.135	5.42
336.507	5.31
336.879	5.34
337.25	5.61
337.622	5.5
337.993	5.16
338.365	5.55
338.736	5.61
339.108	5.61
339.479	5.31
339.851	5.66
340.222	5.39
340.593	5.41
340.964	5.46
341.336	5.66
341.707	5.4
342.078	5.73
342.449	6
342.82	5.55
343.191	5.28
343.562	5.57
343.933	5.58
344.303	5.98
344.674	5.64
345.045	5.18
345.416	5.48
345.786	5.74
346.157	5.63
346.527	6.15
346.898	5.79
347.268	5.44
347.639	5.42
348.009	5.73
348.38	5.8
348.75	5.4
349.12	5.29
349.49	5.73
349.861	5.55
350.231	5.8
350.601	5.31
350.971	5.79
351.341	5.34
351.711	5.78
352.081	6.02
352.45	5.78
352.82	5.93
353.19	5.96
353.56	6.35
353.929	5.89
354.299	6.33
354.669	6.19
355.038	6.01
355.408	5.75
355.777	6.19
356.147	5.79
356.516	5.58
356.885	5.75
357.254	6.24
357.624	5.78
357.993	6.25
358.362	5.87
358.731	6.08
359.1	5.69
359.469	6.06
359.838	6.04
360.207	5.98
360.576	6
360.945	6.19
361.314	6.28
361.682	5.8
362.051	5.95
362.42	6.16
362.788	5.94
363.157	6.18
363.525	6.14
363.894	6.1
364.262	6.3
364.631	6.12
364.999	5.95
365.367	6.25
365.735	6.29
366.104	6.1
366.472	6.22
366.84	6.07
367.208	6.23
367.576	5.97
367.944	6.28
368.312	6.49
368.68	6.24
369.048	6.29
369.416	6.05
369.783	6.14
370.151	5.91
370.519	6.54
370.886	6.36
371.254	6.29
371.621	6.47
371.989	6.31
372.356	6.32
372.724	6.66
373.091	6.38
373.458	6.5
373.826	6.82
374.193	6.2
374.56	6.41
374.927	6.8
375.294	6.33
375.661	6.65
376.028	6.21
376.395	6.55
376.762	6.55
377.129	6.65
377.496	6.75
377.863	6.86
378.229	6.49
378.596	6.24
378.963	6.45
379.329	6.38
379.696	6.59
380.062	6.89
380.429	6.51
380.795	6.35
381.161	6.68
381.528	6.94
381.894	6.39
382.26	6.85
382.626	6.3
382.993	6.73
383.359	6.82
383.725	6.75
384.091	6.62
384.457	6.89
384.823	6.92
385.188	7.02
385.554	6.95
385.92	6.44
386.286	6.55
386.651	6.72
387.017	6.75
387.383	7
387.748	6.71
388.114	6.77
388.479	7.52
388.845	6.82
389.21	7.13
389.575	7.32
389.94	7.03
390.306	7.11
390.671	7.16
391.036	6.95
391.401	7.28
391.766	6.83
392.131	6.91
392.496	6.93
392.861	6.96
393.226	7.02
393.591	7
393.956	7.21
394.32	7.03
394.685	7.28
395.05	7.04
395.414	7.17
395.779	7.28
396.143	6.89
396.508	7.11
396.872	7.38
397.236	7.35
397.601	7.2
397.965	7.31
398.329	7.24
398.694	7.37
399.058	7.43
399.422	7.32
399.786	7.09
400.15	7.33
400.514	7.17
400.878	7.25
401.242	7.71
401.605	7.26
401.969	7.62
402.333	7.29
402.697	7.27
403.06	7.48
403.424	7.4
403.787	7.43
404.151	7.57
404.514	7.82
404.878	7.57
405.241	7.55
405.604	7.43
405.968	7.28
406.331	7.43
406.694	7.47
407.057	7.59
407.42	7.57
407.783	7.28
408.146	7.63
408.509	7.58
408.872	7.7
409.235	7.6
409.598	7.52
409.961	7.64
410.323	7.69
410.686	7.54
411.049	7.63
411.411	7.42
411.774	7.72
412.136	7.84
412.499	8.03
412.861	7.6
413.223	7.95
413.586	7.74
413.948	7.89
414.31	7.76
414.672	7.85
415.035	7.9
415.397	7.96
415.759	7.89
416.121	7.78
416.483	7.92
416.845	7.82
417.206	7.87
417.568	8
417.93	7.77
418.292	7.86
418.653	7.98
419.015	7.9
419.377	7.71
419.738	7.84
420.1	8.11
420.461	7.92
420.822	7.71
421.184	7.95
421.545	7.82
421.906	8.01
422.267	7.76
422.629	7.84
422.99	7.77
423.351	7.6
423.712	7.9
424.073	8
424.434	7.85
424.795	7.93
425.155	8.02
425.516	8.01
425.877	7.82
426.238	7.92
426.598	7.86
426.959	7.9
427.32	7.98
427.68	8.14
428.041	8.11
428.401	8.07
428.761	8.09
429.122	8.08
429.482	8.2
429.842	8.19
430.202	8.27
430.563	8.36
430.923	8.36
431.283	8.31
431.643	8.31
432.003	8.52
432.363	8.47
432.722	8.47
433.082	8.45
433.442	8.33
433.802	8.19
434.161	8.31
434.521	8.24
434.881	8.36
435.24	8.23
435.6	8.42
435.959	8.24
436.319	8.47
436.678	8.61
437.037	8.52
437.396	8.55
437.756	8.49
438.115	8.35
438.474	8.53
438.833	8.52
439.192	8.7
439.551	8.52
439.91	8.65
440.269	8.69
440.628	8.66
440.987	8.58
441.345	8.59
441.704	8.5
442.063	8.5
442.421	8.63
442.78	8.6
443.138	8.59
443.497	8.56
443.855	8.56
444.214	8.72
444.572	8.64
444.93	8.81
445.288	8.83
445.647	8.69
446.005	8.85
446.363	8.78
446.721	8.89
447.079	8.67
447.437	8.73
447.795	8.62
448.153	8.69
448.51	8.76
448.868	8.64
449.226	8.75
449.584	8.82
449.941	8.8
450.299	8.98
450.656	8.92
451.014	9.11
451.371	9
451.729	9.19
452.086	9.06
452.443	9.12
452.801	9.19
453.158	9.27
453.515	9.2
453.872	8.96
454.229	9.21
454.586	9.17
454.943	9.19
455.3	9.17
455.657	9.13
456.014	9.19
456.371	9.15
456.727	9.35
457.084	9.3
457.441	9.27
457.797	9.36
458.154	9.39
458.51	9.38
458.867	9.31
459.223	9.39
459.58	9.49
459.936	9.22
460.292	9.2
460.648	9.34
461.005	9.17
461.361	9.23
461.717	9.14
462.073	9.23
462.429	9.41
462.785	9.36
463.141	9.41
463.496	9.49
463.852	9.57
464.208	9.44
464.564	9.5
464.919	9.61
465.275	9.64
465.631	9.75
465.986	9.55
466.342	9.41
466.697	9.64
467.052	9.47
467.408	9.75
467.763	9.6
468.118	9.85
468.473	9.73
468.829	9.62
469.184	9.75
469.539	9.58
469.894	9.91
470.249	9.71
470.603	9.86
470.958	9.69
471.313	9.75
471.668	9.77
472.023	9.75
472.377	9.85
472.732	9.84
473.086	9.95
473.441	9.98
473.795	10.09
474.15	9.93
474.504	10.02
474.859	9.84
475.213	9.94
475.567	9.87
475.921	9.88
476.275	10.2
476.63	10
476.984	10.02
477.338	10.09
477.692	10.1
478.045	10.08
478.399	10.02
478.753	10.16
479.107	10.19
479.461	10.06
479.814	10.14
480.168	10.12
480.521	10.09
480.875	10.08
481.228	10.26
481.582	10.28
481.935	10.18
482.289	10.17
482.642	10.28
482.995	10.22
483.348	10.11
483.701	10.17
484.055	10.04
484.408	10.16
484.761	10.1
485.114	9.83
485.466	9.73
485.819	9.6
486.172	9.65
486.525	9.78
486.878	9.92
487.23	10.03
487.583	10.16
487.936	10.18
488.288	10.2
488.641	10.08
488.993	10.05
489.345	9.93
489.698	10.02
490.05	10.02
490.402	10.06
490.754	10.17
491.107	10.33
491.459	10.4
491.811	10.47
492.163	10.5
492.515	10.53
492.866	10.42
493.218	10.22
493.57	10.1
493.922	10.25
494.274	10.33
494.625	10.42
494.977	10.57
495.328	10.58
495.68	10.5
496.031	10.75
496.383	10.82
496.734	10.78
497.086	11.02
497.437	10.87
497.788	10.77
498.139	10.84
498.49	10.74
498.842	10.85
499.193	10.91
499.544	10.93
499.894	10.89
500.245	11.01
500.596	11.03
500.947	10.88
501.298	10.97
501.648	11.06
501.999	11.17
502.35	10.9
502.7	11.06
503.051	10.98
503.401	11.12
503.752	11.26
504.102	11.2
504.452	11.21
504.803	11.21
505.153	11.11
505.503	11.18
505.853	11.15
506.203	11.25
506.553	11.29
506.903	11.33
507.253	11.25
507.603	11.23
507.953	11.27
508.303	11.34
508.652	11.34
509.002	11.47
509.352	11.52
509.701	11.37
510.051	11.48
510.4	11.33
510.75	11.34
511.099	11.42
511.449	11.36
511.798	11.49
512.147	11.34
512.496	11.43
512.846	11.43
513.195	11.68
513.544	11.44
513.893	11.54
514.242	11.52
514.591	11.54
514.939	11.6
515.288	11.57
515.637	11.67
515.986	11.66
516.334	11.73
516.683	11.71
517.032	11.78
517.38	11.76
517.729	11.79
518.077	11.79
518.426	11.8
518.774	11.67
519.122	11.8
519.47	11.66
519.819	11.63
520.167	11.68
520.515	11.65
520.863	11.53
521.211	11.67
521.559	11.79
521.907	11.8
522.255	11.76
522.602	11.95
522.95	11.89
523.298	12.09
523.645	11.95
523.993	12.19
524.341	12.1
524.688	12.16
525.036	12.07
525.383	12.19
525.73	12.21
526.078	12.15
526.425	12.08
526.772	12
527.119	11.95
527.466	11.98
527.814	11.87
528.161	11.9
528.508	11.99
528.854	11.99
529.201	11.92
529.548	11.99
529.895	11.74
530.242	11.62
530.588	11.59
530.935	11.6
531.282	11.75
531.628	11.8
531.975	12.01
532.321	12.17
532.667	12.2
533.014	12.28
533.36	12.26
533.706	12.38
534.052	12.24
534.399	12.29
534.745	12.18
535.091	11.98
535.437	12.01
535.783	12.05
536.129	12.22
536.474	12.37
536.82	12.44
537.166	12.55
537.512	12.51
537.857	12.46
538.203	12.39
538.549	12.35
538.894	12.45
539.239	12.55
539.585	12.56
539.93	12.66
540.276	12.76
540.621	12.82
540.966	12.88
541.311	12.71
541.656	12.78
542.001	12.87
542.346	12.69
542.691	12.66
543.036	12.38
543.381	12.34
543.726	12.38
544.071	12.53
544.415	12.65
544.76	12.67
545.105	12.72
545.449	12.86
545.794	12.87
546.138	12.87
546.483	13.01
546.827	13.12
547.171	13.02
547.516	13.13
547.86	13.03
548.204	13.05
548.548	12.94
548.892	13.07
549.236	12.92
549.58	13.1
549.924	13.27
550.268	13.33
550.612	13.24
550.956	13.38
551.3	13.37
551.643	13.49
551.987	13.34
552.33	13.41
552.674	13.4
553.017	13.6
553.361	13.65
553.704	13.37
554.048	13.4
554.391	13.46
554.734	13.55
555.077	13.41
555.42	13.53
555.764	13.81
556.107	13.68
556.45	13.69
556.793	13.64
557.135	13.88
557.478	13.73
557.821	13.81
558.164	13.91
558.507	13.89
558.849	13.73
559.192	13.63
559.534	13.76
559.877	13.91
560.219	13.88
560.562	14.02
560.904	14.16
561.246	14.04
561.589	14.04
561.931	14.1
562.273	14.07
562.615	13.9
562.957	14.22
563.299	14.08
563.641	13.99
563.983	14.11
564.325	14.12
564.667	14.12
565.008	14.03
565.35	14.19
565.692	14.36
566.033	14.38
566.375	14.15
566.716	14.17
567.058	14.23
567.399	14.18
567.741	14.14
568.082	14.24
568.423	14.14
568.764	14.12
569.105	14.26
569.447	14.23
569.788	14.35
570.129	14.34
570.47	14.54
570.811	14.39
571.151	14.64
571.492	14.57
571.833	14.39
572.174	14.63
572.514	14.4
572.855	14.36
573.195	14.42
573.536	14.48
573.876	14.58
574.217	14.32
574.557	14.5
574.898	14.55
575.238	14.72
575.578	14.62
575.918	14.56
576.258	14.63
576.598	14.7
576.938	14.63
577.278	14.45
577.618	14.47
577.958	14.73
578.298	14.88
578.638	14.81
578.977	14.84
579.317	14.97
579.657	14.83
579.996	14.91
580.336	15.04
580.675	14.88
581.014	15.1
581.354	15.2
581.693	15.22
582.032	15.08
582.372	15.03
582.711	15.2
583.05	15.26
583.389	15.13
583.728	15.32
584.067	15.23
584.406	15.15
584.745	15.29
585.083	15.22
585.422	15.03
585.761	15.38
586.1	15.13
586.438	15.12
586.777	15.35
587.115	15.31
587.454	15.59
587.792	15.39
588.13	15.26
588.469	15.85
588.807	15.55
589.145	15.35
589.483	15.44
589.821	15.37
590.159	15.17
590.497	15.69
590.835	15.56
591.173	15.26
591.511	15.61
591.849	15.39
592.187	15.37
592.524	15.57
592.862	15.57
593.2	15.67
593.537	15.54
593.875	15.76
594.212	15.46
594.55	15.8
594.887	15.75
595.224	15.85
595.561	15.71
595.899	15.68
596.236	15.99
596.573	15.73
596.91	15.96
597.247	15.77
597.584	15.77
597.921	15.9
598.258	15.9
598.594	15.41
598.931	15.79
599.268	15.73
599.604	15.65
599.941	15.76
600.277	15.81
600.614	16.08
600.95	16.04
601.287	15.93
601.623	15.95
601.959	16.26
602.296	16.21
602.632	16.12
602.968	16.11
603.304	16.09
603.64	16.16
603.976	16.19
604.312	16.39
604.648	16.12
604.984	16.14
605.319	15.98
605.655	15.93
605.991	16.29
606.326	16.06
606.662	16.02
606.998	15.93
607.333	16.09
607.668	16.42
608.004	16.4
608.339	16.37
608.674	16.55
609.01	16.27
609.345	16.6
609.68	16.31
610.015	16.58
610.35	16.27
610.685	16.78
611.02	16.48
611.355	16.17
611.689	16.34
612.024	16.39
612.359	16.46
612.694	16.73
613.028	16.77
613.363	16.72
613.697	16.81
614.032	16.62
614.366	16.8
614.7	16.52
615.035	16.71
615.369	17
615.703	17.38
616.037	16.9
616.371	16.95
616.705	16.89
617.039	17.12
617.373	16.99
617.707	17.37
618.041	17.01
618.375	16.98
618.709	16.99
619.042	17.32
619.376	17.23
619.71	17.15
620.043	17.31
620.377	17.1
620.71	17.01
621.043	17.33
621.377	17.49
621.71	17.05
622.043	17.41
622.376	17.61
622.709	17.36
623.043	17.55
623.376	17.58
623.709	17.04
624.041	17.68
624.374	17.24
624.707	17.3
625.04	17.39
625.373	17.58
625.705	17.22
626.038	17.22
626.37	17.26
626.703	17.44
627.035	17.88
627.368	17.6
627.7	17.42
628.032	17.56
628.365	17.68
628.697	17.66
629.029	17.4
629.361	17.5
629.693	17.56
630.025	17.7
630.357	17.8
630.689	17.97
631.021	17.53
631.353	17.67
631.684	17.59
632.016	17.76
632.348	17.7
632.679	17.57
633.011	17.71
633.342	18.02
633.674	17.55
634.005	17.74
634.336	18.18
634.668	17.8
634.999	18.12
635.33	17.57
635.661	17.85
635.992	17.98
636.323	17.93
636.654	17.73
636.985	18.16
637.316	18.09
637.647	17.98
637.977	18.06
638.308	18.5
638.639	18.19
638.969	18.13
639.3	18.65
639.63	18.17
639.961	18.36
640.291	18.3
640.622	18.68
640.952	18.58
641.282	18.59
641.612	18.12
641.943	17.91
642.273	17.7
642.603	18.45
642.933	18.24
643.263	18.07
643.592	18.66
643.922	18.59
644.252	18.71
644.582	18.31
644.911	18.59
645.241	18.32
645.571	18.48
645.9	18.43
646.23	18.97
646.559	18.81
646.888	18.45
647.218	18.89
647.547	18.94
647.876	18.9
648.205	18.58
648.534	19.09
648.863	19.05
649.192	18.63
649.521	18.9
649.85	19.17
650.179	18.81
650.508	18.98
650.837	19.05
651.165	19.14
651.494	18.94
651.822	19.08
652.151	19.28
652.479	19.07
652.808	18.53
653.136	19.01
653.465	18.83
653.793	18.72
654.121	18.9
654.449	18.81
654.777	19.01
655.105	19.59
655.433	19.4
655.761	19.12
656.089	19.24
656.417	19.26
656.745	18.98
657.073	18.78
657.4	19.39
657.728	19
658.056	19.19
658.383	19.83
658.711	19.27
659.038	19.67
659.365	19.72
659.693	19.6
660.02	19.64
660.347	19.41
660.674	19.46
661.001	19.02
661.329	19.16
661.656	19.51
661.982	19.16
662.309	19.4
662.636	19.58
662.963	19.15
663.29	19.19
663.616	19.86
663.943	19.54
664.27	19.87
664.596	19.57
664.923	19.45
665.249	20
665.576	19.9
665.902	19.24
666.228	19.25
666.554	19.95
666.881	19.14
667.207	20.25
667.533	19.56
667.859	19.83
668.185	20.09
668.511	20.12
668.837	19.11
669.162	19.94
669.488	20.07
669.814	19.3
670.139	19.93
670.465	20.22
670.791	19.5
671.116	20.01
671.442	20.12
671.767	20.15
672.092	19.85
672.418	20.37
672.743	20.89
673.068	19.99
673.393	20.74
673.718	20.16
674.043	19.97
674.368	20.06
674.693	19.91
675.018	20.62
675.343	20.7
675.667	20.49
675.992	20.36
676.317	20.4
676.641	20.2
676.966	20.4
677.29	19.85
677.615	20.81
677.939	20.49
678.264	20.8
678.588	20.24
678.912	20.79
679.236	20.25
679.56	19.94
679.885	20.63
680.209	20.81
680.532	20.42
680.856	20.38
681.18	19.46
681.504	21.12
681.828	20.45
682.152	20.85
682.475	20.6
682.799	21.08
683.122	20.78
683.446	21.08
683.769	20.83
684.093	20.87
684.416	20.54
684.739	20.87
685.062	21.4
685.386	20.3
685.709	20.73
686.032	21.41
686.355	21.57
686.678	21.16
687.001	21.48
687.324	21.17
687.646	20.86
687.969	20.67
688.292	20.75
688.614	21.3
688.937	21.11
689.26	20.44
689.582	21.34
689.904	21.21
690.227	20.94
690.549	21.46
690.871	21.34
691.194	22.09
691.516	20.98
691.838	21.18
692.16	21.93
692.482	20.76
692.804	20.15
693.126	21.4
693.448	21.14
693.769	21.89
694.091	21.84
694.413	21.32
694.735	21.44
695.056	20.91
695.378	20.93
695.699	21.69
696.021	22.38
696.342	21.82
696.663	21.5
696.984	21.45
697.306	21.31
697.627	21.62
697.948	21.01
698.269	21.66
698.59	21.48
698.911	21.04
699.232	21.64
699.553	22.59
699.873	21.34
700.194	21.75
700.515	21.62
700.835	21.16
701.156	21.04
701.477	21.87
701.797	22.05
702.117	21.43
702.438	21.36
702.758	21.66
703.078	21.64
703.398	22.26
703.719	21.7
704.039	21.78
704.359	21.99
704.679	20.97
704.999	21.53
705.319	22
705.638	21.83
705.958	22.52
706.278	21.46
706.597	22.73
706.917	21.88
707.237	21.51
707.556	22.36
707.876	22.49
708.195	22.01
708.514	22.4
708.834	23.25
709.153	22.64
709.472	22.58
709.791	21.9
710.11	22.86
710.429	23.04
710.748	22.71
711.067	22.55
711.386	22.22
711.705	22.33
712.023	22.97
712.342	22.54
712.661	22.43
712.979	22.28
713.298	22.63
713.616	22.73
713.935	22.16
714.253	23.75
714.572	22.01
714.89	22.36
715.208	22.9
715.526	21.98
715.844	22.69
716.162	22.99
716.48	22.27
716.798	23.2
717.116	23.11
717.434	22.64
717.752	22.95
718.069	21.61
718.387	21.41
718.705	22.75
719.022	23.45
719.34	22.53
719.657	22.06
719.975	23.51
720.292	22.5
720.609	22.23
720.927	23.24
721.244	22
721.561	23.09
721.878	22.41
722.195	23.79
722.512	23.17
722.829	22.96
723.146	21.84
723.463	22.73
723.779	23.71
724.096	23.38
724.413	22.62
724.729	22.82
725.046	22.75
725.362	22.87
725.679	23.28
725.995	23.48
726.311	24.01
726.628	22.81
726.944	23.47
727.26	22.6
727.576	23.84
727.892	23.71
728.208	23.52
728.524	23.35
728.84	22.37
729.156	23.91
729.472	23.94
729.787	22.67
730.103	23.33
730.419	24.11
730.734	23.83
731.05	24
731.365	24.02
731.681	23.49
731.996	24.4
732.311	24
732.626	22.98
732.942	24.78
733.257	23.66
733.572	23.2
733.887	24
734.202	24.3
734.517	24.05
734.832	25.4
735.146	24.45
735.461	23.48
735.776	23.4
736.091	23.62
736.405	24.68
736.72	22.91
737.034	23.37
737.349	24.31
737.663	23.35
737.977	23.71
738.292	24.69
738.606	24.73
738.92	23.8
739.234	23.88
739.548	23.73
739.862	24.2
740.176	22.61
740.49	23.38
740.804	23.23
741.117	23.53
741.431	23.98
741.745	24.71
742.058	23.99
742.372	21.84
742.685	22.77
742.999	23.45
743.312	24.05
743.626	21.87
743.939	25.45
744.252	24.46
744.565	22.42
744.878	23.1
745.191	24.93
745.505	23.98
745.817	24.12
746.13	23.84
746.443	23.62
746.756	25.07
747.069	24.83
747.381	25.19
747.694	24.43
748.007	24.37
748.319	23.32
748.632	23.57
748.944	27.5
749.256	23.02
749.569	24.37
749.881	23.14
750.193	24.05
750.505	22.99
750.817	24.8
751.129	25
751.441	23.34
751.753	24.65
752.065	24.01
752.377	24.79
752.689	24.22
753	24.61
753.312	25.95
753.624	24.55
753.935	25.53
754.247	25.7
754.558	25.02
754.869	22.73
755.181	24.48
755.492	25.09
755.803	25.53
756.114	25.17
756.425	23.73
756.736	26.03
757.047	26.71
757.358	25.43
757.669	25.77
757.98	23.58
758.291	24.23
758.601	24.66
758.912	25.98
759.223	25.62
759.533	25.92
759.844	24.71
760.154	25.08
760.464	25
760.775	27.17
761.085	24.75
761.395	24.26
761.705	24.81
762.016	25.94
762.326	26.01
762.636	24.86
762.945	23.54
763.255	25.03
763.565	26.5
763.875	23.7
764.185	24.68
764.494	25.3
764.804	24.96
765.113	26.73
765.423	26.62
765.732	25.08
766.042	25.69
766.351	25.71
766.66	26
766.97	24.72
767.279	25.49
767.588	25.18
767.897	25.39
768.206	24.68
768.515	25.64
768.824	25.61
769.133	25.6
769.441	24.74
769.75	24.94
770.059	24.57
770.367	24.53
770.676	24.73
770.984	26.7
771.293	26.06
771.601	26.64
771.91	28.03
772.218	25.84
772.526	25
772.834	27.11
773.142	26.54
773.45	24.98
773.758	26.17
774.066	26.68
774.374	29.48
774.682	24.41
774.99	26.55
775.298	29.9
775.605	25.66
775.913	24.71
776.22	26.1
776.528	28.14
776.835	27.42
777.143	23.04
777.45	25.21
777.757	23.78
778.065	25.62
778.372	25.28
778.679	26.65
778.986	25.9
779.293	27.09
779.6	27.43
779.907	29.93
780.214	27.29
780.52	25.1
780.827	29.83
781.134	26.69
781.44	22.65
781.747	24.73
782.053	25.42
782.36	25.49
782.666	24.71
782.973	27.98
783.279	27.63
783.585	27.77
783.891	27.53
784.197	27.25
784.503	23.09
784.809	31.01
785.115	27.42
785.421	28.04
785.727	25.6
786.033	24.62
786.339	27.3
786.644	27.41
786.95	25.61
787.255	24.97
787.561	27.22
787.866	25.18
788.172	29.62
788.477	29.32
788.782	26.32
789.088	28.73
789.393	30.68
789.698	26.1
790.003	31.17
790.308	27.32
790.613	21.79
790.918	26.87
791.223	26.66
791.527	29.42
791.832	27.53
792.137	25.37
792.441	30.14
792.746	27.19
793.05	28.46
793.355	24.54
793.659	26.42
793.963	28.05
794.268	27.58
794.572	28.79
794.876	26.28
795.18	27.44
795.484	26.59
795.788	27.86
796.092	27.96
796.396	30.19
796.7	27.5
797.004	27.71
797.307	27.49
797.611	29.25
797.915	26.8
798.218	24.28
798.522	25.41
798.825	27.01
799.128	17.85
799.432	29.07
799.735	28.06
800.038	25.42
800.341	27.34
800.644	24.1
800.947	29.18
801.25	29.69
801.553	26.48
801.856	26.96
802.159	26.9
802.462	29.09
802.764	26.94
803.067	23.89
803.37	22.95
803.672	29.12
803.975	27.78
804.277	30.03
804.579	27.46
804.882	25.57
805.184	25.53
805.486	24.66
805.788	33.1
806.09	31.41
806.392	25.21
806.694	25.02
806.996	26.2
807.298	25.12
807.6	29.23
807.902	27.56
808.203	22.73
808.505	25.19
808.807	24.87
809.108	29.44
809.409	30.13
809.711	24.7
810.012	30.94
810.313	28.42
810.615	26.05
810.916	25.61
811.217	29.85
811.518	27.89
811.819	26.61
812.12	30.31
812.421	31.3
812.722	31.46
813.023	24.99
813.323	30.02
813.624	25.44
813.925	29.02
814.225	30.83
814.526	36.64
814.826	25.15
815.126	24.82
815.427	25.58
815.727	28.06
816.027	16.53
816.327	26.32
816.627	26.23
816.927	23.45
817.227	35.03
817.527	23.35
817.827	28.85
818.127	30.61
818.427	38.64
818.727	28.97
819.026	25.26
819.326	28.85
819.625	21.99
819.925	27.16
820.224	30.11
820.524	33.59
820.823	33.16
821.122	28.32
821.421	33.09
821.72	31.36
822.019	29.38
822.318	32.26
822.617	25.31
822.916	28.01
823.215	30.95
823.514	28.27
823.813	27.5
824.111	31.05
824.41	27.01
824.709	30.19
825.007	30.02
825.306	28.46
825.604	29.75
825.902	29.4
826.201	30.41
826.499	31.15
826.797	29.3
827.095	30.58
827.393	28.88
827.691	31.75
827.989	29.15
828.287	30.01
828.585	30
828.882	29.18
829.18	29.05
829.478	28.9
829.775	29.35
830.073	28.97
830.37	30.35
830.668	27.29
830.965	28.34
831.263	29.74
831.56	28.5
831.857	28.56
832.154	33.12
832.451	32.43
832.748	30.89
833.045	32.75
833.342	32.83
833.639	34.09
833.936	29
834.232	31.8
834.529	34.69
834.826	29.51
835.122	27.98
835.419	31.17
835.715	25.27
836.012	32
836.308	25
836.604	31.04
836.901	28.72
837.197	28.95
837.493	25.97
837.789	26.67
838.085	27.72
838.381	33.29
838.677	30.07
838.972	31.42
839.268	33.34
839.564	27.58
839.86	28.93
840.155	36.19
840.451	29.38
840.746	34.76
841.042	34.01
841.337	34.66
841.632	29.49
841.928	21.33
842.223	29.44
842.518	29.91
842.813	30.72
843.108	33.34
843.403	24.51
843.698	22.87
843.993	30.54
844.287	28.53
844.582	28.66
844.877	26.33
845.171	27.48
845.466	20.08
845.761	25.5
846.055	22.96
846.349	26.8
846.644	23.27
846.938	30.45
847.232	19.96
847.526	20.4
847.82	25.08
848.114	41.07
848.408	24.9
848.702	26.01
848.996	20.65
849.29	36.16
849.584	26.46
849.877	20.8
850.171	32.9
850.465	26.49
850.758	13.57
851.052	40.63
851.345	17.27
851.638	-0.18
851.932	51.18
852.225	32.82
852.518	16.71
852.811	41.76
853.104	32.22
853.397	14.54
853.69	16.88
853.983	63.11
854.276	43.82
854.569	31.45
854.861	31.48
855.154	36.07
855.447	-3.58
855.739	30.27
856.032	47.66
856.324	32.92
856.616	28.6
856.909	40.88
857.201	26.24
857.493	44.72
857.785	37.24
858.077	36.29
858.369	25.37
858.661	25.82
858.953	3.96
859.245	25.77
859.537	17.16
859.829	59.71
860.12	27.06
860.412	14.93
860.703	11.11
860.995	3.65
861.286	48.55
861.578	38.47
861.869	30.96
862.16	26.87
862.452	-2.1
862.743	59.72
863.034	43.66
863.325	31.22
863.616	26.14
863.907	25.07
864.198	21.55
864.488	10.51
864.779	34.96
865.07	39.91
865.36	31.15
865.651	20.67
865.941	10.11
866.232	36.37
866.522	38.12
866.813	48.68
867.103	45.31
867.393	28.96
867.683	12.21
867.973	37.58
868.263	26.27
868.553	32.37
868.843	41.19
869.133	48.67
869.423	45.83
869.713	28.92
870.002	46.01
870.292	23.25
870.582	21.28
870.871	10.87
871.161	54.66
871.45	45.01
871.739	27.89
872.029	27.59
872.318	13.95
872.607	-2.06
872.896	40.74
873.185	45.42
873.474	28.79
873.763	13.93
874.052	5.57
874.341	26.1
874.63	28.13
874.918	34.96
875.207	24.55
875.496	31.61
875.784	56.49
876.073	24.16
876.361	45.29
876.649	18.15
876.938	18.05
877.226	47.47
877.514	56.31
877.802	65.73
878.09	13.54
878.378	34.76
878.666	15.95
878.954	70.43
879.242	10.88
879.53	7.41
879.817	43.27
880.105	23.11
880.392	13.67
880.68	-7.33
880.967	36.22
881.255	19.73
881.542	16.18
881.83	34.42
882.117	44.08
882.404	18.86
882.691	21.04
882.978	25.43
883.265	9.85
883.552	12.37
883.839	28.22
884.126	42.26
884.413	35.22
884.699	27.41
884.986	42.91
885.273	30.04
885.559	30.04
885.846	30.04
