Data from 0033_chest_Reflection__3__170.txt Node

Date: Thu Oct 20 22:15:50 CDT 2022
User: ToomeyLab
Spectrometer: FLMS14357
Trigger mode: 0
Integration Time (sec): 1.000000E-2
Scans to average: 100
Electric dark correction enabled: true
Nonlinearity correction enabled: false
Boxcar width: 0
XAxis mode: Wavelengths
Number of Pixels in Spectrum: 2048
>>>>>Begin Spectral Data<<<<<
189.047	782.93
189.435	782.93
189.823	782.93
190.211	45.59
190.599	353.44
190.987	-13.98
191.375	-820.27
191.763	1187.16
192.151	47.25
192.538	-215.79
192.926	440.16
193.314	25.77
193.702	849.81
194.089	143.09
194.477	-60.83
194.864	-89.6
195.252	119.64
195.639	-291.34
196.027	-7.77
196.414	76.34
196.801	20.26
197.189	-9.52
197.576	-1409.89
197.963	368.74
198.351	-22.62
198.738	-40.26
199.125	18.46
199.512	9.07
199.899	-0.34
200.286	2.44
200.673	-1.76
201.06	26.52
201.447	49.73
201.833	-20.65
202.22	-0.14
202.607	-27.13
202.994	-9.75
203.38	-62.84
203.767	8.9
204.154	-21.52
204.54	-20.93
204.927	-21.4
205.313	14.15
205.699	-3.63
206.086	-6.79
206.472	26.69
206.858	-7.95
207.245	22.6
207.631	-14.33
208.017	26.18
208.403	-75
208.789	-26.25
209.175	13.33
209.561	3.8
209.947	7.98
210.333	-18.54
210.719	13.15
211.105	18.21
211.491	-51.78
211.876	-47.71
212.262	14.01
212.648	14.47
213.034	9.18
213.419	14.1
213.805	-23.88
214.19	-3.33
214.576	-59.86
214.961	-28.88
215.346	-55.63
215.732	22.92
216.117	-46.84
216.502	11.51
216.888	-1.65
217.273	2.23
217.658	15.89
218.043	-11.2
218.428	7.57
218.813	23.89
219.198	-5.14
219.583	2.05
219.968	17.23
220.353	6.03
220.738	-12.06
221.122	-6.3
221.507	17.93
221.892	-5.9
222.276	9.76
222.661	1.37
223.046	17.78
223.43	-2.41
223.815	-5.58
224.199	-0.78
224.583	1.46
224.968	10.8
225.352	17.15
225.736	3.78
226.121	-7.03
226.505	8.74
226.889	4.54
227.273	-2.68
227.657	8.11
228.041	-0.35
228.425	5.85
228.809	7.88
229.193	5.67
229.577	4.32
229.961	4.67
230.344	5
230.728	4.53
231.112	5.24
231.495	4
231.879	6.82
232.263	5.99
232.646	4.68
233.03	4.15
233.413	4.39
233.797	4.64
234.18	4.21
234.563	6
234.946	5.16
235.33	4.45
235.713	4.49
236.096	3.08
236.479	5.9
236.862	5.92
237.245	3.39
237.628	3.65
238.011	5.34
238.394	6.8
238.777	7.55
239.16	3.89
239.543	3.66
239.925	3.94
240.308	3.96
240.691	5.53
241.073	4.57
241.456	3.91
241.838	4.76
242.221	3.72
242.603	4.27
242.986	4.97
243.368	4.56
243.75	5.09
244.133	4.96
244.515	4.37
244.897	3.97
245.279	3.63
245.661	5.55
246.043	4.47
246.425	5.03
246.807	6.05
247.189	4.93
247.571	4.64
247.953	4.43
248.335	4.63
248.717	4.42
249.098	4.11
249.48	4.17
249.862	4.27
250.243	4.05
250.625	4.7
251.006	4.7
251.388	4.55
251.769	4.23
252.151	4.65
252.532	3.96
252.913	4.52
253.295	4.08
253.676	4.54
254.057	3.64
254.438	4.52
254.819	4.05
255.2	4.12
255.581	4.53
255.962	4.73
256.343	4.06
256.724	4.08
257.105	4.16
257.486	4.33
257.867	5.12
258.247	4.04
258.628	3.99
259.009	3.47
259.389	3.9
259.77	3.66
260.15	4.18
260.531	4.2
260.911	4.01
261.292	4.51
261.672	4.05
262.052	4.21
262.432	4.28
262.813	3.98
263.193	4.45
263.573	4.02
263.953	4.45
264.333	3.79
264.713	4.68
265.093	3.98
265.473	4.44
265.853	3.93
266.233	4.08
266.612	4.41
266.992	3.75
267.372	4.28
267.752	4.29
268.131	4.41
268.511	3.84
268.89	4.35
269.27	3.78
269.649	3.64
270.029	3.89
270.408	3.35
270.787	4
271.167	3.78
271.546	3.58
271.925	4.24
272.304	4.26
272.683	3.76
273.062	3.65
273.441	3.86
273.82	4.26
274.199	3.51
274.578	3.54
274.957	3.79
275.336	3.97
275.715	4.27
276.093	4.14
276.472	3.94
276.851	4.42
277.229	3.27
277.608	3.74
277.986	4.05
278.365	3.29
278.743	3.44
279.122	3.88
279.5	4.36
279.878	4.05
280.257	3.87
280.635	4.04
281.013	3.65
281.391	4.04
281.769	3.98
282.147	3.37
282.525	3.68
282.903	3.72
283.281	3.54
283.659	3.57
284.037	3.29
284.415	3.58
284.792	3.77
285.17	3.91
285.548	3.62
285.925	3.76
286.303	3.71
286.68	4.02
287.058	4.08
287.435	3.66
287.813	3.51
288.19	3.78
288.567	3.81
288.945	3.74
289.322	3.51
289.699	3.43
290.076	3.95
290.453	3.68
290.83	3.81
291.207	3.94
291.584	3.78
291.961	3.64
292.338	3.41
292.715	3.79
293.092	4.01
293.469	3.5
293.845	3.71
294.222	3.35
294.599	4.09
294.975	3.44
295.352	3.63
295.728	3.37
296.105	3.91
296.481	3.46
296.858	3.76
297.234	3.71
297.61	3.88
297.986	3.41
298.363	3.56
298.739	3.65
299.115	3.56
299.491	3.7
299.867	3.49
300.243	3.59
300.619	3.66
300.995	3.74
301.371	3.74
301.746	3.41
302.122	3.95
302.498	3.6
302.874	4.08
303.249	3.75
303.625	3.79
304	4.38
304.376	3.61
304.751	4.03
305.127	3.37
305.502	3.74
305.878	3.72
306.253	3.08
306.628	3.36
307.003	3.71
307.378	2.97
307.754	3.81
308.129	3.22
308.504	3.35
308.879	3.62
309.254	3.61
309.629	3.54
310.003	3.1
310.378	3.41
310.753	3.43
311.128	3.76
311.502	3.58
311.877	3.66
312.252	3.37
312.626	3.51
313.001	3.67
313.375	3.79
313.75	3.37
314.124	3.05
314.498	3.44
314.873	3.13
315.247	3.44
315.621	3.89
315.995	3.11
316.369	3.7
316.743	3.21
317.117	3.36
317.491	4.21
317.865	3.53
318.239	3.68
318.613	3.95
318.987	3.39
319.361	3.22
319.734	3.1
320.108	3.42
320.482	3.41
320.855	3.76
321.229	3.9
321.602	3.11
321.976	3.3
322.349	3.92
322.723	3.96
323.096	3.25
323.469	3.36
323.843	4.33
324.216	3.3
324.589	4.08
324.962	3.78
325.335	3.84
325.708	3.79
326.081	3.72
326.454	3.57
326.827	3.28
327.2	4.04
327.573	3.76
327.945	3.59
328.318	3.28
328.691	3.94
329.063	3.64
329.436	3.73
329.809	3.81
330.181	3.25
330.553	3.32
330.926	3.83
331.298	3.03
331.671	3.6
332.043	4.21
332.415	3.42
332.787	4.07
333.159	3.5
333.532	3.83
333.904	3.51
334.276	3.69
334.648	3.44
335.02	3.7
335.391	3.4
335.763	3.14
336.135	3.64
336.507	2.98
336.879	4.2
337.25	3.54
337.622	3.66
337.993	3.27
338.365	4.12
338.736	3.94
339.108	3.46
339.479	3.37
339.851	3.29
340.222	3.26
340.593	3.22
340.964	3.84
341.336	3.9
341.707	3.34
342.078	3.66
342.449	3.15
342.82	3.81
343.191	3.39
343.562	3.34
343.933	3.56
344.303	3.45
344.674	3.48
345.045	3.66
345.416	3.6
345.786	3.46
346.157	3.62
346.527	3.28
346.898	3.68
347.268	3.87
347.639	3.78
348.009	3.85
348.38	4
348.75	3.42
349.12	3.78
349.49	3.79
349.861	3.96
350.231	3.79
350.601	3.93
350.971	3.95
351.341	3.92
351.711	3.75
352.081	3.56
352.45	3.73
352.82	3.36
353.19	3.62
353.56	3.56
353.929	3.13
354.299	3.9
354.669	3.66
355.038	3.94
355.408	3.33
355.777	3.9
356.147	3.88
356.516	3.52
356.885	3.72
357.254	3.88
357.624	3.71
357.993	3.66
358.362	3.75
358.731	3.68
359.1	3.75
359.469	4.13
359.838	3.71
360.207	4.3
360.576	3.6
360.945	3.74
361.314	3.58
361.682	3.66
362.051	3.49
362.42	3.57
362.788	3.86
363.157	3.71
363.525	3.84
363.894	3.46
364.262	3.57
364.631	3.34
364.999	3.55
365.367	3.77
365.735	3.89
366.104	3.43
366.472	3.5
366.84	3.8
367.208	3.69
367.576	3.8
367.944	3.99
368.312	3.7
368.68	3.6
369.048	3.61
369.416	3.65
369.783	3.69
370.151	3.94
370.519	3.68
370.886	3.49
371.254	4.1
371.621	3.64
371.989	3.97
372.356	3.5
372.724	4.03
373.091	3.87
373.458	3.52
373.826	3.73
374.193	3.8
374.56	3.49
374.927	3.55
375.294	3.74
375.661	4.12
376.028	3.67
376.395	4.1
376.762	3.6
377.129	3.49
377.496	3.51
377.863	3.68
378.229	3.83
378.596	3.98
378.963	3.83
379.329	3.85
379.696	3.48
380.062	3.75
380.429	3.85
380.795	3.72
381.161	4.05
381.528	3.95
381.894	3.8
382.26	3.73
382.626	3.91
382.993	3.51
383.359	3.71
383.725	3.64
384.091	3.8
384.457	3.61
384.823	3.82
385.188	3.67
385.554	3.36
385.92	3.68
386.286	3.55
386.651	3.5
387.017	3.64
387.383	3.86
387.748	3.91
388.114	3.69
388.479	3.64
388.845	3.85
389.21	3.82
389.575	3.71
389.94	3.96
390.306	3.92
390.671	3.86
391.036	3.76
391.401	3.51
391.766	4.16
392.131	3.82
392.496	3.64
392.861	3.79
393.226	3.75
393.591	3.82
393.956	3.64
394.32	4.13
394.685	3.99
395.05	3.65
395.414	3.82
395.779	3.51
396.143	3.8
396.508	3.7
396.872	4.08
397.236	3.64
397.601	3.97
397.965	3.96
398.329	3.81
398.694	3.81
399.058	3.48
399.422	3.95
399.786	3.56
400.15	3.69
400.514	4.07
400.878	3.63
401.242	3.73
401.605	4.06
401.969	3.89
402.333	3.97
402.697	4.19
403.06	3.91
403.424	3.8
403.787	3.96
404.151	3.49
404.514	3.53
404.878	3.81
405.241	3.7
405.604	3.85
405.968	3.83
406.331	3.89
406.694	3.71
407.057	3.79
407.42	3.86
407.783	3.65
408.146	3.84
408.509	3.87
408.872	4.01
409.235	3.72
409.598	3.9
409.961	3.88
410.323	4.2
410.686	3.7
411.049	3.66
411.411	3.66
411.774	3.69
412.136	3.87
412.499	3.92
412.861	3.83
413.223	3.89
413.586	3.72
413.948	3.85
414.31	3.63
414.672	4.04
415.035	3.81
415.397	4.03
415.759	4.08
416.121	3.95
416.483	3.86
416.845	4.03
417.206	3.8
417.568	3.89
417.93	3.7
418.292	3.95
418.653	3.79
419.015	3.83
419.377	3.85
419.738	3.78
420.1	3.82
420.461	3.9
420.822	3.87
421.184	3.7
421.545	3.98
421.906	3.83
422.267	3.8
422.629	3.83
422.99	3.81
423.351	3.75
423.712	3.76
424.073	3.71
424.434	3.78
424.795	3.74
425.155	3.84
425.516	3.82
425.877	3.69
426.238	3.84
426.598	3.73
426.959	3.8
427.32	3.89
427.68	3.89
428.041	3.69
428.401	3.89
428.761	3.91
429.122	3.86
429.482	3.67
429.842	3.8
430.202	3.91
430.563	3.96
430.923	3.86
431.283	3.76
431.643	3.82
432.003	3.96
432.363	4.08
432.722	4.18
433.082	3.93
433.442	3.87
433.802	3.77
434.161	3.95
434.521	3.85
434.881	3.86
435.24	3.82
435.6	3.84
435.959	3.86
436.319	3.99
436.678	3.78
437.037	3.87
437.396	3.94
437.756	4.03
438.115	3.9
438.474	3.84
438.833	3.95
439.192	3.86
439.551	3.78
439.91	3.84
440.269	3.83
440.628	3.87
440.987	3.83
441.345	3.98
441.704	3.83
442.063	4.03
442.421	3.81
442.78	3.79
443.138	3.9
443.497	3.87
443.855	3.77
444.214	3.87
444.572	3.92
444.93	3.74
445.288	3.81
445.647	3.91
446.005	3.89
446.363	3.85
446.721	3.89
447.079	3.88
447.437	3.73
447.795	3.79
448.153	3.75
448.51	3.8
448.868	3.84
449.226	3.83
449.584	3.77
449.941	3.82
450.299	3.92
450.656	3.8
451.014	3.91
451.371	3.9
451.729	3.89
452.086	4.04
452.443	3.83
452.801	3.88
453.158	3.9
453.515	3.99
453.872	3.87
454.229	3.74
454.586	3.91
454.943	3.9
455.3	3.96
455.657	3.9
456.014	3.92
456.371	3.82
456.727	3.91
457.084	3.8
457.441	3.94
457.797	3.91
458.154	4.04
458.51	3.86
458.867	4.01
459.223	4.18
459.58	4
459.936	3.96
460.292	3.96
460.648	3.82
461.005	3.82
461.361	3.86
461.717	3.93
462.073	3.89
462.429	3.88
462.785	3.99
463.141	3.98
463.496	4.05
463.852	3.89
464.208	4.1
464.564	3.98
464.919	3.97
465.275	4.03
465.631	3.96
465.986	3.93
466.342	3.91
466.697	3.96
467.052	3.95
467.408	3.96
467.763	3.91
468.118	4.16
468.473	4.13
468.829	4.07
469.184	4.01
469.539	3.94
469.894	4
470.249	4.08
470.603	3.8
470.958	3.98
471.313	3.83
471.668	3.93
472.023	4.09
472.377	3.87
472.732	3.97
473.086	4
473.441	4.01
473.795	4.07
474.15	3.99
474.504	3.91
474.859	4.07
475.213	4.18
475.567	4.07
475.921	3.98
476.275	4.18
476.63	4.17
476.984	4
477.338	3.91
477.692	3.98
478.045	4.02
478.399	4.12
478.753	3.98
479.107	3.87
479.461	3.88
479.814	4.01
480.168	4.21
480.521	3.97
480.875	4.06
481.228	3.94
481.582	3.98
481.935	3.93
482.289	3.99
482.642	3.85
482.995	4.02
483.348	4
483.701	3.96
484.055	3.87
484.408	3.84
484.761	3.88
485.114	3.78
485.466	3.75
485.819	3.77
486.172	3.76
486.525	3.77
486.878	3.83
487.23	3.85
487.583	3.92
487.936	3.93
488.288	3.9
488.641	3.84
488.993	3.84
489.345	3.83
489.698	3.78
490.05	3.78
490.402	3.87
490.754	3.87
491.107	3.79
491.459	4.01
491.811	4
492.163	3.88
492.515	3.93
492.866	3.84
493.218	3.83
493.57	3.83
493.922	3.86
494.274	3.87
494.625	3.89
494.977	4.04
495.328	3.92
495.68	3.94
496.031	4.07
496.383	4
496.734	3.91
497.086	4.05
497.437	4.06
497.788	4.1
498.139	4.01
498.49	4.02
498.842	3.86
499.193	3.91
499.544	3.98
499.894	4.1
500.245	4.08
500.596	4.1
500.947	3.99
501.298	4.13
501.648	4.05
501.999	4
502.35	4.18
502.7	4.09
503.051	4.12
503.401	4.11
503.752	4.17
504.102	4.06
504.452	4.15
504.803	3.98
505.153	4.11
505.503	4.16
505.853	3.92
506.203	4.1
506.553	4.18
506.903	4.04
507.253	4.12
507.603	4.14
507.953	4.09
508.303	4.13
508.652	4.16
509.002	4.12
509.352	4.08
509.701	4.19
510.051	4.03
510.4	4.04
510.75	4.03
511.099	4.01
511.449	4.12
511.798	4.11
512.147	4.14
512.496	4.15
512.846	4.2
513.195	4.23
513.544	4.24
513.893	4.26
514.242	4.12
514.591	4.23
514.939	4.2
515.288	4.09
515.637	4.19
515.986	4.15
516.334	4.13
516.683	4.18
517.032	4.09
517.38	4.19
517.729	4.21
518.077	4.14
518.426	4.28
518.774	4.21
519.122	4.26
519.47	4.15
519.819	4.14
520.167	4.11
520.515	4.05
520.863	4.09
521.211	4.05
521.559	4.21
521.907	4.1
522.255	4.2
522.602	4.17
522.95	4.26
523.298	4.17
523.645	4.28
523.993	4.26
524.341	4.38
524.688	4.22
525.036	4.27
525.383	4.42
525.73	4.18
526.078	4.33
526.425	4.3
526.772	4.19
527.119	4.15
527.466	4.28
527.814	4.24
528.161	4.2
528.508	4.2
528.854	4.29
529.201	4.25
529.548	4.14
529.895	4.12
530.242	4.12
530.588	4.1
530.935	4.07
531.282	4.08
531.628	4.13
531.975	4.22
532.321	4.26
532.667	4.14
533.014	4.26
533.36	4.33
533.706	4.25
534.052	4.25
534.399	4.29
534.745	4.26
535.091	4.25
535.437	4.27
535.783	4.26
536.129	4.23
536.474	4.4
536.82	4.33
537.166	4.31
537.512	4.38
537.857	4.38
538.203	4.31
538.549	4.28
538.894	4.4
539.239	4.42
539.585	4.45
539.93	4.33
540.276	4.56
540.621	4.47
540.966	4.49
541.311	4.48
541.656	4.46
542.001	4.4
542.346	4.4
542.691	4.3
543.036	4.33
543.381	4.33
543.726	4.35
544.071	4.34
544.415	4.4
544.76	4.36
545.105	4.5
545.449	4.5
545.794	4.45
546.138	4.6
546.483	4.57
546.827	4.58
547.171	4.6
547.516	4.65
547.86	4.55
548.204	4.59
548.548	4.64
548.892	4.55
549.236	4.65
549.58	4.57
549.924	4.71
550.268	4.75
550.612	4.87
550.956	4.65
551.3	4.78
551.643	4.76
551.987	4.91
552.33	4.62
552.674	4.69
553.017	4.84
553.361	4.74
553.704	4.83
554.048	4.92
554.391	4.89
554.734	4.81
555.077	4.66
555.42	4.96
555.764	4.8
556.107	4.79
556.45	4.82
556.793	4.91
557.135	4.8
557.478	4.81
557.821	4.86
558.164	4.95
558.507	4.92
558.849	5
559.192	5.11
559.534	5.07
559.877	5.1
560.219	4.96
560.562	4.99
560.904	4.94
561.246	5.07
561.589	5.16
561.931	4.81
562.273	5.11
562.615	5.2
562.957	4.91
563.299	4.97
563.641	4.96
563.983	5.41
564.325	5.09
564.667	5.09
565.008	5.15
565.35	5.21
565.692	5.07
566.033	5
566.375	5.11
566.716	5.24
567.058	5.14
567.399	5.39
567.741	5.18
568.082	5.16
568.423	5.38
568.764	5.1
569.105	5.23
569.447	5.38
569.788	5.34
570.129	5.43
570.47	5.35
570.811	5.15
571.151	5.33
571.492	5.23
571.833	5.5
572.174	5.32
572.514	5.47
572.855	5.53
573.195	5.36
573.536	5.39
573.876	5.26
574.217	5.39
574.557	5.41
574.898	5.37
575.238	5.67
575.578	5.4
575.918	5.57
576.258	5.48
576.598	5.57
576.938	5.42
577.278	5.52
577.618	5.59
577.958	5.64
578.298	5.65
578.638	5.68
578.977	5.83
579.317	5.72
579.657	5.46
579.996	5.8
580.336	5.89
580.675	6.1
581.014	5.66
581.354	5.84
581.693	5.95
582.032	5.84
582.372	5.99
582.711	5.69
583.05	5.87
583.389	5.9
583.728	6.02
584.067	6.07
584.406	6.03
584.745	5.94
585.083	5.82
585.422	5.97
585.761	6.29
586.1	6.08
586.438	6.41
586.777	6.12
587.115	6.04
587.454	6.35
587.792	6.04
588.13	6.33
588.469	6.45
588.807	6.15
589.145	6.1
589.483	6.17
589.821	6.13
590.159	6.23
590.497	6.33
590.835	6.24
591.173	6.26
591.511	6.04
591.849	6.39
592.187	6.07
592.524	6.4
592.862	6.54
593.2	6.47
593.537	6.41
593.875	6.31
594.212	6.34
594.55	6.38
594.887	6.46
595.224	6.57
595.561	6.7
595.899	6.66
596.236	6.62
596.573	6.76
596.91	6.56
597.247	6.46
597.584	6.47
597.921	6.48
598.258	6.62
598.594	6.66
598.931	6.67
599.268	6.59
599.604	6.42
599.941	6.81
600.277	6.67
600.614	6.7
600.95	6.92
601.287	6.7
601.623	6.69
601.959	6.82
602.296	6.78
602.632	6.95
602.968	6.99
603.304	6.94
603.64	7.03
603.976	6.87
604.312	7
604.648	7.04
604.984	6.89
605.319	6.9
605.655	7
605.991	6.82
606.326	7.07
606.662	7.08
606.998	7.09
607.333	7.08
607.668	6.99
608.004	7.17
608.339	7.04
608.674	7.43
609.01	7.2
609.345	7.22
609.68	7.1
610.015	7.41
610.35	7.41
610.685	7.41
611.02	7.28
611.355	7.16
611.689	7.32
612.024	7.41
612.359	7.27
612.694	7.27
613.028	7.39
613.363	7.33
613.697	7.4
614.032	7.61
614.366	7.72
614.7	7.66
615.035	7.62
615.369	7.65
615.703	7.63
616.037	7.83
616.371	7.66
616.705	7.53
617.039	7.6
617.373	7.67
617.707	7.81
618.041	7.74
618.375	7.9
618.709	7.76
619.042	7.89
619.376	7.58
619.71	7.78
620.043	7.86
620.377	8.07
620.71	8.01
621.043	8.22
621.377	7.82
621.71	7.82
622.043	8.29
622.376	8.31
622.709	8.57
623.043	8.08
623.376	8.37
623.709	8.07
624.041	8.45
624.374	8.23
624.707	8.06
625.04	8.5
625.373	8.66
625.705	8.4
626.038	8.49
626.37	8.25
626.703	8.38
627.035	8.3
627.368	8.8
627.7	8.33
628.032	8.48
628.365	8.57
628.697	8.48
629.029	8.87
629.361	8.72
629.693	8.77
630.025	8.76
630.357	8.65
630.689	8.66
631.021	8.63
631.353	8.8
631.684	8.43
632.016	8.7
632.348	8.85
632.679	8.49
633.011	9.08
633.342	8.94
633.674	9.17
634.005	9.11
634.336	8.86
634.668	8.8
634.999	9.21
635.33	9.2
635.661	9.16
635.992	9.11
636.323	9.48
636.654	9
636.985	9.25
637.316	9.22
637.647	9.13
637.977	9.74
638.308	9.29
638.639	9.44
638.969	9.32
639.3	9.21
639.63	9.14
639.961	9.31
640.291	9.1
640.622	9.49
640.952	9.38
641.282	9.73
641.612	9.54
641.943	9.3
642.273	9.7
642.603	9.43
642.933	9.69
643.263	9.45
643.592	9.7
643.922	9.38
644.252	9.83
644.582	9.62
644.911	9.9
645.241	9.71
645.571	9.82
645.9	9.99
646.23	9.71
646.559	9.74
646.888	10.07
647.218	9.51
647.547	9.97
647.876	9.44
648.205	10.1
648.534	9.69
648.863	10.06
649.192	10.16
649.521	10.15
649.85	10.2
650.179	10.11
650.508	9.95
650.837	10.03
651.165	9.95
651.494	10.55
651.822	10.48
652.151	10.5
652.479	10.16
652.808	9.8
653.136	10.09
653.465	10.28
653.793	10.44
654.121	10.5
654.449	10.44
654.777	10.2
655.105	10.64
655.433	10.42
655.761	10.56
656.089	10.22
656.417	10.75
656.745	10.87
657.073	10.48
657.4	11.19
657.728	10.42
658.056	11.16
658.383	10.82
658.711	11.02
659.038	10.94
659.365	10.39
659.693	11.09
660.02	10.75
660.347	11.13
660.674	10.9
661.001	10.95
661.329	11.14
661.656	11.01
661.982	10.95
662.309	10.97
662.636	11.16
662.963	10.87
663.29	10.93
663.616	10.76
663.943	11.38
664.27	11.73
664.596	11.39
664.923	11.02
665.249	11.31
665.576	11.68
665.902	11.19
666.228	11.16
666.554	11.46
666.881	10.98
667.207	11.65
667.533	11.6
667.859	11.45
668.185	11.95
668.511	11.89
668.837	11.5
669.162	11.97
669.488	11.69
669.814	11.42
670.139	11.98
670.465	11.24
670.791	12.21
671.116	12.22
671.442	11.48
671.767	11.99
672.092	12.22
672.418	11.83
672.743	11.75
673.068	11.48
673.393	11.49
673.718	12.07
674.043	11.71
674.368	11.54
674.693	12.24
675.018	12.07
675.343	11.48
675.667	12.16
675.992	12.27
676.317	12.22
676.641	12.57
676.966	12.26
677.29	11.89
677.615	12.8
677.939	11.97
678.264	12.27
678.588	12.46
678.912	12.4
679.236	13.19
679.56	12.22
679.885	12.79
680.209	12.4
680.532	12.82
680.856	12.42
681.18	12.65
681.504	12.25
681.828	12.48
682.152	13.34
682.475	12.82
682.799	13.6
683.122	12.89
683.446	12.11
683.769	12.93
684.093	12.6
684.416	12.28
684.739	12.51
685.062	12.7
685.386	13.09
685.709	12.45
686.032	13.25
686.355	13.29
686.678	12.7
687.001	12.84
687.324	13.25
687.646	12.61
687.969	12.77
688.292	12.91
688.614	13.34
688.937	13.4
689.26	13.24
689.582	13.28
689.904	13.08
690.227	13.04
690.549	13.38
690.871	13.01
691.194	13.87
691.516	12.74
691.838	13.49
692.16	13.64
692.482	13.47
692.804	13.08
693.126	14.06
693.448	13.3
693.769	14.02
694.091	13.98
694.413	13.34
694.735	13.96
695.056	13.67
695.378	13.66
695.699	13.19
696.021	14.08
696.342	13.11
696.663	14.28
696.984	13.83
697.306	14.84
697.627	14.28
697.948	14.06
698.269	14.35
698.59	13.51
698.911	13.73
699.232	14.63
699.553	14.25
699.873	13.99
700.194	14.07
700.515	13.87
700.835	14.17
701.156	14.81
701.477	14.26
701.797	13.99
702.117	13.93
702.438	13.97
702.758	14.16
703.078	14.08
703.398	14.71
703.719	13.88
704.039	15.5
704.359	15.34
704.679	14.56
704.999	14.93
705.319	14.89
705.638	14.23
705.958	14.45
706.278	14.48
706.597	14.7
706.917	14.89
707.237	14.1
707.556	15.13
707.876	14.29
708.195	14.63
708.514	14.62
708.834	14.76
709.153	14.71
709.472	15.24
709.791	14.56
710.11	14.33
710.429	15.84
710.748	15.4
711.067	14.87
711.386	15.01
711.705	15.31
712.023	15.44
712.342	15.14
712.661	15.31
712.979	16.26
713.298	15.11
713.616	15.17
713.935	15.39
714.253	15.21
714.572	15.62
714.89	15.75
715.208	16.06
715.526	14.89
715.844	15.71
716.162	15.71
716.48	14.99
716.798	15.86
717.116	16.24
717.434	15.94
717.752	15.75
718.069	16.01
718.387	15.85
718.705	15.79
719.022	14.91
719.34	16.41
719.657	15.85
719.975	15.72
720.292	14.96
720.609	16.32
720.927	16.57
721.244	15.96
721.561	16.39
721.878	16.68
722.195	16.14
722.512	16.14
722.829	16.95
723.146	15.51
723.463	15.99
723.779	15.78
724.096	17.04
724.413	16.38
724.729	15.54
725.046	17.31
725.362	16.96
725.679	16.36
725.995	15.92
726.311	16.17
726.628	17.61
726.944	16.16
727.26	16.23
727.576	17.38
727.892	15.73
728.208	15.51
728.524	17.6
728.84	15.24
729.156	18.01
729.472	16
729.787	17.2
730.103	16.95
730.419	17.37
730.734	17.42
731.05	17.06
731.365	16.69
731.681	16.64
731.996	17.04
732.311	15.7
732.626	16.78
732.942	16.94
733.257	16.44
733.572	17.14
733.887	17.35
734.202	17.15
734.517	16.95
734.832	16.71
735.146	16.49
735.461	15.84
735.776	17.69
736.091	17.2
736.405	15.75
736.72	17.52
737.034	18
737.349	19.15
737.663	17.2
737.977	17.94
738.292	17.61
738.606	17.27
738.92	17.71
739.234	17.06
739.548	18.4
739.862	16.94
740.176	18.05
740.49	17.69
740.804	17.11
741.117	18.1
741.431	17.28
741.745	18.19
742.058	19.71
742.372	16.62
742.685	17.02
742.999	17.04
743.312	19.29
743.626	17.91
743.939	17.89
744.252	18.05
744.565	19.83
744.878	19.55
745.191	17.91
745.505	21.08
745.817	17.74
746.13	19.45
746.443	18.78
746.756	18.15
747.069	19.8
747.381	18.38
747.694	17.93
748.007	18.51
748.319	18.21
748.632	18.89
748.944	19.6
749.256	17.84
749.569	19.56
749.881	19.24
750.193	19.78
750.505	18.28
750.817	21.16
751.129	18.55
751.441	19
751.753	18.79
752.065	17.72
752.377	19.4
752.689	21.07
753	20.32
753.312	20.21
753.624	18.7
753.935	18.08
754.247	18.48
754.558	21.88
754.869	19.05
755.181	19.58
755.492	18.9
755.803	18.14
756.114	19.36
756.425	19.28
756.736	18.2
757.047	20.08
757.358	20.21
757.669	22.14
757.98	20.74
758.291	19.92
758.601	20.59
758.912	18.85
759.223	18.99
759.533	19.48
759.844	19.82
760.154	21.13
760.464	17.94
760.775	19.95
761.085	20.01
761.395	21.11
761.705	19.48
762.016	18.67
762.326	19.63
762.636	20.64
762.945	19.86
763.255	20.11
763.565	20.06
763.875	19.91
764.185	20.53
764.494	21.95
764.804	20.75
765.113	20.59
765.423	20.17
765.732	20.84
766.042	21.03
766.351	19.98
766.66	20.51
766.97	19.9
767.279	20.12
767.588	19.79
767.897	18.92
768.206	20.48
768.515	19.73
768.824	20.96
769.133	20.7
769.441	20.91
769.75	21.03
770.059	19.43
770.367	20.72
770.676	19.97
770.984	21.31
771.293	21.9
771.601	20.49
771.91	21.59
772.218	22.21
772.526	20.46
772.834	22.57
773.142	20.52
773.45	22.74
773.758	19.76
774.066	22.09
774.374	23.81
774.682	20.96
774.99	22.69
775.298	21.24
775.605	20.97
775.913	23.5
776.22	20.42
776.528	20.43
776.835	19.08
777.143	20.35
777.45	19.11
777.757	22.25
778.065	25.45
778.372	21.16
778.679	23.46
778.986	21.05
779.293	22.04
779.6	22.73
779.907	20.95
780.214	23.42
780.52	22.34
780.827	20.24
781.134	24.13
781.44	25.07
781.747	19.08
782.053	21.72
782.36	22.64
782.666	21.22
782.973	20.52
783.279	24.82
783.585	21.11
783.891	21.4
784.197	19.54
784.503	23.97
784.809	20.53
785.115	20.31
785.421	21.54
785.727	19.04
786.033	21.89
786.339	21.23
786.644	18.31
786.95	24.67
787.255	24.46
787.561	16.93
787.866	23.23
788.172	20.06
788.477	19.55
788.782	20.41
789.088	19.8
789.393	23.49
789.698	22.99
790.003	23
790.308	21.42
790.613	21.56
790.918	22.76
791.223	19.06
791.527	21.15
791.832	22.84
792.137	23.76
792.441	22.84
792.746	25.2
793.05	23.35
793.355	26.52
793.659	21.31
793.963	24.67
794.268	24.1
794.572	23.04
794.876	22.24
795.18	21.01
795.484	25.13
795.788	22.52
796.092	24.15
796.396	24.78
796.7	22.11
797.004	27.27
797.307	18.95
797.611	27.05
797.915	22.05
798.218	21.25
798.522	23.27
798.825	24.44
799.128	22.38
799.432	22.43
799.735	26.8
800.038	22.87
800.341	24.66
800.644	23.22
800.947	24.17
801.25	22.42
801.553	22.52
801.856	23.25
802.159	21.26
802.462	24.15
802.764	22.97
803.067	22.16
803.37	26.43
803.672	23.87
803.975	25.35
804.277	21.62
804.579	22.88
804.882	22.2
805.184	22.41
805.486	25.68
805.788	25.21
806.09	29.13
806.392	25.81
806.694	23.01
806.996	23.47
807.298	24.72
807.6	24.19
807.902	29.62
808.203	27.21
808.505	23.03
808.807	23.27
809.108	24.07
809.409	23.93
809.711	28.47
810.012	23.89
810.313	26.72
810.615	24.77
810.916	28.55
811.217	23.75
811.518	27.43
811.819	28.67
812.12	22.96
812.421	25.01
812.722	26.97
813.023	22.52
813.323	21.96
813.624	27.7
813.925	27.39
814.225	25.22
814.526	22.71
814.826	23.64
815.126	24.34
815.427	24.06
815.727	22.5
816.027	20.47
816.327	26.46
816.627	25.94
816.927	22.21
817.227	23.62
817.527	21.97
817.827	22.18
818.127	22.66
818.427	25.5
818.727	25.62
819.026	24.56
819.326	21.16
819.625	24.12
819.925	25.12
820.224	25.12
820.524	27.21
820.823	28.98
821.122	28.82
821.421	25.65
821.72	29.96
822.019	24.58
822.318	27.85
822.617	30.56
822.916	28.55
823.215	24.69
823.514	25.38
823.813	25.38
824.111	27.24
824.41	27.7
824.709	27.56
825.007	26.62
825.306	26.23
825.604	25.93
825.902	26.82
826.201	27.57
826.499	25.42
826.797	27.88
827.095	26.62
827.393	28.25
827.691	26.25
827.989	25.98
828.287	27.32
828.585	29.24
828.882	27.62
829.18	28.15
829.478	26.81
829.775	28.01
830.073	27.3
830.37	28.15
830.668	27.7
830.965	29.88
831.263	26.67
831.56	24.24
831.857	25.84
832.154	24.37
832.451	28.95
832.748	27.28
833.045	25.73
833.342	27.78
833.639	30.2
833.936	28.75
834.232	27.71
834.529	27.3
834.826	26.57
835.122	27.04
835.419	26.58
835.715	32.3
836.012	27.73
836.308	28.36
836.604	25.27
836.901	27.26
837.197	27.6
837.493	25.88
837.789	29.33
838.085	28.87
838.381	27.95
838.677	26.62
838.972	30.14
839.268	27.44
839.564	27.26
839.86	24.48
840.155	24.58
840.451	29.21
840.746	32.96
841.042	26.54
841.337	24.24
841.632	29.39
841.928	32.03
842.223	29.29
842.518	19.95
842.813	33.47
843.108	28.68
843.403	29.48
843.698	26.57
843.993	29.96
844.287	29.73
844.582	28.32
844.877	22.47
845.171	22.5
845.466	18.63
845.761	27.89
846.055	23.64
846.349	38.09
846.644	37.01
846.938	31.76
847.232	20.46
847.526	19.27
847.82	22.08
848.114	14.94
848.408	22.72
848.702	16
848.996	27.86
849.29	13.83
849.584	25.35
849.877	25.43
850.171	6.65
850.465	27.2
850.758	36.81
851.052	33.15
851.345	33.82
851.638	31.52
851.932	39.41
852.225	36.32
852.518	36.32
852.811	21.85
853.104	34.93
853.397	39.36
853.69	32.71
853.983	31.3
854.276	26.06
854.569	20.51
854.861	21.62
855.154	25.46
855.447	16.6
855.739	9.26
856.032	37.31
856.324	23.62
856.616	19.88
856.909	8.72
857.201	44.29
857.493	34.83
857.785	48.84
858.077	29.24
858.369	12
858.661	34.03
858.953	9.42
859.245	20.56
859.537	33.74
859.829	25.03
860.12	25.64
860.412	7.55
860.703	31.18
860.995	21
861.286	23.55
861.578	45.5
861.869	23.23
862.16	18.37
862.452	45.25
862.743	37.83
863.034	29.52
863.325	12.12
863.616	19.22
863.907	21.03
864.198	6.15
864.488	22.16
864.779	42.49
865.07	28.62
865.36	23.83
865.651	38.96
865.941	3.39
866.232	40.76
866.522	21.52
866.813	22.06
867.103	27.62
867.393	31.49
867.683	-2.75
867.973	29.04
868.263	17.4
868.553	0.85
868.843	23.03
869.133	37.07
869.423	38.71
869.713	22.53
870.002	37.87
870.292	32.07
870.582	-2.92
870.871	23.87
871.161	28.42
871.45	25.03
871.739	31.2
872.029	20.11
872.318	23.13
872.607	24.94
872.896	26.92
873.185	26.43
873.474	33.58
873.763	19.16
874.052	29.77
874.341	31.78
874.63	17.99
874.918	29.85
875.207	35.19
875.496	44.85
875.784	21.58
876.073	7.86
876.361	12.79
876.649	38.85
876.938	-0.94
877.226	37.21
877.514	23.53
877.802	8.4
878.09	44.93
878.378	27.62
878.666	38.52
878.954	48.93
879.242	48.06
879.53	22.46
879.817	33.53
880.105	50.18
880.392	5.16
880.68	38.38
880.967	52.85
881.255	47.06
881.542	28.37
881.83	39.12
882.117	14.1
882.404	35.53
882.691	-0.92
882.978	26.95
883.265	32.77
883.552	15.25
883.839	18.56
884.126	29.46
884.413	32.5
884.699	40.03
884.986	26.35
885.273	33.15
885.559	33.15
885.846	33.15
