Data from 0033_crown_Reflection__3__175.txt Node

Date: Thu Oct 20 22:17:31 CDT 2022
User: ToomeyLab
Spectrometer: FLMS14357
Trigger mode: 0
Integration Time (sec): 1.000000E-2
Scans to average: 100
Electric dark correction enabled: true
Nonlinearity correction enabled: false
Boxcar width: 0
XAxis mode: Wavelengths
Number of Pixels in Spectrum: 2048
>>>>>Begin Spectral Data<<<<<
189.047	166.51
189.435	166.51
189.823	166.51
190.211	-14.3
190.599	-55.3
190.987	36.53
191.375	-426.85
191.763	1139.45
192.151	204.48
192.538	-135.11
192.926	493.05
193.314	-8.66
193.702	-353.16
194.089	148.69
194.477	44.92
194.864	-102.49
195.252	-13.09
195.639	268.66
196.027	-54.62
196.414	-1.46
196.801	-0.14
197.189	-3.66
197.576	-1389.21
197.963	971.82
198.351	-58.64
198.738	-182.59
199.125	-9.9
199.512	-12.95
199.899	-66.85
200.286	2.13
200.673	-40.09
201.06	10.06
201.447	-17.35
201.833	-56.68
202.22	-24.4
202.607	-38.29
202.994	-10.05
203.38	-8.42
203.767	-6.23
204.154	-30.09
204.54	-28.77
204.927	-6.03
205.313	21.63
205.699	3.92
206.086	41.42
206.472	29.5
206.858	3.41
207.245	14.9
207.631	-26.41
208.017	-39.73
208.403	-94.56
208.789	11.2
209.175	1.42
209.561	3.27
209.947	-21.87
210.333	10.45
210.719	2.41
211.105	11.82
211.491	-66.13
211.876	-46.7
212.262	-24.05
212.648	1.5
213.034	-7.35
213.419	-99.34
213.805	-12.77
214.19	-48.06
214.576	-69.94
214.961	-15.76
215.346	-101.8
215.732	1.58
216.117	-21.83
216.502	-14.33
216.888	-14.33
217.273	-6.56
217.658	4.66
218.043	15.75
218.428	-19.67
218.813	9.16
219.198	-5.95
219.583	-9.18
219.968	25.29
220.353	15
220.738	-0.94
221.122	10.12
221.507	-14.7
221.892	-3.01
222.276	3.07
222.661	10.74
223.046	10.56
223.43	-4.29
223.815	3.62
224.199	-27.12
224.583	-6.02
224.968	5.77
225.352	4
225.736	0.93
226.121	0.87
226.505	3.09
226.889	-0.6
227.273	-4.85
227.657	0.56
228.041	-2.67
228.425	1.96
228.809	3.23
229.193	3.05
229.577	2.98
229.961	3.82
230.344	3.21
230.728	3.42
231.112	3.37
231.495	4.17
231.879	2.45
232.263	4.25
232.646	3.32
233.03	1.52
233.413	1.31
233.797	2.54
234.18	1.03
234.563	1.65
234.946	0.9
235.33	3.07
235.713	3.34
236.096	0.07
236.479	3.95
236.862	1.95
237.245	1.98
237.628	2.68
238.011	2.38
238.394	4.82
238.777	4.02
239.16	3.07
239.543	3.05
239.925	2.06
240.308	2.65
240.691	3.45
241.073	2.05
241.456	2.93
241.838	2.7
242.221	2.5
242.603	3.06
242.986	3.6
243.368	3.52
243.75	3.63
244.133	3.43
244.515	3.08
244.897	3.07
245.279	2.06
245.661	3.97
246.043	4.04
246.425	3.19
246.807	2.77
247.189	3.12
247.571	3.22
247.953	3.04
248.335	3.11
248.717	3.18
249.098	3.31
249.48	3.44
249.862	3.16
250.243	3.21
250.625	3.86
251.006	3.85
251.388	3.52
251.769	3.68
252.151	3.09
252.532	2.68
252.913	2.99
253.295	2.75
253.676	3.27
254.057	2.19
254.438	2.75
254.819	3.07
255.2	3.74
255.581	3.62
255.962	2.39
256.343	2.89
256.724	2.99
257.105	3.09
257.486	2.6
257.867	2.81
258.247	3.12
258.628	3.09
259.009	2.33
259.389	2.59
259.77	2.42
260.15	3.09
260.531	3.03
260.911	2.78
261.292	3.08
261.672	3.12
262.052	3.15
262.432	3.05
262.813	2.51
263.193	2.88
263.573	2.74
263.953	3.22
264.333	2.51
264.713	2.51
265.093	2.71
265.473	2.88
265.853	3.13
266.233	2.74
266.612	3.76
266.992	2.03
267.372	2.83
267.752	2.85
268.131	3.85
268.511	2.93
268.89	2.73
269.27	2.86
269.649	2.68
270.029	2.1
270.408	2.81
270.787	2.15
271.167	3.15
271.546	2.35
271.925	3.28
272.304	2.93
272.683	2.38
273.062	2.63
273.441	2.72
273.82	2.98
274.199	2.63
274.578	2.77
274.957	2.72
275.336	2.51
275.715	2.71
276.093	2.96
276.472	3.05
276.851	3.65
277.229	2.09
277.608	2.45
277.986	2.31
278.365	2.68
278.743	2.54
279.122	2.59
279.5	2.43
279.878	3.43
280.257	2.48
280.635	2.75
281.013	3.03
281.391	3.03
281.769	2.98
282.147	2.02
282.525	1.95
282.903	2.47
283.281	2.3
283.659	2.39
284.037	1.98
284.415	2.43
284.792	2.56
285.17	3.04
285.548	2.32
285.925	2.31
286.303	2.5
286.68	2.82
287.058	2.39
287.435	2.33
287.813	2.37
288.19	2.29
288.567	2.72
288.945	2.61
289.322	2.74
289.699	2.12
290.076	2.55
290.453	2.48
290.83	2.41
291.207	2.43
291.584	2.61
291.961	2.37
292.338	1.91
292.715	2.37
293.092	2.6
293.469	2.52
293.845	2.76
294.222	2.49
294.599	3.3
294.975	2.39
295.352	2.8
295.728	2.34
296.105	2.9
296.481	2.43
296.858	2.41
297.234	2.65
297.61	2.63
297.986	2.41
298.363	2.44
298.739	2.43
299.115	2.24
299.491	2.18
299.867	2.26
300.243	2.52
300.619	2.29
300.995	2.05
301.371	2.35
301.746	2.13
302.122	2.58
302.498	2.55
302.874	2.9
303.249	2.62
303.625	2.14
304	2.95
304.376	2.36
304.751	2.48
305.127	2.05
305.502	2.45
305.878	2.55
306.253	2.21
306.628	2.55
307.003	2.1
307.378	1.54
307.754	2.47
308.129	2.33
308.504	2.45
308.879	2.59
309.254	2.77
309.629	2.15
310.003	2.23
310.378	2.24
310.753	2.71
311.128	1.95
311.502	1.84
311.877	2.61
312.252	2.32
312.626	2.49
313.001	2.4
313.375	2.85
313.75	2.1
314.124	2.47
314.498	2.03
314.873	2.19
315.247	1.72
315.621	2.22
315.995	2.33
316.369	2.46
316.743	2.13
317.117	2.53
317.491	2.74
317.865	2.48
318.239	2.51
318.613	2.58
318.987	2.11
319.361	2.62
319.734	1.89
320.108	2.34
320.482	2.34
320.855	2.77
321.229	2.76
321.602	2.15
321.976	1.92
322.349	2.19
322.723	2.38
323.096	2.66
323.469	2.29
323.843	2.24
324.216	2.26
324.589	2.58
324.962	2.81
325.335	2.79
325.708	2.67
326.081	2.62
326.454	2.44
326.827	2.09
327.2	2.74
327.573	2.4
327.945	2.78
328.318	2.29
328.691	2.58
329.063	2.52
329.436	2.23
329.809	2.53
330.181	2.61
330.553	1.75
330.926	2.06
331.298	2.72
331.671	2.79
332.043	2.64
332.415	2.47
332.787	3.05
333.159	1.93
333.532	2.34
333.904	2.47
334.276	2.74
334.648	2.19
335.02	2.57
335.391	2.52
335.763	2.82
336.135	2.53
336.507	1.94
336.879	2.52
337.25	1.73
337.622	2.56
337.993	1.98
338.365	2.97
338.736	2.31
339.108	1.74
339.479	2.19
339.851	2.1
340.222	2.64
340.593	2.53
340.964	2.86
341.336	2.08
341.707	2.1
342.078	2.02
342.449	1.9
342.82	2.34
343.191	2.32
343.562	2.74
343.933	1.84
344.303	2.21
344.674	2.66
345.045	2.41
345.416	2.56
345.786	2.48
346.157	2.59
346.527	2.3
346.898	2.41
347.268	2.45
347.639	2.43
348.009	2.35
348.38	2.71
348.75	2.25
349.12	2.35
349.49	2.33
349.861	2.57
350.231	2.14
350.601	2.64
350.971	2.68
351.341	2.83
351.711	2.79
352.081	2.3
352.45	2.37
352.82	2.24
353.19	2.89
353.56	2.48
353.929	2.35
354.299	2.95
354.669	2.5
355.038	2.58
355.408	2.4
355.777	2.77
356.147	2.77
356.516	2.37
356.885	2.29
357.254	2.48
357.624	2.82
357.993	2.44
358.362	2.93
358.731	2.53
359.1	2.29
359.469	2.36
359.838	2.54
360.207	2.84
360.576	2.31
360.945	2.79
361.314	2.68
361.682	2.59
362.051	2.53
362.42	2.53
362.788	2.34
363.157	2.5
363.525	2.56
363.894	2.68
364.262	2.85
364.631	2.71
364.999	2.48
365.367	2.92
365.735	2.61
366.104	2.44
366.472	2.62
366.84	2.69
367.208	2.67
367.576	2.59
367.944	2.89
368.312	2.52
368.68	2.88
369.048	2.21
369.416	2.49
369.783	2.93
370.151	3.09
370.519	2.94
370.886	2.58
371.254	3.12
371.621	2.53
371.989	2.78
372.356	2.34
372.724	2.66
373.091	2.59
373.458	2.28
373.826	2.52
374.193	2.66
374.56	2.21
374.927	2.14
375.294	2.71
375.661	3.07
376.028	2.33
376.395	2.9
376.762	2.39
377.129	2.44
377.496	2.33
377.863	2.53
378.229	2.59
378.596	2.6
378.963	2.78
379.329	2.88
379.696	2.76
380.062	2.53
380.429	2.82
380.795	2.87
381.161	2.6
381.528	2.6
381.894	2.67
382.26	2.58
382.626	2.95
382.993	2.46
383.359	3.11
383.725	2.75
384.091	2.9
384.457	2.6
384.823	2.58
385.188	2.83
385.554	2.38
385.92	2.57
386.286	2.51
386.651	2.62
387.017	2.56
387.383	2.55
387.748	2.79
388.114	2.63
388.479	2.37
388.845	2.7
389.21	2.78
389.575	2.63
389.94	2.93
390.306	2.94
390.671	2.66
391.036	2.81
391.401	2.4
391.766	2.87
392.131	2.84
392.496	2.6
392.861	2.64
393.226	2.9
393.591	2.87
393.956	2.71
394.32	2.92
394.685	2.74
395.05	2.65
395.414	2.61
395.779	2.6
396.143	2.85
396.508	2.78
396.872	2.83
397.236	2.84
397.601	3.14
397.965	3.02
398.329	2.87
398.694	2.48
399.058	2.75
399.422	2.81
399.786	2.68
400.15	2.65
400.514	2.95
400.878	2.59
401.242	3.03
401.605	2.92
401.969	2.7
402.333	2.91
402.697	3.15
403.06	2.61
403.424	2.82
403.787	2.95
404.151	2.7
404.514	2.79
404.878	2.6
405.241	2.88
405.604	2.94
405.968	2.83
406.331	2.73
406.694	2.85
407.057	2.82
407.42	2.68
407.783	2.87
408.146	2.85
408.509	2.85
408.872	2.96
409.235	2.69
409.598	2.92
409.961	2.83
410.323	2.99
410.686	2.84
411.049	2.77
411.411	2.66
411.774	2.68
412.136	2.79
412.499	2.93
412.861	2.89
413.223	2.82
413.586	2.86
413.948	2.81
414.31	2.85
414.672	2.85
415.035	2.76
415.397	3.05
415.759	2.71
416.121	2.86
416.483	2.63
416.845	2.97
417.206	2.9
417.568	2.76
417.93	2.6
418.292	2.94
418.653	2.75
419.015	2.87
419.377	2.89
419.738	2.87
420.1	2.81
420.461	2.91
420.822	2.72
421.184	2.72
421.545	2.78
421.906	2.67
422.267	2.85
422.629	2.68
422.99	2.8
423.351	2.8
423.712	2.86
424.073	2.8
424.434	2.72
424.795	2.78
425.155	2.88
425.516	2.76
425.877	2.81
426.238	2.89
426.598	2.81
426.959	2.82
427.32	2.87
427.68	2.88
428.041	2.92
428.401	2.76
428.761	2.89
429.122	2.72
429.482	2.88
429.842	2.87
430.202	2.82
430.563	2.8
430.923	3
431.283	2.85
431.643	2.99
432.003	2.92
432.363	3.07
432.722	3.07
433.082	2.81
433.442	2.81
433.802	2.85
434.161	2.9
434.521	2.8
434.881	2.76
435.24	2.78
435.6	2.91
435.959	2.95
436.319	2.89
436.678	2.83
437.037	2.95
437.396	2.91
437.756	2.87
438.115	2.96
438.474	2.8
438.833	2.89
439.192	2.68
439.551	2.86
439.91	2.86
440.269	2.86
440.628	2.81
440.987	2.83
441.345	2.83
441.704	2.94
442.063	3
442.421	2.82
442.78	2.8
443.138	2.87
443.497	2.99
443.855	2.83
444.214	2.85
444.572	2.94
444.93	2.76
445.288	2.75
445.647	2.83
446.005	2.73
446.363	2.79
446.721	2.75
447.079	2.83
447.437	2.82
447.795	2.72
448.153	2.75
448.51	2.77
448.868	2.83
449.226	2.9
449.584	2.9
449.941	2.85
450.299	2.97
450.656	2.97
451.014	2.97
451.371	2.94
451.729	2.77
452.086	3.03
452.443	2.77
452.801	2.8
453.158	2.81
453.515	2.88
453.872	2.76
454.229	2.78
454.586	2.88
454.943	2.86
455.3	2.99
455.657	2.82
456.014	2.98
456.371	2.84
456.727	2.82
457.084	2.72
457.441	3.03
457.797	2.97
458.154	2.84
458.51	2.73
458.867	2.91
459.223	3.14
459.58	2.83
459.936	2.94
460.292	2.76
460.648	2.7
461.005	2.68
461.361	2.74
461.717	2.78
462.073	2.96
462.429	2.86
462.785	2.93
463.141	3.09
463.496	3.11
463.852	2.83
464.208	3
464.564	2.98
464.919	3.06
465.275	3.08
465.631	2.77
465.986	2.87
466.342	2.75
466.697	2.89
467.052	2.82
467.408	2.8
467.763	2.9
468.118	3.09
468.473	2.97
468.829	2.92
469.184	2.92
469.539	2.86
469.894	2.93
470.249	3.03
470.603	2.88
470.958	2.9
471.313	2.74
471.668	2.83
472.023	2.88
472.377	2.87
472.732	2.93
473.086	2.97
473.441	2.84
473.795	3
474.15	2.89
474.504	2.79
474.859	2.98
475.213	2.92
475.567	3
475.921	2.65
476.275	2.93
476.63	3.02
476.984	2.93
477.338	2.85
477.692	2.83
478.045	2.82
478.399	2.94
478.753	2.84
479.107	2.83
479.461	2.86
479.814	2.95
480.168	2.91
480.521	2.9
480.875	3.05
481.228	2.84
481.582	2.94
481.935	2.83
482.289	2.71
482.642	2.76
482.995	2.87
483.348	2.99
483.701	2.77
484.055	2.77
484.408	2.75
484.761	2.7
485.114	2.59
485.466	2.6
485.819	2.69
486.172	2.77
486.525	2.85
486.878	2.93
487.23	2.91
487.583	2.82
487.936	2.82
488.288	2.8
488.641	2.71
488.993	2.72
489.345	2.72
489.698	2.77
490.05	2.86
490.402	2.86
490.754	2.92
491.107	2.92
491.459	2.98
491.811	2.88
492.163	2.81
492.515	2.74
492.866	2.69
493.218	2.7
493.57	2.77
493.922	2.88
494.274	3
494.625	2.95
494.977	3.09
495.328	2.94
495.68	2.95
496.031	3.03
496.383	2.89
496.734	2.83
497.086	2.85
497.437	2.99
497.788	2.79
498.139	2.75
498.49	2.87
498.842	2.76
499.193	2.88
499.544	2.89
499.894	2.9
500.245	2.9
500.596	2.92
500.947	2.9
501.298	2.93
501.648	2.85
501.999	2.87
502.35	2.9
502.7	2.93
503.051	3.04
503.401	3.01
503.752	2.92
504.102	2.83
504.452	2.92
504.803	2.76
505.153	2.94
505.503	2.92
505.853	2.83
506.203	2.85
506.553	2.95
506.903	2.81
507.253	3.01
507.603	2.85
507.953	3.02
508.303	3.06
508.652	2.75
509.002	2.91
509.352	2.89
509.701	2.9
510.051	2.85
510.4	2.81
510.75	2.78
511.099	2.83
511.449	2.85
511.798	2.92
512.147	2.92
512.496	3.03
512.846	2.97
513.195	2.82
513.544	2.91
513.893	3.02
514.242	2.85
514.591	2.9
514.939	2.8
515.288	2.98
515.637	2.93
515.986	2.85
516.334	2.85
516.683	2.85
517.032	2.85
517.38	2.89
517.729	3.03
518.077	2.92
518.426	2.86
518.774	2.8
519.122	2.88
519.47	2.81
519.819	2.81
520.167	2.77
520.515	2.84
520.863	2.86
521.211	2.86
521.559	2.93
521.907	2.81
522.255	2.9
522.602	2.92
522.95	2.9
523.298	2.82
523.645	2.93
523.993	2.81
524.341	2.95
524.688	2.88
525.036	2.82
525.383	2.9
525.73	2.82
526.078	2.83
526.425	2.86
526.772	2.76
527.119	2.72
527.466	2.91
527.814	2.86
528.161	2.79
528.508	2.84
528.854	2.8
529.201	2.82
529.548	2.75
529.895	2.66
530.242	2.68
530.588	2.74
530.935	2.84
531.282	2.83
531.628	2.89
531.975	2.95
532.321	2.88
532.667	2.84
533.014	2.97
533.36	2.84
533.706	2.77
534.052	2.88
534.399	2.81
534.745	2.77
535.091	2.78
535.437	2.84
535.783	2.81
536.129	2.93
536.474	2.93
536.82	2.9
537.166	2.85
537.512	2.87
537.857	2.78
538.203	2.79
538.549	2.85
538.894	2.86
539.239	2.9
539.585	2.93
539.93	2.97
540.276	3.04
540.621	2.82
540.966	2.89
541.311	2.83
541.656	2.88
542.001	2.74
542.346	2.71
542.691	2.66
543.036	2.62
543.381	2.77
543.726	2.85
544.071	2.81
544.415	2.88
544.76	2.8
545.105	2.88
545.449	2.87
545.794	2.9
546.138	3.06
546.483	2.84
546.827	2.82
547.171	2.85
547.516	2.8
547.86	2.86
548.204	2.86
548.548	2.88
548.892	2.91
549.236	2.99
549.58	2.92
549.924	2.94
550.268	3.02
550.612	3.02
550.956	2.87
551.3	2.98
551.643	2.9
551.987	2.92
552.33	3
552.674	2.88
553.017	2.81
553.361	2.95
553.704	3
554.048	2.83
554.391	2.78
554.734	2.74
555.077	2.8
555.42	2.93
555.764	2.79
556.107	2.8
556.45	2.95
556.793	2.98
557.135	2.91
557.478	2.93
557.821	2.89
558.164	2.96
558.507	2.93
558.849	2.94
559.192	3.07
559.534	3
559.877	2.98
560.219	3
560.562	2.92
560.904	3.07
561.246	2.84
561.589	3.07
561.931	2.81
562.273	2.88
562.615	3.01
562.957	2.71
563.299	2.84
563.641	2.79
563.983	2.93
564.325	2.91
564.667	2.86
565.008	2.89
565.35	2.9
565.692	3
566.033	2.82
566.375	2.92
566.716	2.89
567.058	2.95
567.399	2.96
567.741	2.87
568.082	2.74
568.423	2.78
568.764	2.78
569.105	2.83
569.447	3.05
569.788	3.02
570.129	2.93
570.47	2.87
570.811	2.62
571.151	2.81
571.492	2.68
571.833	2.8
572.174	2.85
572.514	2.91
572.855	2.87
573.195	2.95
573.536	2.75
573.876	2.72
574.217	2.84
574.557	2.87
574.898	2.9
575.238	2.87
575.578	3
575.918	2.9
576.258	2.75
576.598	2.86
576.938	2.85
577.278	2.85
577.618	2.96
577.958	2.89
578.298	3.12
578.638	2.78
578.977	2.91
579.317	2.93
579.657	2.75
579.996	3.08
580.336	3.03
580.675	3.15
581.014	2.85
581.354	2.81
581.693	2.96
582.032	3.11
582.372	3
582.711	2.74
583.05	3.02
583.389	2.95
583.728	2.93
584.067	2.94
584.406	2.93
584.745	2.82
585.083	2.76
585.422	2.9
585.761	3.04
586.1	2.96
586.438	3.2
586.777	2.99
587.115	2.74
587.454	2.99
587.792	2.82
588.13	3
588.469	3.06
588.807	2.9
589.145	2.63
589.483	2.7
589.821	2.97
590.159	2.9
590.497	2.83
590.835	2.75
591.173	2.81
591.511	2.78
591.849	2.71
592.187	2.71
592.524	2.99
592.862	2.77
593.2	2.76
593.537	2.89
593.875	2.83
594.212	2.84
594.55	2.81
594.887	2.85
595.224	3.01
595.561	2.97
595.899	2.98
596.236	2.96
596.573	3.21
596.91	2.74
597.247	2.63
597.584	2.71
597.921	2.82
598.258	2.8
598.594	2.89
598.931	2.93
599.268	2.79
599.604	2.73
599.941	3.09
600.277	2.82
600.614	2.86
600.95	2.93
601.287	2.89
601.623	2.68
601.959	2.83
602.296	2.69
602.632	2.85
602.968	3.13
603.304	2.89
603.64	3.22
603.976	2.6
604.312	3.11
604.648	2.86
604.984	2.8
605.319	2.81
605.655	2.79
605.991	2.84
606.326	2.84
606.662	2.9
606.998	3.07
607.333	2.9
607.668	2.8
608.004	2.9
608.339	2.88
608.674	2.98
609.01	3.03
609.345	2.95
609.68	2.79
610.015	2.7
610.35	2.86
610.685	2.75
611.02	2.67
611.355	2.93
611.689	2.76
612.024	2.65
612.359	2.94
612.694	2.88
613.028	2.88
613.363	2.7
613.697	2.79
614.032	2.85
614.366	2.85
614.7	2.54
615.035	2.51
615.369	2.71
615.703	2.98
616.037	2.61
616.371	2.92
616.705	2.64
617.039	3.11
617.373	2.74
617.707	3.08
618.041	2.91
618.375	2.67
618.709	2.76
619.042	2.63
619.376	2.71
619.71	3.1
620.043	3.09
620.377	2.95
620.71	2.97
621.043	2.76
621.377	2.49
621.71	2.63
622.043	2.68
622.376	3.19
622.709	3.2
623.043	2.67
623.376	3.21
623.709	3.06
624.041	3.01
624.374	2.97
624.707	2.69
625.04	3.14
625.373	3.03
625.705	2.57
626.038	3.11
626.37	2.64
626.703	2.92
627.035	2.77
627.368	3
627.7	2.77
628.032	3.04
628.365	2.73
628.697	2.88
629.029	3.15
629.361	3.15
629.693	3.22
630.025	3.13
630.357	2.66
630.689	2.66
631.021	2.8
631.353	3.05
631.684	2.66
632.016	2.43
632.348	3.01
632.679	2.48
633.011	2.98
633.342	2.97
633.674	2.6
634.005	2.71
634.336	2.83
634.668	2.84
634.999	2.69
635.33	3.29
635.661	2.44
635.992	2.82
636.323	3.21
636.654	2.9
636.985	2.88
637.316	2.57
637.647	3.05
637.977	3.33
638.308	2.7
638.639	2.95
638.969	2.8
639.3	2.6
639.63	3.17
639.961	2.33
640.291	2.4
640.622	3.15
640.952	2.89
641.282	3.01
641.612	3.11
641.943	3.02
642.273	3.06
642.603	2.97
642.933	3.1
643.263	2.79
643.592	2.87
643.922	3.48
644.252	3.24
644.582	2.66
644.911	3.12
645.241	2.6
645.571	2.99
645.9	3.58
646.23	2.96
646.559	3.05
646.888	3.11
647.218	2.63
647.547	2.82
647.876	2.72
648.205	2.85
648.534	2.8
648.863	2.94
649.192	3.02
649.521	3.04
649.85	3.28
650.179	2.97
650.508	3.03
650.837	2.65
651.165	2.81
651.494	2.74
651.822	3.1
652.151	3.08
652.479	2.61
652.808	2.38
653.136	2.47
653.465	3
653.793	2.88
654.121	2.98
654.449	3.22
654.777	2.93
655.105	3.19
655.433	2.73
655.761	3.32
656.089	3.05
656.417	3.12
656.745	3.21
657.073	2.98
657.4	2.94
657.728	2.79
658.056	3.11
658.383	2.56
658.711	3.06
659.038	3.18
659.365	2.72
659.693	3.1
660.02	2.67
660.347	3.03
660.674	2.92
661.001	2.9
661.329	2.86
661.656	2.66
661.982	2.74
662.309	2.84
662.636	3.07
662.963	2.48
663.29	2.88
663.616	2.92
663.943	3.18
664.27	3.49
664.596	3.27
664.923	2.78
665.249	3.16
665.576	3.61
665.902	2.7
666.228	3.51
666.554	3
666.881	2.52
667.207	2.97
667.533	3.31
667.859	2.71
668.185	4.22
668.511	2.52
668.837	2.31
669.162	2.95
669.488	2.79
669.814	3.26
670.139	3.26
670.465	2.87
670.791	3.19
671.116	3.21
671.442	3.32
671.767	3.2
672.092	3.16
672.418	3.11
672.743	2.51
673.068	1.86
673.393	2.67
673.718	2.88
674.043	2.41
674.368	2.63
674.693	2.97
675.018	3.25
675.343	2.6
675.667	2.75
675.992	2.88
676.317	3.28
676.641	2.81
676.966	2.56
677.29	2.89
677.615	3.22
677.939	2.94
678.264	2.28
678.588	3.48
678.912	3.5
679.236	3.21
679.56	2.8
679.885	3.14
680.209	2.72
680.532	3.77
680.856	3.39
681.18	3.05
681.504	2.75
681.828	3.12
682.152	3.43
682.475	2.9
682.799	3.68
683.122	3.41
683.446	2.91
683.769	2.87
684.093	2.93
684.416	3.35
684.739	3.05
685.062	3.06
685.386	3.13
685.709	2.83
686.032	3.21
686.355	2.63
686.678	3.32
687.001	3.36
687.324	3.32
687.646	2.51
687.969	3.28
688.292	3.13
688.614	2.97
688.937	2.72
689.26	2.55
689.582	3.09
689.904	3.8
690.227	2.07
690.549	3.46
690.871	2.43
691.194	3.07
691.516	2.68
691.838	2.82
692.16	2.88
692.482	3.4
692.804	3.29
693.126	3.09
693.448	3.24
693.769	2.91
694.091	3.18
694.413	3.21
694.735	3.06
695.056	2.61
695.378	3.88
695.699	3.41
696.021	2.75
696.342	2.27
696.663	2.96
696.984	3.14
697.306	3.56
697.627	3.27
697.948	2.79
698.269	2.59
698.59	2.56
698.911	2.67
699.232	3.38
699.553	3.21
699.873	3.06
700.194	3.63
700.515	2.96
700.835	3.18
701.156	3.31
701.477	2.74
701.797	2.84
702.117	2.89
702.438	3.14
702.758	3.14
703.078	3.32
703.398	2.66
703.719	3.59
704.039	3.76
704.359	3.79
704.679	2.78
704.999	2.85
705.319	3.29
705.638	1.97
705.958	3.18
706.278	3.38
706.597	3.57
706.917	3.77
707.237	2.47
707.556	2.94
707.876	2.94
708.195	1.92
708.514	2.37
708.834	3.2
709.153	2.92
709.472	2.79
709.791	3.28
710.11	3.26
710.429	3.96
710.748	2.7
711.067	2.7
711.386	3.18
711.705	3.04
712.023	3.43
712.342	2.21
712.661	1.3
712.979	2.86
713.298	3.41
713.616	2.4
713.935	3.95
714.253	3.31
714.572	3.89
714.89	2.75
715.208	3.12
715.526	2.68
715.844	3.22
716.162	3.3
716.48	2.56
716.798	3.67
717.116	3.88
717.434	3.48
717.752	3.7
718.069	2.84
718.387	3.43
718.705	2.84
719.022	2.54
719.34	3.65
719.657	3
719.975	3.29
720.292	2.03
720.609	2.98
720.927	2.85
721.244	3.35
721.561	4
721.878	3.61
722.195	2.31
722.512	4.04
722.829	3.35
723.146	2.98
723.463	3.65
723.779	1.53
724.096	2.24
724.413	3.29
724.729	3.89
725.046	4.06
725.362	4.49
725.679	2.89
725.995	4.5
726.311	3.65
726.628	4.31
726.944	2.93
727.26	3.05
727.576	3.63
727.892	2.54
728.208	1.55
728.524	3.7
728.84	2.35
729.156	3.92
729.472	3.37
729.787	2.76
730.103	2.24
730.419	2.34
730.734	3.1
731.05	2.49
731.365	4.26
731.681	3.29
731.996	3.71
732.311	1.83
732.626	3.4
732.942	3.06
733.257	3.62
733.572	3.79
733.887	3.1
734.202	2.99
734.517	2.99
734.832	1.71
735.146	2.18
735.461	2.54
735.776	3.76
736.091	2.69
736.405	2.54
736.72	2.78
737.034	3.29
737.349	3.93
737.663	3.72
737.977	3.47
738.292	3.77
738.606	2.91
738.92	3.55
739.234	3.59
739.548	3.21
739.862	2.97
740.176	2.67
740.49	3.74
740.804	3.81
741.117	3.78
741.431	3.5
741.745	4.59
742.058	3.82
742.372	2.12
742.685	2.41
742.999	1.91
743.312	4.28
743.626	0.9
743.939	4.26
744.252	3.78
744.565	4.4
744.878	4.57
745.191	3.35
745.505	4.99
745.817	2.57
746.13	5.18
746.443	5.19
746.756	1.6
747.069	4.87
747.381	1.35
747.694	3.49
748.007	2.06
748.319	3.39
748.632	3.82
748.944	4.9
749.256	2.65
749.569	3.51
749.881	2.99
750.193	3.16
750.505	2.95
750.817	3.45
751.129	2.79
751.441	2.76
751.753	3.22
752.065	2.96
752.377	2.94
752.689	4.24
753	4.17
753.312	4.18
753.624	2.94
753.935	3.04
754.247	3.92
754.558	6.06
754.869	4.04
755.181	2.77
755.492	2.74
755.803	4.06
756.114	3.84
756.425	2.06
756.736	2.46
757.047	2.3
757.358	4.97
757.669	5.27
757.98	4.92
758.291	2.94
758.601	3.41
758.912	3.52
759.223	4.32
759.533	3.47
759.844	2.1
760.154	4.79
760.464	0.82
760.775	5.37
761.085	3.2
761.395	5.98
761.705	4.08
762.016	2.47
762.326	4.08
762.636	3.26
762.945	2.96
763.255	3.88
763.565	4.21
763.875	3.66
764.185	3.23
764.494	4.58
764.804	3.4
765.113	3.52
765.423	4.49
765.732	4
766.042	3.61
766.351	3.51
766.66	2.76
766.97	3.68
767.279	4.42
767.588	2.74
767.897	3.3
768.206	4.3
768.515	4.07
768.824	5.32
769.133	2.95
769.441	2.78
769.75	3.67
770.059	3.75
770.367	4.79
770.676	2.06
770.984	4.79
771.293	4.56
771.601	2.93
771.91	4.48
772.218	2.71
772.526	3.42
772.834	5.1
773.142	3.69
773.45	3.69
773.758	3.77
774.066	3.68
774.374	2.96
774.682	3.73
774.99	2.86
775.298	2.27
775.605	3.48
775.913	3.39
776.22	2.95
776.528	1.72
776.835	0.61
777.143	3.57
777.45	1.87
777.757	5.09
778.065	5.49
778.372	-0.17
778.679	6.4
778.986	3.46
779.293	2.17
779.6	4.12
779.907	3.67
780.214	2.89
780.52	4.14
780.827	3.24
781.134	4.19
781.44	2.7
781.747	4.23
782.053	0.66
782.36	1.92
782.666	1.76
782.973	0.45
783.279	7.34
783.585	3.87
783.891	3.17
784.197	-0.77
784.503	2.62
784.809	2.53
785.115	1.23
785.421	2.68
785.727	-1.49
786.033	3.74
786.339	3.18
786.644	3.16
786.95	8.04
787.255	0.19
787.561	-0.39
787.866	3.07
788.172	3.86
788.477	4.33
788.782	3.37
789.088	-1.68
789.393	6.72
789.698	2.83
790.003	3.38
790.308	2.01
790.613	3.42
790.918	3.21
791.223	2.75
791.527	3.66
791.832	4.66
792.137	3.61
792.441	5.84
792.746	4.59
793.05	7.89
793.355	4.43
793.659	3.88
793.963	2.95
794.268	6.85
794.572	3.49
794.876	1.32
795.18	3.82
795.484	0.98
795.788	1.31
796.092	1.14
796.396	1.99
796.7	3.15
797.004	4.66
797.307	0.62
797.611	3.33
797.915	2.05
798.218	-1.43
798.522	3.1
798.825	3.62
799.128	3.33
799.432	4.45
799.735	5.38
800.038	4.29
800.341	4.12
800.644	1.08
800.947	6.19
801.25	4.3
801.553	5.37
801.856	-0.32
802.159	3.22
802.462	2.05
802.764	3.84
803.067	4.72
803.37	3.43
803.672	4.65
803.975	5.18
804.277	1.89
804.579	0.88
804.882	1.81
805.184	4.48
805.486	5.08
805.788	8.18
806.09	6.15
806.392	3.12
806.694	3.44
806.996	1.69
807.298	4.98
807.6	-0.64
807.902	6.14
808.203	5.91
808.505	10.19
808.807	1.56
809.108	4.34
809.409	8.35
809.711	8.53
810.012	1.33
810.313	5.38
810.615	3.81
810.916	6.75
811.217	3.19
811.518	4.05
811.819	0.01
812.12	-0.75
812.421	2.88
812.722	6.84
813.023	4.22
813.323	4.96
813.624	3.45
813.925	9.86
814.225	2.91
814.526	-1.61
814.826	6.26
815.126	5.98
815.427	-1.78
815.727	4.95
816.027	-1.12
816.327	8.72
816.627	6.91
816.927	1.43
817.227	7.08
817.527	5.43
817.827	-1.05
818.127	2.51
818.427	4.57
818.727	4.67
819.026	6.09
819.326	-1.62
819.625	2.38
819.925	-0.58
820.224	2.05
820.524	7.19
820.823	4.97
821.122	2.23
821.421	-0.29
821.72	5.12
822.019	2.25
822.318	5.06
822.617	7.42
822.916	4.19
823.215	4.33
823.514	3.29
823.813	5.54
824.111	4.67
824.41	5.66
824.709	5.48
825.007	4.62
825.306	4.69
825.604	4.42
825.902	4.77
826.201	6.5
826.499	4.46
826.797	5.37
827.095	4.24
827.393	5.23
827.691	3.74
827.989	4.33
828.287	6.17
828.585	5.97
828.882	4.98
829.18	4.83
829.478	4.13
829.775	4.57
830.073	6.92
830.37	5.55
830.668	4.4
830.965	3.84
831.263	3.37
831.56	4.1
831.857	3.08
832.154	2.53
832.451	8.42
832.748	5.02
833.045	-1.56
833.342	5.58
833.639	7.28
833.936	2.62
834.232	8.7
834.529	4.88
834.826	5.73
835.122	3.55
835.419	1.45
835.715	2.86
836.012	4.35
836.308	3.89
836.604	3.51
836.901	4.17
837.197	5.66
837.493	2.49
837.789	0.35
838.085	6
838.381	1.54
838.677	5.84
838.972	7.19
839.268	3.16
839.564	-3.02
839.86	3.82
840.155	-2.15
840.451	1.57
840.746	1.95
841.042	1.31
841.337	-6
841.632	4.72
841.928	5.05
842.223	12.15
842.518	-5.02
842.813	7.82
843.108	3.85
843.403	-1.65
843.698	5.73
843.993	3.11
844.287	-5.35
844.582	-6.71
844.877	-6.84
845.171	1.51
845.466	-12.82
845.761	-8.84
846.055	-2.68
846.349	14
846.644	10.09
846.938	-8.45
847.232	-1.08
847.526	2.67
847.82	1.66
848.114	-17.65
848.408	13.77
848.702	-19.44
848.996	-3.07
849.29	-9.72
849.584	1.98
849.877	-10.74
850.171	-7.73
850.465	10.5
850.758	7.4
851.052	0.96
851.345	10.6
851.638	1.6
851.932	9.28
852.225	6.18
852.518	-6.41
852.811	-10.97
853.104	13.42
853.397	-10.81
853.69	12.55
853.983	22.52
854.276	-25.77
854.569	-19.64
854.861	7.95
855.154	-8.74
855.447	-10.29
855.739	-20.49
856.032	3.76
856.324	-3.62
856.616	-3.23
856.909	-30.96
857.201	7.41
857.493	7.04
857.785	15.08
858.077	6.07
858.369	-0.33
858.661	6.25
858.953	-18.31
859.245	-8.38
859.537	-1.41
859.829	3.2
860.12	0.91
860.412	5.78
860.703	4.76
860.995	7.28
861.286	-13.2
861.578	10.33
861.869	-12.5
862.16	-5.05
862.452	11.14
862.743	6.12
863.034	0.34
863.325	-3.21
863.616	-20.42
863.907	-0.27
864.198	-21.04
864.488	-13
864.779	7.77
865.07	13.05
865.36	-15.56
865.651	7.87
865.941	4.55
866.232	14.32
866.522	-2.32
866.813	-7.15
867.103	-7.09
867.393	8.81
867.683	2.45
867.973	-4.49
868.263	-2.14
868.553	6.25
868.843	-15.2
869.133	-10.18
869.423	0.26
869.713	-49.96
870.002	-24.91
870.292	-9.7
870.582	-17.51
870.871	-29.35
871.161	7.48
871.45	-22.24
871.739	3.06
872.029	14.99
872.318	3.91
872.607	0.46
872.896	-2.16
873.185	-24.58
873.474	-18.02
873.763	-13.68
874.052	-12.98
874.341	7.17
874.63	-10.39
874.918	0.61
875.207	20.73
875.496	7.03
875.784	8.41
876.073	3.85
876.361	-28.37
876.649	-2.07
876.938	-26.83
877.226	21.43
877.514	-0.23
877.802	-26.4
878.09	0.2
878.378	8.53
878.666	11.07
878.954	19.48
879.242	1.06
879.53	-23.25
879.817	-8.13
880.105	5.26
880.392	-2.32
880.68	10.42
880.967	14
881.255	15.6
881.542	-7.07
881.83	8.19
882.117	-32.18
882.404	4.25
882.691	-28.33
882.978	8.8
883.265	9.36
883.552	-10.27
883.839	-7.54
884.126	7.88
884.413	0.48
884.699	11.4
884.986	-0.37
885.273	5.95
885.559	5.95
885.846	5.95
