Data from 0401_crown_Reflection__3__206.txt Node

Date: Tue Dec 12 20:06:41 CST 2023
User: ToomeyLab
Spectrometer: FLMS14357
Trigger mode: 0
Integration Time (sec): 1.000000E-2
Scans to average: 100
Electric dark correction enabled: true
Nonlinearity correction enabled: false
Boxcar width: 0
XAxis mode: Wavelengths
Number of Pixels in Spectrum: 2048
>>>>>Begin Spectral Data<<<<<
189.047	311.18
189.435	311.18
189.823	311.18
190.211	817.23
190.599	1818.81
190.987	111.3
191.375	-7024.69
191.763	269.39
192.151	23.89
192.538	317.81
192.926	117.16
193.314	1593.79
193.702	130.13
194.089	27.92
194.477	-33.89
194.864	69.69
195.252	-12.63
195.639	-432.15
196.027	-297.66
196.414	20.71
196.801	44.88
197.189	-152.04
197.576	208.31
197.963	-5.53
198.351	21.29
198.738	-4.18
199.125	-5.86
199.512	-68.27
199.899	-42.78
200.286	23.02
200.673	-6.64
201.06	-49.66
201.447	-650.92
201.833	-41.9
202.22	12
202.607	-186.85
202.994	-25.63
203.38	2.66
203.767	-65.33
204.154	89.05
204.54	29.36
204.927	3.69
205.313	23.13
205.699	-10.76
206.086	-25.94
206.472	71.36
206.858	38.82
207.245	57.5
207.631	32.87
208.017	15.01
208.403	-29.95
208.789	21.3
209.175	-105.64
209.561	3.04
209.947	-51.46
210.333	33.43
210.719	6.95
211.105	17.03
211.491	19.78
211.876	18.71
212.262	32.26
212.648	-61.78
213.034	-56.4
213.419	-29.41
213.805	17.28
214.19	19.92
214.576	13.12
214.961	14.86
215.346	-27.29
215.732	24.28
216.117	25.34
216.502	5.42
216.888	-32.1
217.273	-44.55
217.658	-27.01
218.043	-1.23
218.428	16.95
218.813	51.23
219.198	-18.29
219.583	9.3
219.968	10.75
220.353	-9.94
220.738	7.27
221.122	-24.22
221.507	-3.24
221.892	3.86
222.276	11.9
222.661	-9.56
223.046	-6.43
223.43	6.99
223.815	-0.36
224.199	17.16
224.583	8.1
224.968	17.63
225.352	7.85
225.736	8.79
226.121	9.4
226.505	11.72
226.889	-3.95
227.273	6.2
227.657	10.71
228.041	14.52
228.425	11.37
228.809	5.72
229.193	3.44
229.577	11.7
229.961	6.22
230.344	9.47
230.728	11.04
231.112	9.89
231.495	10.68
231.879	8.74
232.263	9.31
232.646	8.24
233.03	8.97
233.413	7.56
233.797	8.77
234.18	6.27
234.563	6.34
234.946	9.85
235.33	8.17
235.713	9.92
236.096	9.35
236.479	9.02
236.862	7.62
237.245	10.43
237.628	8.23
238.011	11.62
238.394	9.38
238.777	10.58
239.16	9.36
239.543	8.69
239.925	10.3
240.308	8.33
240.691	9.8
241.073	10.8
241.456	9.48
241.838	9.76
242.221	9.56
242.603	9.77
242.986	8.07
243.368	10.22
243.75	8.82
244.133	9.23
244.515	9.28
244.897	9.08
245.279	9.65
245.661	8.15
246.043	8.59
246.425	8.9
246.807	9.23
247.189	9.1
247.571	8.34
247.953	8.81
248.335	8.72
248.717	8.9
249.098	8.82
249.48	8.26
249.862	8.65
250.243	8.33
250.625	8.51
251.006	8.46
251.388	8.73
251.769	8.23
252.151	6.95
252.532	8.45
252.913	8.7
253.295	8.89
253.676	7.54
254.057	7.81
254.438	8.48
254.819	7.93
255.2	6.87
255.581	8.95
255.962	8.21
256.343	9.05
256.724	7.75
257.105	7.46
257.486	7.56
257.867	8.15
258.247	7.74
258.628	7.82
259.009	7.2
259.389	7.11
259.77	8.08
260.15	7.68
260.531	8.4
260.911	7.97
261.292	7.52
261.672	7.7
262.052	7.64
262.432	7.69
262.813	7.32
263.193	7.63
263.573	7.61
263.953	8.87
264.333	8.94
264.713	6.98
265.093	7.17
265.473	7.53
265.853	7.94
266.233	7.82
266.612	6.96
266.992	7.04
267.372	7.02
267.752	7.61
268.131	5.91
268.511	7.23
268.89	6.85
269.27	6.6
269.649	7.33
270.029	7.08
270.408	7.78
270.787	7.21
271.167	7.4
271.546	7.48
271.925	7.56
272.304	7.47
272.683	6.36
273.062	7.02
273.441	7.28
273.82	6.72
274.199	6.73
274.578	6.85
274.957	6.91
275.336	6.97
275.715	6.86
276.093	6.17
276.472	7.1
276.851	6.66
277.229	6.74
277.608	6.91
277.986	5.91
278.365	6.94
278.743	7.06
279.122	6.91
279.5	7.24
279.878	6.18
280.257	6.74
280.635	6.33
281.013	6.55
281.391	6.86
281.769	6.63
282.147	6.56
282.525	6.38
282.903	6.61
283.281	6.15
283.659	6.92
284.037	7.2
284.415	6.41
284.792	6.6
285.17	6.16
285.548	6.31
285.925	6.81
286.303	6.37
286.68	6.05
287.058	6.87
287.435	6.68
287.813	6.3
288.19	6.35
288.567	6.43
288.945	6.71
289.322	6.35
289.699	7.03
290.076	6.23
290.453	5.87
290.83	6.06
291.207	6.66
291.584	5.96
291.961	6.59
292.338	6.58
292.715	6.23
293.092	6.4
293.469	6.08
293.845	6.52
294.222	5.81
294.599	6.51
294.975	5.9
295.352	6.41
295.728	6.26
296.105	6.36
296.481	6.96
296.858	6.11
297.234	6.73
297.61	6.19
297.986	6.22
298.363	6.21
298.739	5.95
299.115	5.79
299.491	6.19
299.867	6.12
300.243	6.19
300.619	6.05
300.995	6.21
301.371	6.02
301.746	6.2
302.122	6.44
302.498	6.41
302.874	5.71
303.249	6.69
303.625	5.63
304	6.72
304.376	5.7
304.751	6.78
305.127	5.31
305.502	6.32
305.878	5.95
306.253	5.84
306.628	6.06
307.003	5.91
307.378	6.3
307.754	5.85
308.129	5.64
308.504	6.35
308.879	5.31
309.254	6.6
309.629	5.31
310.003	5.82
310.378	6.07
310.753	5.83
311.128	6.1
311.502	5.31
311.877	5.49
312.252	5.34
312.626	5.45
313.001	5.26
313.375	5.65
313.75	6.13
314.124	6.07
314.498	5.7
314.873	5.84
315.247	6.15
315.621	5.63
315.995	6.13
316.369	6
316.743	5.08
317.117	5.24
317.491	5.28
317.865	4.85
318.239	4.81
318.613	5.95
318.987	6.21
319.361	4.71
319.734	5.95
320.108	5.97
320.482	5.38
320.855	5.04
321.229	5.43
321.602	5.73
321.976	5.43
322.349	5.56
322.723	5.12
323.096	5.06
323.469	5.18
323.843	6.22
324.216	5.8
324.589	5.12
324.962	5.99
325.335	5.67
325.708	5.84
326.081	5.68
326.454	5.45
326.827	5.8
327.2	5.11
327.573	4.81
327.945	5.54
328.318	5.97
328.691	4.88
329.063	6.15
329.436	5.83
329.809	5.19
330.181	5.35
330.553	5.73
330.926	5.62
331.298	5.14
331.671	5.45
332.043	5.03
332.415	5.69
332.787	5.47
333.159	5.64
333.532	4.92
333.904	4.9
334.276	5.28
334.648	4.89
335.02	5.19
335.391	4.95
335.763	5.28
336.135	5.45
336.507	5.9
336.879	5.41
337.25	5.15
337.622	5.19
337.993	4.88
338.365	4.91
338.736	5.19
339.108	5.16
339.479	5.45
339.851	4.94
340.222	5.15
340.593	5.14
340.964	5.22
341.336	5.66
341.707	5.08
342.078	4.68
342.449	5.02
342.82	5.45
343.191	5.3
343.562	5.65
343.933	6.01
344.303	5.51
344.674	5.6
345.045	5.51
345.416	5.5
345.786	5.16
346.157	5.17
346.527	5.77
346.898	5.4
347.268	5.02
347.639	5.74
348.009	5.21
348.38	5.04
348.75	5.8
349.12	5.7
349.49	5.24
349.861	5.26
350.231	5.55
350.601	5.71
350.971	5.53
351.341	5.59
351.711	5.66
352.081	5.73
352.45	5.29
352.82	5.59
353.19	5.42
353.56	5.61
353.929	5.37
354.299	5.14
354.669	5.63
355.038	4.72
355.408	4.91
355.777	5.64
356.147	5.42
356.516	5.48
356.885	5.31
357.254	5.64
357.624	5.42
357.993	5.16
358.362	5.56
358.731	5.73
359.1	5.28
359.469	5.47
359.838	5.3
360.207	5.6
360.576	5.46
360.945	5.15
361.314	5.67
361.682	5.72
362.051	5.81
362.42	5.78
362.788	5.41
363.157	6.1
363.525	5.82
363.894	5.51
364.262	5.28
364.631	5.34
364.999	5.64
365.367	5.98
365.735	5.58
366.104	5.23
366.472	5.2
366.84	5.42
367.208	5.51
367.576	5.84
367.944	5.96
368.312	5.67
368.68	5.77
369.048	5.53
369.416	5.45
369.783	5.73
370.151	5.53
370.519	5.52
370.886	5.94
371.254	5.46
371.621	5.78
371.989	5.62
372.356	5.57
372.724	5.42
373.091	5.05
373.458	5.56
373.826	5.7
374.193	5.4
374.56	5.63
374.927	5.6
375.294	5.95
375.661	5.71
376.028	5.79
376.395	5.91
376.762	6.1
377.129	5.74
377.496	6.1
377.863	5.56
378.229	5.89
378.596	5.45
378.963	6.08
379.329	5.62
379.696	5.79
380.062	6.48
380.429	5.91
380.795	6.02
381.161	5.95
381.528	5.75
381.894	5.91
382.26	5.63
382.626	5.62
382.993	6.11
383.359	5.64
383.725	6.16
384.091	5.34
384.457	5.43
384.823	5.77
385.188	5.77
385.554	5.96
385.92	5.71
386.286	5.98
386.651	5.99
387.017	6.47
387.383	6.01
387.748	5.77
388.114	6.01
388.479	6.03
388.845	5.81
389.21	6.02
389.575	5.75
389.94	6.12
390.306	6.03
390.671	5.94
391.036	6.09
391.401	5.89
391.766	6.17
392.131	6.16
392.496	5.99
392.861	5.83
393.226	5.84
393.591	5.9
393.956	6.01
394.32	6.17
394.685	6.23
395.05	6.07
395.414	5.99
395.779	5.91
396.143	6.21
396.508	6
396.872	6.01
397.236	5.94
397.601	6.06
397.965	5.97
398.329	5.83
398.694	5.73
399.058	6.2
399.422	6
399.786	6.15
400.15	5.84
400.514	6.22
400.878	6.02
401.242	6.06
401.605	6.28
401.969	5.95
402.333	6.08
402.697	6.25
403.06	5.75
403.424	6.19
403.787	6.1
404.151	6.1
404.514	5.63
404.878	5.98
405.241	6.21
405.604	6.06
405.968	5.9
406.331	6.17
406.694	6.08
407.057	5.96
407.42	6.33
407.783	6.39
408.146	6.38
408.509	6.22
408.872	6.21
409.235	6.12
409.598	6.28
409.961	6.23
410.323	6.15
410.686	6.1
411.049	6.4
411.411	6.11
411.774	6.21
412.136	6.3
412.499	6.33
412.861	6.15
413.223	6.51
413.586	5.98
413.948	6.13
414.31	6.31
414.672	6.28
415.035	6.26
415.397	6.13
415.759	6.18
416.121	6.09
416.483	6.29
416.845	6.09
417.206	6.26
417.568	6.09
417.93	6.31
418.292	6.32
418.653	6.4
419.015	6.17
419.377	6.2
419.738	6.17
420.1	6.19
420.461	6.24
420.822	6.26
421.184	6.23
421.545	6.46
421.906	6.28
422.267	6.23
422.629	6.22
422.99	6.24
423.351	6.2
423.712	6.17
424.073	6.3
424.434	6.21
424.795	6.3
425.155	6.07
425.516	6.1
425.877	6.25
426.238	6.25
426.598	6.15
426.959	6.15
427.32	6.3
427.68	6.24
428.041	6.31
428.401	6.18
428.761	6.38
429.122	6.44
429.482	6.44
429.842	6.5
430.202	6.23
430.563	6.39
430.923	6.37
431.283	6.38
431.643	6.47
432.003	6.35
432.363	6.27
432.722	6.28
433.082	6.41
433.442	6.29
433.802	6.54
434.161	6.24
434.521	6.33
434.881	6.34
435.24	6.43
435.6	6.35
435.959	6.47
436.319	6.41
436.678	6.58
437.037	6.48
437.396	6.4
437.756	6.36
438.115	6.44
438.474	6.3
438.833	6.36
439.192	6.43
439.551	6.38
439.91	6.38
440.269	6.21
440.628	6.36
440.987	6.34
441.345	6.52
441.704	6.43
442.063	6.34
442.421	6.52
442.78	6.38
443.138	6.42
443.497	6.32
443.855	6.34
444.214	6.4
444.572	6.46
444.93	6.39
445.288	6.37
445.647	6.67
446.005	6.38
446.363	6.21
446.721	6.23
447.079	6.35
447.437	6.28
447.795	6.45
448.153	6.4
448.51	6.3
448.868	6.35
449.226	6.54
449.584	6.43
449.941	6.45
450.299	6.51
450.656	6.45
451.014	6.47
451.371	6.49
451.729	6.46
452.086	6.32
452.443	6.65
452.801	6.54
453.158	6.37
453.515	6.57
453.872	6.51
454.229	6.58
454.586	6.26
454.943	6.53
455.3	6.37
455.657	6.68
456.014	6.61
456.371	6.6
456.727	6.32
457.084	6.38
457.441	6.57
457.797	6.45
458.154	6.55
458.51	6.4
458.867	6.62
459.223	6.6
459.58	6.43
459.936	6.25
460.292	6.53
460.648	6.51
461.005	6.41
461.361	6.34
461.717	6.4
462.073	6.42
462.429	6.38
462.785	6.53
463.141	6.5
463.496	6.33
463.852	6.78
464.208	6.5
464.564	6.55
464.919	6.72
465.275	6.48
465.631	6.65
465.986	6.55
466.342	6.59
466.697	6.68
467.052	6.84
467.408	6.45
467.763	6.61
468.118	6.53
468.473	6.6
468.829	6.58
469.184	6.51
469.539	6.77
469.894	6.74
470.249	6.48
470.603	6.6
470.958	6.64
471.313	6.55
471.668	6.7
472.023	6.43
472.377	6.52
472.732	6.84
473.086	6.52
473.441	6.5
473.795	6.48
474.15	6.78
474.504	6.57
474.859	6.59
475.213	6.42
475.567	6.56
475.921	6.66
476.275	6.38
476.63	6.56
476.984	6.68
477.338	6.51
477.692	6.57
478.045	6.65
478.399	6.47
478.753	6.52
479.107	6.63
479.461	6.64
479.814	6.54
480.168	6.46
480.521	6.55
480.875	6.65
481.228	6.66
481.582	6.67
481.935	6.64
482.289	6.83
482.642	6.73
482.995	6.55
483.348	6.51
483.701	6.69
484.055	6.58
484.408	6.41
484.761	6.51
485.114	6.35
485.466	6.34
485.819	6.28
486.172	6.23
486.525	6.25
486.878	6.29
487.23	6.28
487.583	6.36
487.936	6.5
488.288	6.37
488.641	6.43
488.993	6.38
489.345	6.43
489.698	6.35
490.05	6.32
490.402	6.39
490.754	6.44
491.107	6.39
491.459	6.5
491.811	6.58
492.163	6.49
492.515	6.54
492.866	6.39
493.218	6.37
493.57	6.42
493.922	6.32
494.274	6.37
494.625	6.5
494.977	6.61
495.328	6.68
495.68	6.5
496.031	6.59
496.383	6.61
496.734	6.7
497.086	6.55
497.437	6.62
497.788	6.64
498.139	6.53
498.49	6.65
498.842	6.55
499.193	6.54
499.544	6.63
499.894	6.5
500.245	6.7
500.596	6.65
500.947	6.54
501.298	6.68
501.648	6.72
501.999	6.57
502.35	6.59
502.7	6.67
503.051	6.66
503.401	6.6
503.752	6.72
504.102	6.52
504.452	6.74
504.803	6.75
505.153	6.74
505.503	6.77
505.853	6.77
506.203	6.85
506.553	6.63
506.903	6.73
507.253	6.57
507.603	6.66
507.953	6.71
508.303	6.64
508.652	6.67
509.002	6.57
509.352	6.72
509.701	6.85
510.051	6.65
510.4	6.6
510.75	6.57
511.099	6.58
511.449	6.68
511.798	6.67
512.147	6.65
512.496	6.69
512.846	6.76
513.195	6.6
513.544	6.77
513.893	6.69
514.242	6.65
514.591	6.62
514.939	6.73
515.288	6.59
515.637	6.57
515.986	6.68
516.334	6.81
516.683	6.61
517.032	6.66
517.38	6.67
517.729	6.7
518.077	6.71
518.426	6.74
518.774	6.64
519.122	6.78
519.47	6.72
519.819	6.77
520.167	6.61
520.515	6.66
520.863	6.74
521.211	6.51
521.559	6.74
521.907	6.67
522.255	6.63
522.602	6.64
522.95	6.72
523.298	6.76
523.645	6.78
523.993	6.81
524.341	6.77
524.688	6.62
525.036	6.79
525.383	6.67
525.73	6.71
526.078	6.68
526.425	6.67
526.772	6.71
527.119	6.67
527.466	6.69
527.814	6.6
528.161	6.75
528.508	6.6
528.854	6.64
529.201	6.69
529.548	6.66
529.895	6.52
530.242	6.48
530.588	6.5
530.935	6.47
531.282	6.52
531.628	6.53
531.975	6.58
532.321	6.68
532.667	6.57
533.014	6.59
533.36	6.7
533.706	6.66
534.052	6.63
534.399	6.63
534.745	6.68
535.091	6.61
535.437	6.64
535.783	6.58
536.129	6.59
536.474	6.67
536.82	6.61
537.166	6.75
537.512	6.73
537.857	6.79
538.203	6.73
538.549	6.73
538.894	6.68
539.239	6.66
539.585	6.73
539.93	6.71
540.276	6.7
540.621	6.74
540.966	6.79
541.311	6.82
541.656	6.79
542.001	6.71
542.346	6.67
542.691	6.57
543.036	6.53
543.381	6.41
543.726	6.58
544.071	6.55
544.415	6.56
544.76	6.59
545.105	6.63
545.449	6.73
545.794	6.74
546.138	6.61
546.483	6.74
546.827	6.68
547.171	6.73
547.516	6.81
547.86	6.82
548.204	6.79
548.548	6.78
548.892	6.73
549.236	6.68
549.58	6.83
549.924	6.81
550.268	6.81
550.612	6.72
550.956	6.8
551.3	6.91
551.643	6.79
551.987	6.85
552.33	6.79
552.674	6.95
553.017	6.93
553.361	6.92
553.704	6.89
554.048	6.79
554.391	6.83
554.734	6.86
555.077	6.92
555.42	6.82
555.764	6.89
556.107	6.72
556.45	6.7
556.793	6.81
557.135	6.76
557.478	6.81
557.821	6.75
558.164	6.75
558.507	6.8
558.849	6.76
559.192	6.76
559.534	6.86
559.877	7.11
560.219	6.97
560.562	6.94
560.904	6.98
561.246	6.94
561.589	6.71
561.931	6.82
562.273	6.8
562.615	6.68
562.957	6.87
563.299	6.94
563.641	6.97
563.983	6.9
564.325	6.84
564.667	6.87
565.008	6.74
565.35	6.85
565.692	6.89
566.033	6.82
566.375	6.81
566.716	6.78
567.058	6.87
567.399	6.81
567.741	6.8
568.082	6.78
568.423	6.91
568.764	6.92
569.105	6.77
569.447	6.82
569.788	6.85
570.129	6.69
570.47	6.97
570.811	6.86
571.151	7
571.492	6.86
571.833	7.04
572.174	6.79
572.514	6.96
572.855	6.99
573.195	6.65
573.536	6.57
573.876	6.93
574.217	6.81
574.557	6.8
574.898	6.7
575.238	6.8
575.578	6.87
575.918	6.86
576.258	6.9
576.598	6.85
576.938	6.9
577.278	6.87
577.618	6.93
577.958	6.81
578.298	7.02
578.638	6.94
578.977	6.77
579.317	6.92
579.657	6.81
579.996	7
580.336	6.84
580.675	6.65
581.014	7
581.354	6.78
581.693	6.83
582.032	6.74
582.372	6.94
582.711	6.91
583.05	7.11
583.389	6.97
583.728	7.11
584.067	7.07
584.406	7.06
584.745	7.09
585.083	6.83
585.422	6.86
585.761	6.86
586.1	7.08
586.438	7.16
586.777	6.93
587.115	7.1
587.454	6.85
587.792	6.9
588.13	7.1
588.469	7.06
588.807	6.91
589.145	7.06
589.483	6.89
589.821	6.85
590.159	6.77
590.497	7.02
590.835	6.9
591.173	6.99
591.511	6.94
591.849	6.77
592.187	6.84
592.524	6.82
592.862	6.8
593.2	6.66
593.537	6.7
593.875	6.91
594.212	6.9
594.55	7.09
594.887	7.01
595.224	6.81
595.561	6.98
595.899	6.9
596.236	6.82
596.573	6.72
596.91	6.98
597.247	6.94
597.584	7.04
597.921	6.87
598.258	6.98
598.594	7.01
598.931	6.87
599.268	6.86
599.604	6.91
599.941	6.67
600.277	6.66
600.614	7.02
600.95	7
601.287	6.9
601.623	6.84
601.959	6.82
602.296	7.14
602.632	6.76
602.968	6.99
603.304	6.91
603.64	6.91
603.976	6.58
604.312	6.79
604.648	7.04
604.984	6.78
605.319	6.83
605.655	6.85
605.991	6.68
606.326	6.84
606.662	6.98
606.998	6.89
607.333	6.81
607.668	6.83
608.004	6.95
608.339	6.96
608.674	7.03
609.01	6.84
609.345	7
609.68	6.98
610.015	6.66
610.35	6.84
610.685	7.07
611.02	6.92
611.355	6.92
611.689	6.74
612.024	6.66
612.359	7.23
612.694	6.81
613.028	6.96
613.363	6.89
613.697	6.86
614.032	6.98
614.366	7.24
614.7	7.03
615.035	6.87
615.369	6.93
615.703	7.09
616.037	6.85
616.371	6.99
616.705	6.93
617.039	6.74
617.373	7.03
617.707	6.67
618.041	7.02
618.375	6.68
618.709	6.72
619.042	7.18
619.376	6.78
619.71	6.77
620.043	6.88
620.377	7.03
620.71	6.69
621.043	6.31
621.377	6.36
621.71	6.7
622.043	7.18
622.376	7.33
622.709	6.98
623.043	6.92
623.376	7.2
623.709	7.13
624.041	7.22
624.374	6.69
624.707	6.85
625.04	6.85
625.373	7.47
625.705	6.91
626.038	6.89
626.37	7.31
626.703	7.13
627.035	6.82
627.368	7.23
627.7	6.66
628.032	6.71
628.365	6.55
628.697	6.97
629.029	6.86
629.361	6.74
629.693	6.92
630.025	6.54
630.357	6.73
630.689	6.92
631.021	7.07
631.353	7.26
631.684	7.21
632.016	6.9
632.348	7
632.679	6.8
633.011	7.55
633.342	7.05
633.674	7.01
634.005	7.14
634.336	7.01
634.668	7.08
634.999	7.34
635.33	7.01
635.661	7.04
635.992	6.95
636.323	6.73
636.654	7.16
636.985	7.06
637.316	6.78
637.647	6.31
637.977	6.97
638.308	7.23
638.639	6.6
638.969	6.92
639.3	6.86
639.63	7.06
639.961	7.1
640.291	6.39
640.622	7.2
640.952	7.06
641.282	6.7
641.612	7.17
641.943	6.75
642.273	7.31
642.603	7.22
642.933	6.95
643.263	6.64
643.592	7.3
643.922	7.38
644.252	7.09
644.582	6.72
644.911	7.12
645.241	6.72
645.571	7.54
645.9	6.79
646.23	6.61
646.559	7.14
646.888	6.77
647.218	7.05
647.547	7.05
647.876	6.68
648.205	6.35
648.534	6.99
648.863	6.61
649.192	7.17
649.521	7.47
649.85	6.28
650.179	7.13
650.508	7.09
650.837	6.93
651.165	7.17
651.494	7.03
651.822	7.46
652.151	7.42
652.479	6.95
652.808	6.94
653.136	7.02
653.465	7.49
653.793	7.46
654.121	7.27
654.449	7.6
654.777	7.13
655.105	7.76
655.433	7.35
655.761	7
656.089	6.81
656.417	7.3
656.745	7.05
657.073	7.01
657.4	7.13
657.728	6.35
658.056	6.69
658.383	6.67
658.711	7.27
659.038	7.06
659.365	7.11
659.693	6.57
660.02	6.63
660.347	7.29
660.674	7.79
661.001	6.81
661.329	7.01
661.656	7.02
661.982	7.26
662.309	7.58
662.636	6.9
662.963	7.06
663.29	7.34
663.616	7.11
663.943	7.41
664.27	7.42
664.596	7.03
664.923	7.52
665.249	6.66
665.576	6.51
665.902	6.76
666.228	7.47
666.554	6.79
666.881	6.48
667.207	7.16
667.533	6.76
667.859	7.08
668.185	6.95
668.511	7.33
668.837	6.88
669.162	7.54
669.488	7.35
669.814	7.23
670.139	7.07
670.465	6.29
670.791	7.12
671.116	6.96
671.442	6.73
671.767	7.12
672.092	7.4
672.418	7.05
672.743	7.05
673.068	6.14
673.393	7.23
673.718	7.07
674.043	7.71
674.368	6.68
674.693	7.71
675.018	5.99
675.343	6.76
675.667	6.98
675.992	7.02
676.317	5.87
676.641	6.58
676.966	7.37
677.29	6.99
677.615	7.12
677.939	7.17
678.264	7.95
678.588	7.17
678.912	7.42
679.236	6.63
679.56	6.99
679.885	7.19
680.209	7.72
680.532	7.11
680.856	6.96
681.18	6.72
681.504	7.12
681.828	7.04
682.152	7.09
682.475	7.41
682.799	6.92
683.122	7.16
683.446	7.04
683.769	7.69
684.093	7.12
684.416	6.77
684.739	7.36
685.062	6.76
685.386	7.02
685.709	7.76
686.032	7
686.355	6.99
686.678	7.92
687.001	6.98
687.324	6.88
687.646	7.24
687.969	7.3
688.292	7.92
688.614	7.11
688.937	6.83
689.26	7.98
689.582	6.61
689.904	7.32
690.227	6.87
690.549	7.32
690.871	7.58
691.194	7.58
691.516	7.23
691.838	6.64
692.16	7.39
692.482	7.72
692.804	7.46
693.126	7.54
693.448	7.34
693.769	7.25
694.091	7.3
694.413	8.46
694.735	7.57
695.056	6.77
695.378	7.74
695.699	7.3
696.021	5.96
696.342	7.71
696.663	6.9
696.984	5.81
697.306	6.75
697.627	6.46
697.948	7.82
698.269	7.61
698.59	7.75
698.911	7.95
699.232	6.85
699.553	7.55
699.873	7.96
700.194	7.71
700.515	7.59
700.835	7.42
701.156	6.95
701.477	7.47
701.797	7.32
702.117	7.35
702.438	7.98
702.758	6.71
703.078	7.95
703.398	7.35
703.719	7.29
704.039	7.15
704.359	7.23
704.679	8.18
704.999	7.66
705.319	6.93
705.638	7.94
705.958	7.35
706.278	8.43
706.597	7.64
706.917	7.85
707.237	7.94
707.556	8.92
707.876	7.7
708.195	8.16
708.514	7.77
708.834	8.37
709.153	6.99
709.472	7.8
709.791	7.88
710.11	7.75
710.429	6.6
710.748	7.33
711.067	8.22
711.386	7.14
711.705	7.73
712.023	7.86
712.342	7.74
712.661	7.64
712.979	8.5
713.298	8.57
713.616	8.69
713.935	7.83
714.253	7.54
714.572	7.37
714.89	8.67
715.208	8.12
715.526	7.92
715.844	7.27
716.162	7.81
716.48	7.14
716.798	7.57
717.116	7.97
717.434	7.73
717.752	6.43
718.069	7.86
718.387	6.87
718.705	7.39
719.022	8.38
719.34	8
719.657	8.07
719.975	8.15
720.292	8.01
720.609	7.99
720.927	6.37
721.244	7.03
721.561	9.03
721.878	7.64
722.195	7.63
722.512	8.54
722.829	8.84
723.146	6.26
723.463	9.6
723.779	6.78
724.096	7.37
724.413	7.75
724.729	7.02
725.046	7.01
725.362	6.76
725.679	6.05
725.995	7.58
726.311	7.68
726.628	7.61
726.944	7.75
727.26	6.35
727.576	6.84
727.892	7.38
728.208	7.05
728.524	6.76
728.84	7.14
729.156	8.18
729.472	8.69
729.787	8.22
730.103	8.17
730.419	7.02
730.734	6.79
731.05	9.29
731.365	7.69
731.681	6.93
731.996	8.17
732.311	6.77
732.626	7.99
732.942	7.99
733.257	8.15
733.572	8.09
733.887	9.28
734.202	8.92
734.517	7.96
734.832	7.39
735.146	9.05
735.461	9.18
735.776	8.33
736.091	8.66
736.405	6.83
736.72	7.05
737.034	9.12
737.349	6.76
737.663	9.02
737.977	7.82
738.292	6.44
738.606	7.64
738.92	6.08
739.234	8.71
739.548	9.31
739.862	8.73
740.176	6.79
740.49	6.93
740.804	8.66
741.117	5.15
741.431	9.1
741.745	8.88
742.058	7.5
742.372	9.1
742.685	7.6
742.999	7.96
743.312	7.53
743.626	7.96
743.939	9.5
744.252	8.68
744.565	8.81
744.878	8.22
745.191	8.16
745.505	8.99
745.817	10.05
746.13	8.29
746.443	8.04
746.756	9.37
747.069	8.18
747.381	8.44
747.694	8.55
748.007	8.29
748.319	9.1
748.632	10.08
748.944	7.56
749.256	7.86
749.569	7.56
749.881	9.26
750.193	8.86
750.505	8.59
750.817	8.69
751.129	8.87
751.441	9.37
751.753	10.58
752.065	7.21
752.377	8.48
752.689	9.14
753	7.8
753.312	9.7
753.624	9.33
753.935	9.26
754.247	10.18
754.558	7.51
754.869	6.68
755.181	9.55
755.492	8.34
755.803	8.29
756.114	8.36
756.425	8.57
756.736	8.97
757.047	7.86
757.358	8.38
757.669	7.61
757.98	9.15
758.291	4.76
758.601	9.4
758.912	7.4
759.223	6.83
759.533	7.59
759.844	7.15
760.154	10.17
760.464	8.65
760.775	10.22
761.085	7.58
761.395	7.96
761.705	10.43
762.016	8.2
762.326	7.64
762.636	8.95
762.945	7.32
763.255	8.47
763.565	6.24
763.875	8.46
764.185	8.66
764.494	9.32
764.804	8.3
765.113	9.4
765.423	9.38
765.732	7.92
766.042	8.98
766.351	8.83
766.66	8.12
766.97	8.49
767.279	7.49
767.588	8.03
767.897	10.87
768.206	8.73
768.515	10.38
768.824	8.65
769.133	8.31
769.441	8.74
769.75	6.33
770.059	8.54
770.367	7.53
770.676	10.56
770.984	8.62
771.293	9.01
771.601	7.98
771.91	9.66
772.218	9.95
772.526	5.27
772.834	9.25
773.142	6.74
773.45	8.36
773.758	8.52
774.066	11.57
774.374	7.64
774.682	8.05
774.99	4.29
775.298	10.7
775.605	11.13
775.913	10.08
776.22	6.58
776.528	6.5
776.835	7.63
777.143	9.44
777.45	5
777.757	9.22
778.065	6
778.372	11.01
778.679	9.45
778.986	8.38
779.293	10.32
779.6	5.95
779.907	7.91
780.214	9.73
780.52	7.64
780.827	9.11
781.134	11.63
781.44	10.31
781.747	4.86
782.053	8
782.36	5.33
782.666	4.77
782.973	9.36
783.279	6.56
783.585	10.59
783.891	12.75
784.197	12.33
784.503	6.82
784.809	7.99
785.115	11.92
785.421	9.99
785.727	9.8
786.033	7.65
786.339	7.51
786.644	7.95
786.95	11.57
787.255	10.52
787.561	6.49
787.866	13.83
788.172	10.03
788.477	6.32
788.782	8.72
789.088	11.76
789.393	6.02
789.698	8.69
790.003	9.22
790.308	10.46
790.613	8.94
790.918	8.44
791.223	7.38
791.527	12.08
791.832	10.47
792.137	6.77
792.441	13.6
792.746	12.15
793.05	10.27
793.355	8.2
793.659	8.46
793.963	13.04
794.268	4.17
794.572	8.38
794.876	7.19
795.18	5.43
795.484	4.88
795.788	8.89
796.092	3.95
796.396	11.01
796.7	5.3
797.004	15.4
797.307	4.89
797.611	4.6
797.915	5.29
798.218	2.69
798.522	9.04
798.825	12.43
799.128	11.37
799.432	6.99
799.735	6.45
800.038	8.56
800.341	11.59
800.644	5.15
800.947	12.45
801.25	6.11
801.553	6.14
801.856	16.18
802.159	12.36
802.462	12.86
802.764	8.06
803.067	5.92
803.37	8.31
803.672	4.24
803.975	5.59
804.277	9.49
804.579	7.58
804.882	6.18
805.184	11.34
805.486	4.89
805.788	10.31
806.09	11.02
806.392	7.73
806.694	14.82
806.996	3.28
807.298	9.95
807.6	15.02
807.902	9.39
808.203	6.67
808.505	10.27
808.807	7.07
809.108	7.99
809.409	11.25
809.711	5.71
810.012	8.58
810.313	7.95
810.615	7.22
810.916	4.8
811.217	7.99
811.518	1.26
811.819	8.12
812.12	10.18
812.421	4.96
812.722	10.89
813.023	8.53
813.323	8.02
813.624	12.65
813.925	11.16
814.225	1.67
814.526	10.42
814.826	21.7
815.126	4.84
815.427	11.9
815.727	10.94
816.027	12.48
816.327	4.54
816.627	14.86
816.927	17.31
817.227	7.13
817.527	8.87
817.827	5.01
818.127	9.08
818.427	6.9
818.727	1.51
819.026	10.3
819.326	3.87
819.625	0.58
819.925	8.95
820.224	6.29
820.524	7.86
820.823	14.61
821.122	6.23
821.421	6.28
821.72	6.8
822.019	4.38
822.318	5.5
822.617	9.87
822.916	6.87
823.215	12.15
823.514	10.24
823.813	10.82
824.111	9.18
824.41	9.25
824.709	12.32
825.007	11.16
825.306	11.99
825.604	11.01
825.902	10.34
826.201	11.33
826.499	10.12
826.797	11.64
827.095	10.81
827.393	10.12
827.691	12.1
827.989	6.98
828.287	11.3
828.585	11.55
828.882	9.57
829.18	10.75
829.478	9.82
829.775	12.17
830.073	10.16
830.37	12.3
830.668	10.6
830.965	12.15
831.263	11.29
831.56	7.4
831.857	7.47
832.154	6.45
832.451	5.28
832.748	9.71
833.045	10.32
833.342	6.86
833.639	13.53
833.936	6.03
834.232	10.52
834.529	11.77
834.826	15.48
835.122	11.17
835.419	12.14
835.715	10.16
836.012	2.3
836.308	8.31
836.604	14.68
836.901	12.8
837.197	10.9
837.493	13.57
837.789	8.48
838.085	11.6
838.381	8.03
838.677	9.12
838.972	12.67
839.268	5.41
839.564	14.06
839.86	5.44
840.155	4.58
840.451	2.55
840.746	15.71
841.042	3.4
841.337	9.87
841.632	2.87
841.928	5.19
842.223	3.17
842.518	4.58
842.813	7.4
843.108	8.13
843.403	-5.44
843.698	14.3
843.993	5.37
844.287	6.35
844.582	12.02
844.877	13.27
845.171	7.52
845.466	16.28
845.761	16.08
846.055	9.75
846.349	7.55
846.644	10.46
846.938	11.41
847.232	15.9
847.526	17.34
847.82	17.34
848.114	20.48
848.408	6.61
848.702	7.16
848.996	21.41
849.29	23.07
849.584	7.91
849.877	2.34
850.171	-2.42
850.465	1.66
850.758	0.44
851.052	0.82
851.345	21.36
851.638	-4.67
851.932	4.06
852.225	-7.35
852.518	23.47
852.811	40.83
853.104	11.13
853.397	17.04
853.69	-5.46
853.983	28.78
854.276	-12.55
854.569	15.49
854.861	-8.26
855.154	21.61
855.447	3.73
855.739	19.2
856.032	13.75
856.324	1.44
856.616	8.63
856.909	-9.35
857.201	16.51
857.493	-20.96
857.785	9.34
858.077	8.24
858.369	9.26
858.661	1.31
858.953	13.05
859.245	-13.61
859.537	-9.75
859.829	7.67
860.12	-13.89
860.412	-16.91
860.703	1.09
860.995	31.12
861.286	-2.44
861.578	15.41
861.869	7.84
862.16	-17.98
862.452	9.01
862.743	-34.27
863.034	14.37
863.325	9.95
863.616	16.08
863.907	41.84
864.198	27.71
864.488	29.53
864.779	14.7
865.07	-85.68
865.36	12.54
865.651	-49.73
865.941	-25.5
866.232	22.93
866.522	-20.85
866.813	-28.55
867.103	-0.11
867.393	-3.9
867.683	12.63
867.973	20.94
868.263	8.59
868.553	16.66
868.843	-5.08
869.133	-17.14
869.423	9.57
869.713	15.78
870.002	-21.77
870.292	27.99
870.582	1.82
870.871	13.11
871.161	27.75
871.45	21.02
871.739	9.12
872.029	-14.65
872.318	4.61
872.607	12.49
872.896	13.53
873.185	-10.63
873.474	18.81
873.763	6.83
874.052	7.8
874.341	33.28
874.63	41.18
874.918	-31.13
875.207	18.37
875.496	14.36
875.784	49.18
876.073	21.44
876.361	14.59
876.649	7.28
876.938	15.14
877.226	7.16
877.514	-126.95
877.802	18.85
878.09	-13.29
878.378	28.14
878.666	7.77
878.954	-8.59
879.242	3.53
879.53	32.07
879.817	9.34
880.105	27.16
880.392	-3.25
880.68	23.24
880.967	32.97
881.255	32.07
881.542	-15.03
881.83	34.08
882.117	7.16
882.404	16.82
882.691	-14.24
882.978	-11.87
883.265	15.35
883.552	4.96
883.839	8.99
884.126	-1
884.413	14.78
884.699	23.71
884.986	7.5
885.273	8.79
885.559	8.79
885.846	8.79
