Data from 0401_forehead_Reflection__3__211.txt Node

Date: Tue Dec 12 20:08:06 CST 2023
User: ToomeyLab
Spectrometer: FLMS14357
Trigger mode: 0
Integration Time (sec): 1.000000E-2
Scans to average: 100
Electric dark correction enabled: true
Nonlinearity correction enabled: false
Boxcar width: 0
XAxis mode: Wavelengths
Number of Pixels in Spectrum: 2048
>>>>>Begin Spectral Data<<<<<
189.047	-343.28
189.435	-343.28
189.823	-343.28
190.211	-13.32
190.599	139.5
190.987	4.4
191.375	-430.86
191.763	118.66
192.151	171.2
192.538	-43.35
192.926	88.4
193.314	-1270.19
193.702	-39.99
194.089	348.95
194.477	81.58
194.864	-12.48
195.252	-554.85
195.639	-1400.21
196.027	-1108.83
196.414	45.99
196.801	97.79
197.189	12.23
197.576	0.69
197.963	71.89
198.351	22.31
198.738	-12.05
199.125	47
199.512	1.82
199.899	13.08
200.286	-23.69
200.673	-87.28
201.06	4.25
201.447	-81.47
201.833	-77.59
202.22	27.02
202.607	-94.39
202.994	56.26
203.38	-4.14
203.767	-54.88
204.154	-9.29
204.54	53.52
204.927	5.31
205.313	50.14
205.699	21.55
206.086	48.68
206.472	46.39
206.858	36.12
207.245	19.88
207.631	24.74
208.017	9.66
208.403	-52.41
208.789	27.22
209.175	-22.34
209.561	47.36
209.947	-39.55
210.333	6.33
210.719	28.08
211.105	-13.06
211.491	35.59
211.876	12.75
212.262	29.47
212.648	11.12
213.034	-30.41
213.419	21.34
213.805	49.36
214.19	15.1
214.576	10.28
214.961	-11.68
215.346	32.96
215.732	31.55
216.117	4.82
216.502	-29.28
216.888	29.58
217.273	-28.56
217.658	-69.44
218.043	9.27
218.428	48.07
218.813	-22.57
219.198	-56.94
219.583	40.6
219.968	8.38
220.353	4.25
220.738	19.33
221.122	-8.44
221.507	9.27
221.892	14.63
222.276	11.17
222.661	4.87
223.046	2.43
223.43	21.23
223.815	-0.85
224.199	15.6
224.583	6.27
224.968	16.16
225.352	1.92
225.736	13.05
226.121	3.44
226.505	14.65
226.889	8.65
227.273	11.05
227.657	14.68
228.041	4.91
228.425	1.6
228.809	6.7
229.193	1.58
229.577	10.11
229.961	5.97
230.344	6.45
230.728	6.61
231.112	7.02
231.495	6.35
231.879	8.64
232.263	6
232.646	6.28
233.03	6.04
233.413	6.58
233.797	6.19
234.18	4.98
234.563	5.08
234.946	6.36
235.33	9.41
235.713	6.9
236.096	6.47
236.479	4.96
236.862	6.39
237.245	5.84
237.628	6.65
238.011	5.19
238.394	4.81
238.777	6.17
239.16	7.71
239.543	6.32
239.925	7.18
240.308	7.39
240.691	6.61
241.073	7.81
241.456	6.06
241.838	5.73
242.221	6.85
242.603	7.11
242.986	6.29
243.368	6.75
243.75	6.28
244.133	6.09
244.515	6.53
244.897	6.07
245.279	6.51
245.661	5.41
246.043	5.96
246.425	6.34
246.807	5.2
247.189	6.07
247.571	6.36
247.953	5.99
248.335	6.45
248.717	6
249.098	6.19
249.48	5.54
249.862	5.37
250.243	6.25
250.625	6.86
251.006	5.71
251.388	6.63
251.769	5.6
252.151	5.17
252.532	6.99
252.913	6.28
253.295	7.66
253.676	6.1
254.057	5.35
254.438	5.97
254.819	6.06
255.2	6.15
255.581	6.27
255.962	6.39
256.343	5.67
256.724	6.61
257.105	7.1
257.486	5.48
257.867	5.95
258.247	5.27
258.628	7.42
259.009	5.47
259.389	6.15
259.77	6.41
260.15	6.06
260.531	6.56
260.911	6.23
261.292	5.6
261.672	5.8
262.052	5.77
262.432	5.95
262.813	5.74
263.193	5.93
263.573	6.68
263.953	6.61
264.333	6.59
264.713	5.51
265.093	5.56
265.473	5.81
265.853	4.39
266.233	5.68
266.612	5.38
266.992	5.54
267.372	6.14
267.752	6.66
268.131	5.44
268.511	5.38
268.89	4.87
269.27	6.08
269.649	5.51
270.029	5.6
270.408	5.76
270.787	5.51
271.167	5.51
271.546	5.84
271.925	6.46
272.304	6.09
272.683	4.9
273.062	5.36
273.441	5.67
273.82	5.25
274.199	5.53
274.578	5.38
274.957	5.3
275.336	5.26
275.715	5.84
276.093	4.98
276.472	5.71
276.851	4.74
277.229	4.75
277.608	6.04
277.986	4.77
278.365	6
278.743	5.46
279.122	5.96
279.5	5.63
279.878	5.76
280.257	5.68
280.635	4.82
281.013	5.77
281.391	6.02
281.769	6.33
282.147	5.59
282.525	5.26
282.903	5.23
283.281	5.09
283.659	5.77
284.037	5.78
284.415	5.69
284.792	6.27
285.17	6.14
285.548	5.75
285.925	5.8
286.303	5.45
286.68	5.65
287.058	6.17
287.435	5.69
287.813	5.24
288.19	5.68
288.567	5.64
288.945	5.56
289.322	5.34
289.699	5.3
290.076	5.3
290.453	6.26
290.83	5.41
291.207	6.51
291.584	5.73
291.961	6.43
292.338	5.92
292.715	5.84
293.092	5.87
293.469	6.08
293.845	6.11
294.222	6.07
294.599	6.15
294.975	5.21
295.352	6.09
295.728	6.13
296.105	5.99
296.481	6.58
296.858	6.15
297.234	6.97
297.61	6.22
297.986	6.1
298.363	6.12
298.739	6.11
299.115	5.61
299.491	5.94
299.867	5.77
300.243	5.81
300.619	6.23
300.995	6.16
301.371	6.23
301.746	5.9
302.122	6.38
302.498	6.22
302.874	6.34
303.249	6.34
303.625	6.21
304	6.71
304.376	5.96
304.751	7.03
305.127	6.48
305.502	6.76
305.878	6.73
306.253	6.49
306.628	6.36
307.003	6.88
307.378	6.42
307.754	6.49
308.129	5.82
308.504	7.5
308.879	6.59
309.254	6.87
309.629	6.5
310.003	7.24
310.378	7.21
310.753	7.46
311.128	6.83
311.502	6.31
311.877	6.85
312.252	6.72
312.626	7.1
313.001	7.16
313.375	6.76
313.75	6.73
314.124	7.25
314.498	7.13
314.873	6.69
315.247	7.13
315.621	6.97
315.995	7.36
316.369	7.34
316.743	6.67
317.117	6.86
317.491	7.1
317.865	7.63
318.239	7.36
318.613	7.66
318.987	7.79
319.361	6.92
319.734	7.29
320.108	7.74
320.482	7.5
320.855	7.37
321.229	7.44
321.602	7.39
321.976	7.5
322.349	7.6
322.723	7.77
323.096	7.1
323.469	7.74
323.843	8.11
324.216	7.5
324.589	7.52
324.962	7.74
325.335	8.01
325.708	7.9
326.081	7.88
326.454	7.77
326.827	8.34
327.2	7.51
327.573	7.89
327.945	8.09
328.318	8.43
328.691	7
329.063	7.6
329.436	8.13
329.809	7.92
330.181	7.14
330.553	7.68
330.926	8.63
331.298	7.8
331.671	7.74
332.043	7.97
332.415	8.51
332.787	8.11
333.159	7.78
333.532	7.34
333.904	7.69
334.276	8.88
334.648	8.07
335.02	7.65
335.391	8.51
335.763	8.26
336.135	8.62
336.507	8.79
336.879	8.23
337.25	8.33
337.622	8.52
337.993	8.05
338.365	7.84
338.736	8.5
339.108	8.27
339.479	8.87
339.851	8.59
340.222	8.39
340.593	8.3
340.964	8.41
341.336	8.6
341.707	8.45
342.078	7.65
342.449	8.67
342.82	8.77
343.191	8.63
343.562	8.54
343.933	9.31
344.303	9.09
344.674	9.13
345.045	9.34
345.416	8.81
345.786	8.5
346.157	8.61
346.527	9.56
346.898	8.82
347.268	9.03
347.639	9.02
348.009	9.01
348.38	8.7
348.75	9.01
349.12	9.48
349.49	8.93
349.861	9.38
350.231	8.8
350.601	9.24
350.971	9.17
351.341	9.51
351.711	9.49
352.081	8.87
352.45	8.99
352.82	9.27
353.19	9.21
353.56	9.36
353.929	9.34
354.299	9.12
354.669	9.56
355.038	8.97
355.408	9.17
355.777	9.54
356.147	9.28
356.516	9.21
356.885	9.16
357.254	9.51
357.624	9.43
357.993	9.5
358.362	9.42
358.731	9.94
359.1	9.22
359.469	9.54
359.838	9.59
360.207	9.74
360.576	9.77
360.945	9.36
361.314	9.74
361.682	9.71
362.051	10.19
362.42	10.16
362.788	9.9
363.157	10.09
363.525	9.94
363.894	9.65
364.262	9.84
364.631	9.55
364.999	10
365.367	10.07
365.735	9.75
366.104	10.27
366.472	9.79
366.84	9.99
367.208	10.28
367.576	10.29
367.944	10.01
368.312	10.33
368.68	10.26
369.048	10.41
369.416	10.29
369.783	9.91
370.151	10.34
370.519	10.29
370.886	10.26
371.254	10.07
371.621	10.75
371.989	10.23
372.356	10.27
372.724	10.47
373.091	10.63
373.458	10.29
373.826	10.68
374.193	10.39
374.56	10.64
374.927	10.56
375.294	10.42
375.661	10.62
376.028	11.21
376.395	11.19
376.762	11.33
377.129	10.86
377.496	10.59
377.863	10.93
378.229	11.12
378.596	10.58
378.963	11.16
379.329	10.81
379.696	10.57
380.062	11.24
380.429	11.11
380.795	11.3
381.161	11.12
381.528	11.03
381.894	11.28
382.26	10.97
382.626	11.09
382.993	11.15
383.359	11.21
383.725	11.22
384.091	11.11
384.457	11.15
384.823	11.47
385.188	11.28
385.554	11.47
385.92	11.65
386.286	11.58
386.651	11.57
387.017	11.85
387.383	11.4
387.748	11.62
388.114	11.57
388.479	11.89
388.845	11.92
389.21	11.63
389.575	11.68
389.94	12.07
390.306	12.07
390.671	11.74
391.036	11.24
391.401	11.68
391.766	11.85
392.131	11.91
392.496	12.02
392.861	11.82
393.226	12.24
393.591	11.83
393.956	12.05
394.32	12.25
394.685	12.24
395.05	12.12
395.414	12.15
395.779	12.13
396.143	12.18
396.508	12.34
396.872	12.18
397.236	12.4
397.601	12.11
397.965	12.35
398.329	12.41
398.694	12.35
399.058	12.68
399.422	12.29
399.786	12.53
400.15	12.4
400.514	12.66
400.878	12.89
401.242	12.77
401.605	12.83
401.969	12.82
402.333	13.01
402.697	12.8
403.06	12.61
403.424	12.68
403.787	12.52
404.151	12.99
404.514	12.53
404.878	12.81
405.241	12.82
405.604	12.82
405.968	12.85
406.331	13.18
406.694	13.03
407.057	12.75
407.42	12.96
407.783	13.17
408.146	13.12
408.509	13.28
408.872	12.99
409.235	13.22
409.598	13.11
409.961	13.36
410.323	13.35
410.686	13.52
411.049	13.46
411.411	13.49
411.774	13.51
412.136	13.31
412.499	13.23
412.861	13.67
413.223	13.93
413.586	13.48
413.948	13.65
414.31	13.7
414.672	13.81
415.035	13.87
415.397	13.8
415.759	13.75
416.121	13.87
416.483	13.82
416.845	13.72
417.206	13.92
417.568	13.58
417.93	13.97
418.292	14.12
418.653	14.01
419.015	14.02
419.377	13.95
419.738	13.83
420.1	13.94
420.461	14.1
420.822	13.98
421.184	14
421.545	14.14
421.906	13.93
422.267	14.1
422.629	14.03
422.99	14.07
423.351	13.94
423.712	13.99
424.073	14.01
424.434	14.34
424.795	14.29
425.155	14.06
425.516	13.96
425.877	14.29
426.238	14.12
426.598	14.28
426.959	14.28
427.32	14.32
427.68	14.38
428.041	14.55
428.401	14.7
428.761	14.51
429.122	14.6
429.482	14.93
429.842	14.68
430.202	14.61
430.563	14.71
430.923	14.82
431.283	14.79
431.643	15.16
432.003	14.88
432.363	15.08
432.722	15.01
433.082	15.07
433.442	15.12
433.802	15.18
434.161	15.03
434.521	15.33
434.881	15.25
435.24	15.22
435.6	15.21
435.959	15.37
436.319	15.4
436.678	15.31
437.037	15.46
437.396	15.47
437.756	15.34
438.115	15.62
438.474	15.33
438.833	15.5
439.192	15.85
439.551	15.64
439.91	15.33
440.269	15.58
440.628	15.59
440.987	15.56
441.345	15.72
441.704	15.61
442.063	15.79
442.421	15.79
442.78	15.74
443.138	15.78
443.497	15.79
443.855	15.76
444.214	15.87
444.572	15.94
444.93	16.22
445.288	15.82
445.647	16.02
446.005	16.05
446.363	15.87
446.721	16.04
447.079	15.96
447.437	15.96
447.795	16.18
448.153	16.03
448.51	16.13
448.868	16.16
449.226	16.23
449.584	16.23
449.941	16.29
450.299	16.35
450.656	16.39
451.014	16.49
451.371	16.63
451.729	16.61
452.086	16.65
452.443	16.79
452.801	16.6
453.158	16.74
453.515	16.95
453.872	16.77
454.229	16.75
454.586	16.93
454.943	16.82
455.3	16.9
455.657	16.87
456.014	17.09
456.371	17.28
456.727	17.31
457.084	17.09
457.441	17.22
457.797	17
458.154	17.11
458.51	17.11
458.867	17.24
459.223	17.44
459.58	17.45
459.936	17.19
460.292	17.42
460.648	17.48
461.005	17.36
461.361	17.34
461.717	17.32
462.073	17.28
462.429	17.25
462.785	17.41
463.141	17.54
463.496	17.54
463.852	17.9
464.208	17.63
464.564	17.76
464.919	18.04
465.275	18.04
465.631	17.94
465.986	17.86
466.342	17.94
466.697	18.25
467.052	18.16
467.408	18.06
467.763	18.27
468.118	18.34
468.473	18.24
468.829	18.17
469.184	18.21
469.539	18.42
469.894	18.47
470.249	18.44
470.603	18.44
470.958	18.49
471.313	18.67
471.668	18.57
472.023	18.64
472.377	18.65
472.732	18.68
473.086	18.81
473.441	18.84
473.795	18.97
474.15	18.89
474.504	18.66
474.859	18.93
475.213	18.89
475.567	18.88
475.921	19.14
476.275	19.07
476.63	19.14
476.984	19.17
477.338	19.04
477.692	18.89
478.045	19.14
478.399	19.01
478.753	19.14
479.107	19.15
479.461	19.24
479.814	19.56
480.168	19.24
480.521	19.34
480.875	19.36
481.228	19.67
481.582	19.54
481.935	19.61
482.289	19.68
482.642	19.72
482.995	19.6
483.348	19.52
483.701	19.72
484.055	19.56
484.408	19.54
484.761	19.46
485.114	19.17
485.466	18.89
485.819	18.9
486.172	19.01
486.525	18.97
486.878	19.07
487.23	19.32
487.583	19.46
487.936	19.64
488.288	19.7
488.641	19.67
488.993	19.53
489.345	19.58
489.698	19.45
490.05	19.48
490.402	19.54
490.754	19.74
491.107	19.83
491.459	19.96
491.811	20.19
492.163	20.2
492.515	20.3
492.866	20.11
493.218	20.04
493.57	19.95
493.922	19.97
494.274	20.03
494.625	20.28
494.977	20.45
495.328	20.62
495.68	20.68
496.031	20.92
496.383	21.06
496.734	21.04
497.086	21.06
497.437	21.18
497.788	21.15
498.139	21.06
498.49	21.14
498.842	21.04
499.193	21.21
499.544	21.27
499.894	21.26
500.245	21.35
500.596	21.48
500.947	21.4
501.298	21.67
501.648	21.77
501.999	21.61
502.35	21.77
502.7	21.99
503.051	21.79
503.401	21.89
503.752	21.96
504.102	21.92
504.452	21.95
504.803	21.97
505.153	22.12
505.503	22.03
505.853	22.25
506.203	22.12
506.553	22.1
506.903	22.05
507.253	22.23
507.603	22.35
507.953	22.3
508.303	22.35
508.652	22.37
509.002	22.39
509.352	22.37
509.701	22.37
510.051	22.52
510.4	22.46
510.75	22.35
511.099	22.39
511.449	22.62
511.798	22.55
512.147	22.55
512.496	22.89
512.846	22.75
513.195	22.76
513.544	22.88
513.893	22.79
514.242	22.96
514.591	22.77
514.939	23.05
515.288	23.16
515.637	23.03
515.986	23.09
516.334	23.34
516.683	23.31
517.032	23.39
517.38	23.42
517.729	23.38
518.077	23.64
518.426	23.5
518.774	23.64
519.122	23.42
519.47	23.59
519.819	23.49
520.167	23.22
520.515	23.29
520.863	23.29
521.211	23.41
521.559	23.42
521.907	23.76
522.255	23.6
522.602	23.77
522.95	24.19
523.298	23.95
523.645	24.26
523.993	24.08
524.341	24.12
524.688	24.08
525.036	24.31
525.383	24.36
525.73	24.27
526.078	24.44
526.425	24.23
526.772	24.29
527.119	24.26
527.466	24.3
527.814	24
528.161	24.24
528.508	24.11
528.854	24.18
529.201	24.37
529.548	24.29
529.895	24.12
530.242	24
530.588	23.92
530.935	24.03
531.282	24.08
531.628	24.24
531.975	24.25
532.321	24.47
532.667	24.57
533.014	24.77
533.36	24.81
533.706	24.88
534.052	25.01
534.399	24.99
534.745	24.92
535.091	24.77
535.437	24.88
535.783	24.83
536.129	24.9
536.474	25.11
536.82	25.26
537.166	25.48
537.512	25.49
537.857	25.58
538.203	25.56
538.549	25.47
538.894	25.62
539.239	25.66
539.585	25.79
539.93	25.88
540.276	25.9
540.621	25.99
540.966	26.11
541.311	26.15
541.656	26.16
542.001	26.08
542.346	26.11
542.691	25.92
543.036	25.77
543.381	25.64
543.726	25.78
544.071	25.86
544.415	25.95
544.76	26.09
545.105	26.26
545.449	26.28
545.794	26.57
546.138	26.63
546.483	26.76
546.827	26.84
547.171	26.8
547.516	26.83
547.86	27.07
548.204	26.98
548.548	26.97
548.892	27.07
549.236	27.16
549.58	27.24
549.924	27.31
550.268	27.34
550.612	27.56
550.956	27.5
551.3	27.94
551.643	27.95
551.987	27.79
552.33	28.17
552.674	28.08
553.017	28.33
553.361	28.12
553.704	27.98
554.048	28.08
554.391	28.17
554.734	27.98
555.077	28.24
555.42	28.07
555.764	28.3
556.107	28.3
556.45	28.47
556.793	28.33
557.135	28.49
557.478	28.84
557.821	28.48
558.164	28.82
558.507	28.98
558.849	28.79
559.192	28.88
559.534	29.07
559.877	29.28
560.219	29.09
560.562	29.04
560.904	29.26
561.246	29.29
561.589	29.34
561.931	29.1
562.273	29.58
562.615	29.44
562.957	29.14
563.299	29.45
563.641	29.46
563.983	29.37
564.325	29.29
564.667	29.5
565.008	29.8
565.35	29.74
565.692	29.86
566.033	29.8
566.375	29.96
566.716	29.7
567.058	30.16
567.399	30.09
567.741	30.11
568.082	30.06
568.423	29.86
568.764	30.08
569.105	29.94
569.447	30.24
569.788	30.1
570.129	30.05
570.47	30.45
570.811	30.47
571.151	30.6
571.492	30.54
571.833	30.66
572.174	30.61
572.514	30.69
572.855	30.7
573.195	30.56
573.536	30.65
573.876	30.73
574.217	30.85
574.557	30.74
574.898	30.69
575.238	31.09
575.578	30.9
575.918	30.98
576.258	31.18
576.598	31.08
576.938	31.44
577.278	31.21
577.618	31.32
577.958	31.27
578.298	31.39
578.638	31.19
578.977	31.51
579.317	31.59
579.657	31.62
579.996	31.84
580.336	32.02
580.675	31.94
581.014	32.1
581.354	31.87
581.693	32.12
582.032	32.09
582.372	32.31
582.711	32.22
583.05	32.33
583.389	32.54
583.728	32.49
584.067	32.75
584.406	32.87
584.745	32.68
585.083	32.46
585.422	32.87
585.761	32.66
586.1	32.8
586.438	32.93
586.777	32.95
587.115	32.83
587.454	32.93
587.792	32.78
588.13	33.02
588.469	32.73
588.807	33.03
589.145	33.05
589.483	33.16
589.821	33.42
590.159	33.5
590.497	33.17
590.835	33.5
591.173	33.43
591.511	33.4
591.849	33.42
592.187	33.68
592.524	33.34
592.862	33.57
593.2	33.54
593.537	33.61
593.875	33.84
594.212	33.89
594.55	34.3
594.887	34.32
595.224	34.02
595.561	34.06
595.899	33.92
596.236	33.89
596.573	34.34
596.91	34.47
597.247	34.48
597.584	34.36
597.921	34.36
598.258	34.59
598.594	34.47
598.931	34.06
599.268	34.21
599.604	34.33
599.941	34.36
600.277	34.5
600.614	34.53
600.95	34.52
601.287	34.85
601.623	34.66
601.959	35.15
602.296	35.13
602.632	34.96
602.968	35.08
603.304	34.98
603.64	35.34
603.976	35.05
604.312	35.13
604.648	35.12
604.984	35.14
605.319	35.23
605.655	35.47
605.991	35.19
606.326	35.32
606.662	35.25
606.998	35.07
607.333	35.54
607.668	35.49
608.004	35.68
608.339	35.52
608.674	35.8
609.01	35.7
609.345	36.01
609.68	36.14
610.015	35.58
610.35	35.72
610.685	36.09
611.02	36.39
611.355	35.99
611.689	36.16
612.024	36.15
612.359	36.24
612.694	36.32
613.028	36.35
613.363	36.11
613.697	36.5
614.032	36.58
614.366	36.44
614.7	36.78
615.035	36.74
615.369	36.6
615.703	36.72
616.037	36.7
616.371	36.77
616.705	36.58
617.039	37.12
617.373	36.89
617.707	36.76
618.041	37.68
618.375	37.41
618.709	37.05
619.042	37.06
619.376	37.07
619.71	37.1
620.043	37.48
620.377	37.6
620.71	37.29
621.043	37.66
621.377	37.58
621.71	37.69
622.043	37.77
622.376	38.12
622.709	38.11
623.043	37.85
623.376	38.37
623.709	38.1
624.041	37.91
624.374	38.24
624.707	37.63
625.04	37.82
625.373	38.11
625.705	38.4
626.038	38.54
626.37	38.47
626.703	38.5
627.035	38.57
627.368	38.63
627.7	38.53
628.032	38.28
628.365	38.33
628.697	38.59
629.029	38.23
629.361	38.58
629.693	38.8
630.025	38.51
630.357	38.93
630.689	38.68
631.021	39.19
631.353	39.46
631.684	39.05
632.016	39.15
632.348	39.28
632.679	38.45
633.011	39.73
633.342	39.01
633.674	39.37
634.005	39.76
634.336	39.58
634.668	39.69
634.999	39.66
635.33	39.52
635.661	40.08
635.992	39.45
636.323	39.18
636.654	39.46
636.985	39.59
637.316	39.48
637.647	39.55
637.977	39.71
638.308	40.2
638.639	40.18
638.969	39.6
639.3	40.38
639.63	40.13
639.961	40.36
640.291	39.4
640.622	39.87
640.952	40.2
641.282	40.6
641.612	40.16
641.943	40.07
642.273	40.82
642.603	40.24
642.933	39.91
643.263	40.12
643.592	41.44
643.922	40.42
644.252	40.61
644.582	40.44
644.911	39.98
645.241	41.12
645.571	41.76
645.9	40.59
646.23	40.15
646.559	41.39
646.888	40.91
647.218	41.24
647.547	41.22
647.876	41.2
648.205	41.32
648.534	41.9
648.863	41.48
649.192	41.12
649.521	41.69
649.85	41.32
650.179	41.88
650.508	41.71
650.837	41.35
651.165	41.66
651.494	41.37
651.822	41.37
652.151	42.17
652.479	41.44
652.808	41.96
653.136	41.57
653.465	41.72
653.793	42.72
654.121	42.59
654.449	41.79
654.777	42.08
655.105	41.86
655.433	41.83
655.761	42.15
656.089	41.57
656.417	42.23
656.745	41.94
657.073	42.39
657.4	42.28
657.728	42.36
658.056	42.33
658.383	42.27
658.711	42.55
659.038	43.31
659.365	42.45
659.693	42.73
660.02	42.76
660.347	42.92
660.674	43.15
661.001	42.64
661.329	42.39
661.656	42.88
661.982	42.67
662.309	43.02
662.636	42.08
662.963	42.91
663.29	43.46
663.616	42.82
663.943	43.35
664.27	43.96
664.596	42.96
664.923	44.13
665.249	43.29
665.576	43.58
665.902	43.4
666.228	43.73
666.554	43.1
666.881	43.91
667.207	43.67
667.533	43.76
667.859	43.6
668.185	43.44
668.511	44.19
668.837	43.36
669.162	43.88
669.488	43.63
669.814	44.07
670.139	43.29
670.465	43.62
670.791	44.13
671.116	43.59
671.442	43.7
671.767	44.04
672.092	43.89
672.418	44.09
672.743	43.95
673.068	44.37
673.393	44.3
673.718	43.93
674.043	44.1
674.368	44.01
674.693	44.57
675.018	44.49
675.343	44.03
675.667	44.95
675.992	44.95
676.317	44.37
676.641	44.19
676.966	45.11
677.29	44.3
677.615	45.18
677.939	44.64
678.264	44.99
678.588	45.14
678.912	45.55
679.236	44.39
679.56	45.37
679.885	44.76
680.209	45.25
680.532	44.55
680.856	46.4
681.18	44.63
681.504	45.27
681.828	45.4
682.152	45.27
682.475	45.72
682.799	45.26
683.122	45.59
683.446	45.28
683.769	45.48
684.093	44.87
684.416	44.88
684.739	45.42
685.062	45.85
685.386	46.26
685.709	46.03
686.032	45.3
686.355	45.44
686.678	46.15
687.001	45.37
687.324	45.79
687.646	45.72
687.969	45.5
688.292	45.76
688.614	46.51
688.937	46.24
689.26	46.05
689.582	45.9
689.904	45.87
690.227	45.35
690.549	46.23
690.871	46.54
691.194	47.32
691.516	46.32
691.838	45.97
692.16	46.85
692.482	45.72
692.804	46.74
693.126	45.68
693.448	46.55
693.769	47.43
694.091	47.74
694.413	46.86
694.735	47.03
695.056	45.77
695.378	47.81
695.699	47.45
696.021	45.77
696.342	46.47
696.663	46.63
696.984	47.12
697.306	47.03
697.627	46.36
697.948	48.06
698.269	47.61
698.59	47.42
698.911	46.85
699.232	47.02
699.553	47.07
699.873	48.02
700.194	47.29
700.515	47.36
700.835	47.27
701.156	47.62
701.477	47.75
701.797	48.05
702.117	46.6
702.438	47.31
702.758	47.55
703.078	47.31
703.398	47.96
703.719	47.92
704.039	48.03
704.359	46.04
704.679	48.22
704.999	48.59
705.319	46.49
705.638	47.38
705.958	48.11
706.278	48.03
706.597	48.49
706.917	47.73
707.237	49.02
707.556	49.58
707.876	47.71
708.195	47.79
708.514	49.19
708.834	48.18
709.153	48.16
709.472	46.59
709.791	48.47
710.11	47.69
710.429	49.65
710.748	48.89
711.067	48.08
711.386	48.08
711.705	49.11
712.023	48.21
712.342	48.65
712.661	47.65
712.979	49.28
713.298	49.15
713.616	49.03
713.935	49.11
714.253	49.69
714.572	49.16
714.89	49.24
715.208	49.35
715.526	49
715.844	48.85
716.162	48.89
716.48	48.82
716.798	48.8
717.116	48.96
717.434	50.68
717.752	48.62
718.069	48.55
718.387	49.57
718.705	49.58
719.022	50.23
719.34	48.68
719.657	49.17
719.975	48.81
720.292	50.34
720.609	49.52
720.927	48.62
721.244	48.93
721.561	49.08
721.878	49.09
722.195	48.8
722.512	50.77
722.829	49.24
723.146	48.51
723.463	49.55
723.779	48.54
724.096	50.1
724.413	50.01
724.729	49.58
725.046	50.64
725.362	49.16
725.679	49.97
725.995	50.81
726.311	47.78
726.628	49.16
726.944	49.84
727.26	50.58
727.576	50.67
727.892	50.11
728.208	49.73
728.524	50.44
728.84	51.91
729.156	49.86
729.472	50.37
729.787	50.26
730.103	52.08
730.419	48.62
730.734	49.79
731.05	50.69
731.365	49.8
731.681	51.17
731.996	50.49
732.311	50.26
732.626	50.25
732.942	51.5
733.257	50.62
733.572	52.05
733.887	50.22
734.202	50.68
734.517	50.6
734.832	50.52
735.146	50.66
735.461	52.12
735.776	50.34
736.091	50.94
736.405	51.26
736.72	49.03
737.034	52.29
737.349	51.34
737.663	52.54
737.977	50
738.292	49.62
738.606	50.87
738.92	51.43
739.234	52.47
739.548	51.13
739.862	49.71
740.176	50.92
740.49	50.09
740.804	52.91
741.117	50.06
741.431	51.24
741.745	52.11
742.058	51.3
742.372	51.94
742.685	53.23
742.999	50.71
743.312	52.19
743.626	53.18
743.939	52.37
744.252	52.31
744.565	53
744.878	49.33
745.191	50.78
745.505	51.36
745.817	52.36
746.13	53.17
746.443	51.21
746.756	51.8
747.069	53.02
747.381	51.11
747.694	51.53
748.007	52.55
748.319	52.25
748.632	54
748.944	51.5
749.256	52.7
749.569	54.25
749.881	52.19
750.193	51.09
750.505	52.85
750.817	56.42
751.129	51.73
751.441	52.46
751.753	53.81
752.065	51.13
752.377	52.4
752.689	50.75
753	52.73
753.312	52.59
753.624	51.7
753.935	52.13
754.247	53.58
754.558	54.42
754.869	50.11
755.181	52.75
755.492	52.28
755.803	52.03
756.114	51.75
756.425	53.62
756.736	52.11
757.047	52.05
757.358	54.13
757.669	53.09
757.98	53.24
758.291	51.66
758.601	52.51
758.912	51.58
759.223	53.13
759.533	50.67
759.844	53.02
760.154	55.86
760.464	54.43
760.775	53.13
761.085	51.94
761.395	52.65
761.705	54.09
762.016	53.75
762.326	52.86
762.636	53.21
762.945	53.29
763.255	51.22
763.565	52.3
763.875	51.5
764.185	52.82
764.494	52.88
764.804	50.88
765.113	53.46
765.423	53.95
765.732	54.44
766.042	53.5
766.351	53.59
766.66	53.2
766.97	53.82
767.279	55.85
767.588	53
767.897	56.65
768.206	55.4
768.515	54.66
768.824	53.33
769.133	54.89
769.441	53.47
769.75	52.05
770.059	56.5
770.367	52.12
770.676	52.9
770.984	50.3
771.293	55.06
771.601	53.87
771.91	54.8
772.218	56.41
772.526	52.6
772.834	55.75
773.142	56.9
773.45	54.49
773.758	55.92
774.066	54.33
774.374	50.06
774.682	53.66
774.99	51.68
775.298	55.32
775.605	53.76
775.913	52.55
776.22	52.8
776.528	53.71
776.835	56.53
777.143	56.21
777.45	53.13
777.757	53.87
778.065	55.48
778.372	56.29
778.679	54.09
778.986	59
779.293	55.29
779.6	56.03
779.907	51.72
780.214	55.36
780.52	53.92
780.827	54.94
781.134	53.28
781.44	56.17
781.747	54.57
782.053	55.4
782.36	53.63
782.666	50.15
782.973	52.52
783.279	52.73
783.585	50.95
783.891	56.85
784.197	52.8
784.503	57.54
784.809	53.78
785.115	55.14
785.421	56.87
785.727	56.73
786.033	54.42
786.339	53.84
786.644	51.75
786.95	55.63
787.255	58.12
787.561	50.9
787.866	52.02
788.172	58.14
788.477	54.75
788.782	57.96
789.088	56.25
789.393	53.49
789.698	59.26
790.003	56.92
790.308	54.39
790.613	52.02
790.918	56.93
791.223	56.31
791.527	54.48
791.832	57.19
792.137	54.75
792.441	58.18
792.746	53.63
793.05	55.77
793.355	57.51
793.659	58.01
793.963	52.97
794.268	52.41
794.572	54.95
794.876	51.32
795.18	50.2
795.484	51.92
795.788	56.01
796.092	55.29
796.396	57.3
796.7	56.2
797.004	56.24
797.307	52.76
797.611	57.07
797.915	54.24
798.218	55.57
798.522	57.51
798.825	59.26
799.128	58.92
799.432	57.26
799.735	53.64
800.038	57.15
800.341	56.14
800.644	59.4
800.947	57.61
801.25	51.5
801.553	54.07
801.856	54.51
802.159	56.21
802.462	56.4
802.764	57.1
803.067	54.57
803.37	47.32
803.672	56.41
803.975	52.52
804.277	57.57
804.579	56.13
804.882	55.56
805.184	56.34
805.486	56.23
805.788	55.71
806.09	52.34
806.392	56.57
806.694	56.32
806.996	56.91
807.298	56.13
807.6	58.49
807.902	56.18
808.203	58.02
808.505	62.52
808.807	62.65
809.108	54.51
809.409	56.56
809.711	56.66
810.012	55.91
810.313	52.7
810.615	51.2
810.916	56.35
811.217	60.4
811.518	53.96
811.819	54.45
812.12	56.97
812.421	52.85
812.722	57.69
813.023	53.45
813.323	60.06
813.624	62.27
813.925	61.42
814.225	56.67
814.526	60.59
814.826	61.94
815.126	50.42
815.427	53.64
815.727	53.95
816.027	52.71
816.327	62.71
816.627	59.96
816.927	61.95
817.227	57.01
817.527	54.69
817.827	50.67
818.127	52.69
818.427	52.8
818.727	51.95
819.026	49.2
819.326	58.21
819.625	56.96
819.925	51.8
820.224	57.88
820.524	48.77
820.823	58.79
821.122	59.93
821.421	56.03
821.72	53.67
822.019	54.69
822.318	58.42
822.617	57.82
822.916	54.83
823.215	56.98
823.514	62.65
823.813	59.74
824.111	60.25
824.41	58.25
824.709	58.76
825.007	58.86
825.306	59.01
825.604	57.76
825.902	59.58
826.201	58.02
826.499	57.53
826.797	57.84
827.095	57.82
827.393	57.35
827.691	57.79
827.989	55.68
828.287	59.45
828.585	58.07
828.882	55.72
829.18	58.32
829.478	55.64
829.775	60.66
830.073	59.64
830.37	59.01
830.668	57.39
830.965	58.62
831.263	57.2
831.56	56.28
831.857	56.52
832.154	60.42
832.451	55.58
832.748	54.97
833.045	54.17
833.342	56.51
833.639	55.04
833.936	52.03
834.232	58.54
834.529	50.33
834.826	65.05
835.122	58.61
835.419	58.09
835.715	56.83
836.012	53.14
836.308	53.93
836.604	56.97
836.901	58.94
837.197	58.99
837.493	56.89
837.789	55.51
838.085	56.25
838.381	55.2
838.677	55.41
838.972	59.99
839.268	53.39
839.564	63.03
839.86	51.24
840.155	51.01
840.451	51.56
840.746	55.92
841.042	66.73
841.337	59.44
841.632	55.38
841.928	56.9
842.223	59.26
842.518	58.01
842.813	59.72
843.108	57.08
843.403	55.31
843.698	55.23
843.993	52.14
844.287	51.34
844.582	47.63
844.877	63.89
845.171	57.71
845.466	50.99
845.761	57.79
846.055	46.09
846.349	56.12
846.644	56.19
846.938	61.43
847.232	68.32
847.526	53.1
847.82	57
848.114	57.35
848.408	59.52
848.702	48.77
848.996	41.53
849.29	53.35
849.584	42.11
849.877	52.62
850.171	55.09
850.465	61.65
850.758	32.16
851.052	46.15
851.345	67.38
851.638	51.8
851.932	47.76
852.225	24.48
852.518	81.48
852.811	61.55
853.104	25.24
853.397	62.38
853.69	59.23
853.983	47.54
854.276	34.45
854.569	36.03
854.861	61.17
855.154	69.84
855.447	55.09
855.739	74.98
856.032	52.22
856.324	60.79
856.616	44.98
856.909	36.45
857.201	54.08
857.493	27.07
857.785	45.87
858.077	59.35
858.369	72.21
858.661	40.4
858.953	48.05
859.245	51.38
859.537	58.24
859.829	65.26
860.12	68.46
860.412	26.99
860.703	73.51
860.995	59.43
861.286	73.16
861.578	88.68
861.869	43.37
862.16	30.22
862.452	99.98
862.743	46.82
863.034	68.84
863.325	50.72
863.616	91.35
863.907	42.7
864.198	71.25
864.488	45.95
864.779	60.92
865.07	64.27
865.36	65.12
865.651	28.71
865.941	69.97
866.232	52.42
866.522	62.02
866.813	93.36
867.103	49.37
867.393	90.7
867.683	63.11
867.973	57.23
868.263	42.07
868.553	81.21
868.843	35.56
869.133	46.84
869.423	47.95
869.713	72.23
870.002	10.31
870.292	41.05
870.582	41.12
870.871	62.96
871.161	70.72
871.45	71.42
871.739	50.31
872.029	23.58
872.318	45.64
872.607	50.93
872.896	38.32
873.185	10.37
873.474	64.02
873.763	67.38
874.052	78.25
874.341	74.86
874.63	108.82
874.918	58.36
875.207	40.36
875.496	87.86
875.784	59.15
876.073	47.02
876.361	54.71
876.649	65.35
876.938	41.33
877.226	31.05
877.514	4.47
877.802	60.03
878.09	75.82
878.378	54.27
878.666	75.7
878.954	96.37
879.242	59.55
879.53	58.5
879.817	45.83
880.105	114.79
880.392	72.47
880.68	75.84
880.967	56.87
881.255	66.04
881.542	55.35
881.83	101.16
882.117	56.1
882.404	79.33
882.691	32.27
882.978	57.34
883.265	46.04
883.552	44.14
883.839	72.57
884.126	59.04
884.413	69.52
884.699	73.57
884.986	68.83
885.273	60.71
885.559	60.71
885.846	60.71
