Data from 0037_chest_Reflection__2__47.txt Node

Date: Fri Nov 04 15:04:44 CDT 2022
User: ToomeyLab
Spectrometer: FLMS14357
Trigger mode: 0
Integration Time (sec): 1.000000E-2
Scans to average: 100
Electric dark correction enabled: true
Nonlinearity correction enabled: false
Boxcar width: 0
XAxis mode: Wavelengths
Number of Pixels in Spectrum: 2048
>>>>>Begin Spectral Data<<<<<
189.047	825.22
189.435	825.22
189.823	825.22
190.211	53.49
190.599	-45.94
190.987	74.88
191.375	34.9
191.763	-1864.34
192.151	125.91
192.538	143.64
192.926	7.98
193.314	116.48
193.702	85.64
194.089	811.8
194.477	288.18
194.864	126.18
195.252	29.65
195.639	66.38
196.027	478.47
196.414	331.67
196.801	168.92
197.189	-90.95
197.576	176.58
197.963	-28.17
198.351	-5.29
198.738	20.66
199.125	9.46
199.512	-20.18
199.899	-40.96
200.286	-36.75
200.673	-4.36
201.06	-32.61
201.447	-33.48
201.833	-6.62
202.22	-21.74
202.607	3.05
202.994	36.16
203.38	9.84
203.767	20.62
204.154	39.89
204.54	-22.84
204.927	-10.4
205.313	15.69
205.699	11.12
206.086	19.26
206.472	-1.35
206.858	-16.7
207.245	4.25
207.631	14.43
208.017	9.66
208.403	-7.7
208.789	9.63
209.175	-18.87
209.561	-44.66
209.947	-81.28
210.333	3.44
210.719	-1.29
211.105	-34.9
211.491	-10.28
211.876	-11.51
212.262	-40.01
212.648	-21.32
213.034	15.53
213.419	-21.58
213.805	-5.42
214.19	-8
214.576	-11.73
214.961	28.32
215.346	-9.21
215.732	4.78
216.117	-27.96
216.502	5.09
216.888	-14.06
217.273	19.19
217.658	-2.69
218.043	-5.7
218.428	5.87
218.813	-3.36
219.198	13.44
219.583	-2.54
219.968	8.6
220.353	-27.57
220.738	-10.33
221.122	1.83
221.507	2.13
221.892	-28
222.276	-13.03
222.661	-3.22
223.046	-10.19
223.43	1.45
223.815	-11.86
224.199	9.56
224.583	7.15
224.968	5.07
225.352	1.2
225.736	-6.25
226.121	-12.37
226.505	4.18
226.889	0.46
227.273	-2.14
227.657	-0.09
228.041	1.11
228.425	3.87
228.809	3.53
229.193	2.4
229.577	0.05
229.961	3.38
230.344	3.04
230.728	3.42
231.112	2.87
231.495	2.52
231.879	4.43
232.263	2.14
232.646	2.95
233.03	2.14
233.413	0.88
233.797	1.63
234.18	1.88
234.563	2.94
234.946	1.29
235.33	2.69
235.713	3.48
236.096	3.55
236.479	2.53
236.862	2.39
237.245	1.35
237.628	2.84
238.011	1.45
238.394	3.41
238.777	1.5
239.16	3.65
239.543	2.14
239.925	3.22
240.308	4.51
240.691	1.48
241.073	2.13
241.456	1.48
241.838	1.03
242.221	3.34
242.603	2.49
242.986	2.46
243.368	2.99
243.75	2.72
244.133	2.72
244.515	2.93
244.897	2.99
245.279	2.51
245.661	2.5
246.043	3.24
246.425	2.61
246.807	3.55
247.189	2.29
247.571	3.09
247.953	2.55
248.335	2.52
248.717	2.7
249.098	2.62
249.48	2.85
249.862	2.9
250.243	2.72
250.625	2.59
251.006	2.72
251.388	2.57
251.769	2.55
252.151	3.32
252.532	2.61
252.913	1.74
253.295	2.66
253.676	2.69
254.057	2.58
254.438	2.23
254.819	2.46
255.2	2.14
255.581	2.77
255.962	2.74
256.343	2.57
256.724	3.46
257.105	1.62
257.486	2.42
257.867	4.22
258.247	2.9
258.628	2.05
259.009	1.99
259.389	2.35
259.77	2.75
260.15	2.52
260.531	2.7
260.911	2.1
261.292	2.53
261.672	2.4
262.052	2.51
262.432	2.62
262.813	2.24
263.193	2.04
263.573	2.46
263.953	2.31
264.333	2.51
264.713	2.65
265.093	2.41
265.473	2.88
265.853	1.57
266.233	2.12
266.612	2.99
266.992	2.57
267.372	1.95
267.752	2.44
268.131	2.9
268.511	2.38
268.89	2.81
269.27	2.21
269.649	2.54
270.029	2.04
270.408	2.57
270.787	2.85
271.167	2.15
271.546	3.25
271.925	2.6
272.304	2.77
272.683	2.31
273.062	2.36
273.441	2.75
273.82	2.14
274.199	2.42
274.578	2.05
274.957	2.62
275.336	2.36
275.715	2.32
276.093	2.38
276.472	2.4
276.851	1.97
277.229	2.56
277.608	2.21
277.986	2.24
278.365	2.28
278.743	2.61
279.122	1.9
279.5	2.38
279.878	2.56
280.257	2.01
280.635	2.13
281.013	2.43
281.391	2.88
281.769	2.4
282.147	1.63
282.525	2.24
282.903	2.68
283.281	2.33
283.659	2.46
284.037	2.06
284.415	2.18
284.792	2.21
285.17	2.1
285.548	2.84
285.925	2.02
286.303	2.29
286.68	2.76
287.058	2.14
287.435	2.23
287.813	2.35
288.19	2.33
288.567	2.15
288.945	2.3
289.322	2.27
289.699	2.44
290.076	2.48
290.453	2.55
290.83	1.85
291.207	2.35
291.584	2.34
291.961	2.16
292.338	2.22
292.715	2.49
293.092	2.48
293.469	2.44
293.845	2.59
294.222	2.27
294.599	1.8
294.975	2.27
295.352	2.07
295.728	2.07
296.105	2.36
296.481	2.14
296.858	2.37
297.234	2.52
297.61	2.83
297.986	2.33
298.363	2.14
298.739	2.3
299.115	2.64
299.491	2.36
299.867	2.47
300.243	2.34
300.619	2.28
300.995	2.61
301.371	2.79
301.746	2
302.122	2.29
302.498	2.63
302.874	2.48
303.249	2.18
303.625	2.01
304	2.45
304.376	1.77
304.751	2.24
305.127	1.88
305.502	1.91
305.878	2.13
306.253	2.12
306.628	1.84
307.003	2.23
307.378	2.07
307.754	2.18
308.129	2.08
308.504	2.32
308.879	2.72
309.254	2.53
309.629	2.44
310.003	2.41
310.378	2.77
310.753	2.47
311.128	2.13
311.502	2.13
311.877	2.39
312.252	2.21
312.626	2.12
313.001	2.48
313.375	2.33
313.75	2.28
314.124	2.35
314.498	2.62
314.873	2.9
315.247	2.32
315.621	2.24
315.995	2.54
316.369	2.35
316.743	2.73
317.117	2.82
317.491	2.43
317.865	2.01
318.239	2.41
318.613	2.99
318.987	2.52
319.361	2.35
319.734	2.6
320.108	2.4
320.482	1.52
320.855	2.5
321.229	2.01
321.602	2.25
321.976	2.2
322.349	2.94
322.723	2.21
323.096	2.48
323.469	2.53
323.843	2.26
324.216	2.36
324.589	2.16
324.962	2.65
325.335	2.27
325.708	2.16
326.081	2.39
326.454	2.17
326.827	2.4
327.2	2.49
327.573	2.13
327.945	2.59
328.318	2.14
328.691	2.63
329.063	2.27
329.436	2.35
329.809	2.39
330.181	2.14
330.553	2.18
330.926	2.39
331.298	2.82
331.671	2.31
332.043	2.68
332.415	2.5
332.787	2.13
333.159	1.92
333.532	1.79
333.904	2.62
334.276	2.25
334.648	2.79
335.02	2.09
335.391	2.72
335.763	2.31
336.135	2.19
336.507	2.6
336.879	2.19
337.25	2.85
337.622	2.57
337.993	2.46
338.365	2.25
338.736	2.6
339.108	2.97
339.479	2.5
339.851	2.44
340.222	2.36
340.593	2.78
340.964	2.26
341.336	2.01
341.707	2.19
342.078	2.02
342.449	2.47
342.82	2.34
343.191	2.3
343.562	2.37
343.933	2.21
344.303	2.48
344.674	2.68
345.045	2.15
345.416	1.73
345.786	2.63
346.157	2.28
346.527	2.71
346.898	2.59
347.268	2.26
347.639	2.31
348.009	2.54
348.38	2.45
348.75	2.31
349.12	2
349.49	2.52
349.861	2.06
350.231	2.68
350.601	2.79
350.971	2.11
351.341	2.29
351.711	2.28
352.081	2.65
352.45	2.37
352.82	2.5
353.19	2.51
353.56	2.4
353.929	2.33
354.299	2.87
354.669	2.61
355.038	2.75
355.408	2.35
355.777	2.53
356.147	2.13
356.516	2.01
356.885	2.26
357.254	2.49
357.624	2.69
357.993	2.34
358.362	2.15
358.731	2.57
359.1	2.57
359.469	2.65
359.838	2.5
360.207	2.4
360.576	2.49
360.945	2.5
361.314	2.75
361.682	2.33
362.051	2.47
362.42	2.57
362.788	2.53
363.157	2.55
363.525	2.66
363.894	2.67
364.262	2.53
364.631	2.52
364.999	2.55
365.367	2.44
365.735	2.72
366.104	2.36
366.472	2.66
366.84	2.26
367.208	2.54
367.576	2.44
367.944	2.61
368.312	2.81
368.68	2.58
369.048	2.38
369.416	2.29
369.783	2.28
370.151	2.29
370.519	3.02
370.886	2.5
371.254	2.71
371.621	2.53
371.989	2.61
372.356	2.65
372.724	2.59
373.091	2.51
373.458	2.55
373.826	2.61
374.193	2.54
374.56	2.54
374.927	2.98
375.294	2.51
375.661	2.76
376.028	2.58
376.395	2.83
376.762	2.49
377.129	2.72
377.496	2.64
377.863	2.67
378.229	2.45
378.596	2.78
378.963	2.54
379.329	2.25
379.696	2.46
380.062	2.74
380.429	2.64
380.795	2.57
381.161	2.43
381.528	2.36
381.894	2.4
382.26	2.68
382.626	2.37
382.993	2.53
383.359	2.57
383.725	2.55
384.091	2.98
384.457	2.61
384.823	2.56
385.188	2.62
385.554	2.67
385.92	2.63
386.286	2.92
386.651	2.78
387.017	2.86
387.383	2.61
387.748	2.39
388.114	2.65
388.479	3.21
388.845	2.54
389.21	2.83
389.575	2.82
389.94	2.77
390.306	2.47
390.671	2.58
391.036	2.59
391.401	2.64
391.766	2.64
392.131	2.55
392.496	2.68
392.861	2.83
393.226	2.57
393.591	2.76
393.956	2.81
394.32	2.63
394.685	2.63
395.05	2.58
395.414	2.64
395.779	2.64
396.143	2.58
396.508	2.52
396.872	2.86
397.236	2.95
397.601	2.66
397.965	2.7
398.329	2.69
398.694	2.97
399.058	2.82
399.422	2.9
399.786	2.54
400.15	2.78
400.514	2.6
400.878	2.75
401.242	2.65
401.605	2.58
401.969	2.87
402.333	3.05
402.697	2.75
403.06	2.84
403.424	2.57
403.787	2.59
404.151	2.72
404.514	2.92
404.878	2.78
405.241	2.75
405.604	2.8
405.968	2.57
406.331	2.88
406.694	2.61
407.057	2.85
407.42	2.87
407.783	2.58
408.146	2.65
408.509	2.79
408.872	2.8
409.235	2.7
409.598	2.84
409.961	2.82
410.323	2.8
410.686	2.7
411.049	2.78
411.411	2.71
411.774	2.77
412.136	2.83
412.499	2.84
412.861	2.81
413.223	2.73
413.586	2.68
413.948	2.84
414.31	2.44
414.672	2.67
415.035	2.92
415.397	2.63
415.759	2.78
416.121	2.52
416.483	2.74
416.845	2.77
417.206	2.94
417.568	2.83
417.93	2.76
418.292	2.63
418.653	2.65
419.015	2.72
419.377	2.77
419.738	2.65
420.1	2.67
420.461	2.73
420.822	2.64
421.184	2.77
421.545	2.61
421.906	2.8
422.267	2.64
422.629	2.81
422.99	2.63
423.351	2.59
423.712	2.73
424.073	2.71
424.434	2.76
424.795	2.72
425.155	2.75
425.516	2.84
425.877	2.72
426.238	2.69
426.598	2.75
426.959	2.68
427.32	2.6
427.68	2.77
428.041	2.8
428.401	2.76
428.761	2.8
429.122	2.76
429.482	2.78
429.842	2.53
430.202	2.88
430.563	2.82
430.923	2.9
431.283	2.65
431.643	2.84
432.003	3.02
432.363	2.82
432.722	2.87
433.082	3.08
433.442	2.74
433.802	2.75
434.161	2.82
434.521	2.73
434.881	2.79
435.24	2.75
435.6	2.9
435.959	2.75
436.319	2.8
436.678	2.87
437.037	2.73
437.396	2.83
437.756	2.86
438.115	2.67
438.474	2.86
438.833	2.99
439.192	2.89
439.551	2.81
439.91	2.89
440.269	2.9
440.628	2.83
440.987	2.81
441.345	2.86
441.704	2.71
442.063	2.79
442.421	2.74
442.78	2.8
443.138	2.86
443.497	2.75
443.855	2.8
444.214	2.87
444.572	2.85
444.93	2.8
445.288	2.83
445.647	2.77
446.005	2.75
446.363	2.85
446.721	2.66
447.079	2.77
447.437	2.69
447.795	2.78
448.153	2.7
448.51	2.79
448.868	2.72
449.226	2.77
449.584	2.78
449.941	2.77
450.299	2.9
450.656	2.77
451.014	2.95
451.371	2.98
451.729	3.01
452.086	2.85
452.443	2.79
452.801	2.86
453.158	2.86
453.515	2.8
453.872	2.74
454.229	2.93
454.586	2.82
454.943	3.04
455.3	2.83
455.657	2.77
456.014	2.91
456.371	2.73
456.727	2.95
457.084	2.94
457.441	2.85
457.797	2.93
458.154	2.95
458.51	2.88
458.867	2.68
459.223	2.92
459.58	3.17
459.936	2.93
460.292	2.85
460.648	2.92
461.005	2.75
461.361	2.87
461.717	2.84
462.073	2.88
462.429	2.9
462.785	2.88
463.141	2.89
463.496	2.78
463.852	3.02
464.208	2.85
464.564	2.83
464.919	2.96
465.275	2.9
465.631	2.96
465.986	2.72
466.342	2.83
466.697	2.9
467.052	2.87
467.408	3.01
467.763	2.85
468.118	2.97
468.473	3.03
468.829	2.87
469.184	2.89
469.539	2.83
469.894	2.95
470.249	2.89
470.603	3.04
470.958	2.82
471.313	2.84
471.668	2.78
472.023	2.76
472.377	2.95
472.732	2.92
473.086	2.87
473.441	2.94
473.795	2.72
474.15	2.92
474.504	2.91
474.859	2.86
475.213	2.97
475.567	2.83
475.921	2.88
476.275	3.05
476.63	2.99
476.984	2.94
477.338	3
477.692	2.97
478.045	2.96
478.399	2.9
478.753	2.94
479.107	2.94
479.461	3.03
479.814	3.09
480.168	3.12
480.521	2.95
480.875	3.07
481.228	2.97
481.582	3
481.935	2.94
482.289	2.87
482.642	3.08
482.995	2.92
483.348	2.89
483.701	2.99
484.055	2.85
484.408	2.9
484.761	2.92
485.114	2.81
485.466	2.74
485.819	2.75
486.172	2.78
486.525	2.81
486.878	2.87
487.23	2.88
487.583	2.91
487.936	2.9
488.288	2.91
488.641	2.92
488.993	2.87
489.345	2.83
489.698	2.83
490.05	2.83
490.402	2.84
490.754	2.86
491.107	2.88
491.459	2.97
491.811	2.88
492.163	2.98
492.515	2.96
492.866	2.95
493.218	2.88
493.57	2.86
493.922	2.9
494.274	2.87
494.625	2.97
494.977	2.94
495.328	3.01
495.68	2.99
496.031	3.06
496.383	3.09
496.734	2.89
497.086	3.12
497.437	3.11
497.788	3.05
498.139	2.94
498.49	3.02
498.842	3.08
499.193	2.96
499.544	3.1
499.894	3.02
500.245	3.02
500.596	2.96
500.947	3.02
501.298	3.1
501.648	3.1
501.999	3.21
502.35	3.01
502.7	3.12
503.051	3.12
503.401	3.01
503.752	3.19
504.102	3.08
504.452	3.11
504.803	3.1
505.153	3.12
505.503	3.04
505.853	3.07
506.203	3
506.553	3.23
506.903	3.06
507.253	3.11
507.603	3.01
507.953	3.15
508.303	3.1
508.652	3.06
509.002	3.29
509.352	3.09
509.701	3.07
510.051	3.02
510.4	3.16
510.75	3.12
511.099	3.09
511.449	3.09
511.798	3.08
512.147	3.14
512.496	3.08
512.846	3
513.195	3.11
513.544	3.16
513.893	3.14
514.242	2.99
514.591	3.1
514.939	3.16
515.288	3.16
515.637	3.18
515.986	3.26
516.334	3.19
516.683	3.16
517.032	3.14
517.38	3.19
517.729	3.3
518.077	3.21
518.426	3.08
518.774	3.24
519.122	3.2
519.47	3.23
519.819	3.17
520.167	3.15
520.515	3.15
520.863	3.13
521.211	3.06
521.559	3.19
521.907	3.2
522.255	3.15
522.602	3.18
522.95	3.19
523.298	3.32
523.645	3.21
523.993	3.28
524.341	3.26
524.688	3.25
525.036	3.28
525.383	3.41
525.73	3.28
526.078	3.26
526.425	3.31
526.772	3.16
527.119	3.26
527.466	3.17
527.814	3.17
528.161	3.14
528.508	3.23
528.854	3.25
529.201	3.16
529.548	3.22
529.895	3.14
530.242	3.1
530.588	3.07
530.935	3.11
531.282	3.15
531.628	3.12
531.975	3.23
532.321	3.26
532.667	3.2
533.014	3.22
533.36	3.34
533.706	3.37
534.052	3.33
534.399	3.3
534.745	3.26
535.091	3.26
535.437	3.28
535.783	3.23
536.129	3.3
536.474	3.35
536.82	3.34
537.166	3.37
537.512	3.35
537.857	3.32
538.203	3.33
538.549	3.32
538.894	3.42
539.239	3.41
539.585	3.37
539.93	3.4
540.276	3.39
540.621	3.37
540.966	3.52
541.311	3.31
541.656	3.41
542.001	3.4
542.346	3.43
542.691	3.44
543.036	3.27
543.381	3.34
543.726	3.35
544.071	3.35
544.415	3.4
544.76	3.44
545.105	3.4
545.449	3.47
545.794	3.42
546.138	3.47
546.483	3.56
546.827	3.55
547.171	3.6
547.516	3.51
547.86	3.49
548.204	3.58
548.548	3.5
548.892	3.5
549.236	3.56
549.58	3.6
549.924	3.64
550.268	3.7
550.612	3.57
550.956	3.74
551.3	3.6
551.643	3.69
551.987	3.59
552.33	3.67
552.674	3.6
553.017	3.86
553.361	3.75
553.704	3.73
554.048	3.56
554.391	3.58
554.734	3.72
555.077	3.73
555.42	3.8
555.764	3.87
556.107	3.93
556.45	3.87
556.793	3.74
557.135	3.79
557.478	3.79
557.821	3.88
558.164	3.84
558.507	3.92
558.849	4.08
559.192	3.92
559.534	3.78
559.877	4.03
560.219	3.77
560.562	3.92
560.904	4.03
561.246	3.88
561.589	3.96
561.931	3.86
562.273	3.99
562.615	3.89
562.957	4.09
563.299	3.95
563.641	3.99
563.983	4.17
564.325	3.87
564.667	3.91
565.008	3.96
565.35	4
565.692	4.21
566.033	4.26
566.375	4.01
566.716	4.15
567.058	4.1
567.399	4.04
567.741	4.21
568.082	4.23
568.423	4.11
568.764	3.97
569.105	4.11
569.447	4.26
569.788	4.17
570.129	4.2
570.47	4.18
570.811	4.13
571.151	4.19
571.492	4.37
571.833	4.32
572.174	4.24
572.514	4.16
572.855	4.11
573.195	4.27
573.536	4.26
573.876	4.11
574.217	4.23
574.557	4.27
574.898	4.42
575.238	4.29
575.578	4.33
575.918	4.39
576.258	4.34
576.598	4.28
576.938	4.43
577.278	4.28
577.618	4.39
577.958	4.4
578.298	4.39
578.638	4.4
578.977	4.53
579.317	4.5
579.657	4.4
579.996	4.38
580.336	4.39
580.675	4.43
581.014	4.65
581.354	4.42
581.693	4.8
582.032	4.65
582.372	4.7
582.711	4.5
583.05	4.74
583.389	4.64
583.728	4.72
584.067	4.78
584.406	4.58
584.745	4.78
585.083	4.54
585.422	4.67
585.761	4.77
586.1	4.57
586.438	4.37
586.777	4.72
587.115	4.83
587.454	4.79
587.792	4.93
588.13	4.74
588.469	4.89
588.807	4.86
589.145	5
589.483	4.58
589.821	5.01
590.159	4.75
590.497	4.94
590.835	5.05
591.173	4.65
591.511	5.07
591.849	4.98
592.187	4.64
592.524	5.19
592.862	4.99
593.2	4.74
593.537	4.84
593.875	5.11
594.212	5.09
594.55	4.96
594.887	5.22
595.224	5.11
595.561	4.75
595.899	5.21
596.236	4.99
596.573	5.29
596.91	5.23
597.247	5.18
597.584	5.05
597.921	5.39
598.258	5.32
598.594	4.95
598.931	5.16
599.268	5.2
599.604	5.03
599.941	5.21
600.277	5.18
600.614	5.32
600.95	5.28
601.287	5.18
601.623	5.25
601.959	5.32
602.296	5.45
602.632	5.39
602.968	5.12
603.304	5.65
603.64	5.41
603.976	5.16
604.312	5.56
604.648	5.43
604.984	5.5
605.319	5.42
605.655	5.42
605.991	5.63
606.326	5.44
606.662	5.51
606.998	5.48
607.333	5.56
607.668	5.65
608.004	5.7
608.339	5.62
608.674	5.73
609.01	5.71
609.345	5.85
609.68	5.53
610.015	5.68
610.35	5.77
610.685	5.77
611.02	5.73
611.355	5.79
611.689	5.86
612.024	5.89
612.359	5.76
612.694	5.78
613.028	6.03
613.363	6
613.697	5.97
614.032	5.97
614.366	5.97
614.7	5.91
615.035	6.11
615.369	5.79
615.703	6.09
616.037	5.95
616.371	6.23
616.705	5.98
617.039	6.29
617.373	6.16
617.707	6.29
618.041	6.17
618.375	6.3
618.709	6.1
619.042	5.94
619.376	6.31
619.71	6.21
620.043	6.36
620.377	6.43
620.71	6.46
621.043	6.16
621.377	6.15
621.71	6.52
622.043	6.61
622.376	6.46
622.709	6.45
623.043	6.55
623.376	6.79
623.709	6.39
624.041	6.33
624.374	6.71
624.707	6.16
625.04	6.54
625.373	6.65
625.705	6.24
626.038	6.55
626.37	6.45
626.703	6.9
627.035	6.65
627.368	6.54
627.7	6.41
628.032	6.56
628.365	6.96
628.697	6.49
629.029	6.51
629.361	6.38
629.693	6.67
630.025	6.96
630.357	6.68
630.689	6.57
631.021	6.63
631.353	6.73
631.684	6.82
632.016	6.95
632.348	6.69
632.679	6.86
633.011	6.66
633.342	6.99
633.674	6.34
634.005	6.64
634.336	7.16
634.668	7.11
634.999	7.31
635.33	6.4
635.661	7.15
635.992	7.06
636.323	7
636.654	6.89
636.985	7.06
637.316	6.97
637.647	6.92
637.977	7.23
638.308	7.17
638.639	7.2
638.969	7.08
639.3	7.6
639.63	6.98
639.961	7.23
640.291	7.59
640.622	7.33
640.952	7.05
641.282	7.22
641.612	7.24
641.943	7.44
642.273	6.98
642.603	7.46
642.933	7.68
643.263	7.28
643.592	7.4
643.922	7.76
644.252	7.41
644.582	7.39
644.911	7.59
645.241	7.16
645.571	7.25
645.9	7.46
646.23	7.2
646.559	7.68
646.888	7.73
647.218	7.88
647.547	7.36
647.876	7.77
648.205	7.39
648.534	7.97
648.863	8.04
649.192	7.62
649.521	7.84
649.85	8.04
650.179	7.95
650.508	7.78
650.837	7.91
651.165	8.04
651.494	7.91
651.822	8.06
652.151	7.59
652.479	7.92
652.808	7.32
653.136	7.9
653.465	8.27
653.793	8.16
654.121	7.88
654.449	7.81
654.777	8.23
655.105	8.06
655.433	7.83
655.761	8.41
656.089	7.9
656.417	8.11
656.745	7.58
657.073	7.69
657.4	8.08
657.728	8.15
658.056	8.12
658.383	8.13
658.711	8.11
659.038	8.15
659.365	9.13
659.693	8.6
660.02	8.71
660.347	8.19
660.674	8.4
661.001	8.39
661.329	8.36
661.656	8.63
661.982	7.89
662.309	8.41
662.636	8.36
662.963	8.36
663.29	8.23
663.616	8.65
663.943	8.71
664.27	8.75
664.596	8.37
664.923	8.41
665.249	8.52
665.576	8.53
665.902	8
666.228	8.63
666.554	8.63
666.881	8.71
667.207	8.75
667.533	8.73
667.859	8.17
668.185	8.38
668.511	8.75
668.837	8.46
669.162	8.92
669.488	8.5
669.814	8.89
670.139	8.77
670.465	8.94
670.791	8.75
671.116	8.95
671.442	8.69
671.767	8.87
672.092	8.86
672.418	9.2
672.743	9.34
673.068	8.54
673.393	9.08
673.718	9.01
674.043	9.39
674.368	8.78
674.693	8.83
675.018	9.26
675.343	9.76
675.667	9.61
675.992	9.42
676.317	8.66
676.641	9.34
676.966	8.6
677.29	9.13
677.615	9.21
677.939	8.96
678.264	9.42
678.588	9.41
678.912	9.49
679.236	9.33
679.56	9.94
679.885	9.6
680.209	9.3
680.532	9.76
680.856	9.58
681.18	9.23
681.504	9.44
681.828	9.09
682.152	10.59
682.475	9.29
682.799	9.56
683.122	9.49
683.446	9.44
683.769	9.35
684.093	10.07
684.416	9.65
684.739	10.01
685.062	9.9
685.386	9.88
685.709	10
686.032	10.28
686.355	10.66
686.678	9.94
687.001	9.94
687.324	9.96
687.646	10.11
687.969	10.1
688.292	9.59
688.614	11.07
688.937	9.8
689.26	9.58
689.582	10.61
689.904	10.85
690.227	9.81
690.549	9.77
690.871	10.23
691.194	9.94
691.516	10.3
691.838	9.91
692.16	10.86
692.482	9.66
692.804	10.02
693.126	10.13
693.448	9.9
693.769	10.12
694.091	10.46
694.413	9.87
694.735	10.36
695.056	9.36
695.378	10.24
695.699	12.03
696.021	11.16
696.342	11.11
696.663	10.29
696.984	10.59
697.306	9.87
697.627	10.34
697.948	10.59
698.269	11.1
698.59	10.32
698.911	10.63
699.232	10.48
699.553	10.55
699.873	10.54
700.194	10.78
700.515	11.12
700.835	10.63
701.156	11.09
701.477	10.8
701.797	10.95
702.117	10.73
702.438	11.23
702.758	10.91
703.078	10.59
703.398	10.63
703.719	10.53
704.039	10.84
704.359	11.61
704.679	11.07
704.999	10.68
705.319	10.94
705.638	10.36
705.958	10.45
706.278	10.55
706.597	10.54
706.917	10.11
707.237	11.93
707.556	10.88
707.876	10.64
708.195	11.46
708.514	10.71
708.834	10.75
709.153	11.4
709.472	11.94
709.791	11.36
710.11	10.54
710.429	11.95
710.748	11.68
711.067	11.6
711.386	10.57
711.705	11.26
712.023	12.4
712.342	11.55
712.661	10.93
712.979	11.05
713.298	11.04
713.616	11.11
713.935	10.51
714.253	11.96
714.572	12.06
714.89	11.2
715.208	12.73
715.526	11.94
715.844	11.53
716.162	11.39
716.48	12.31
716.798	12.47
717.116	12.41
717.434	11.73
717.752	11.07
718.069	11.67
718.387	11.04
718.705	12.07
719.022	12.75
719.34	12.5
719.657	11.9
719.975	11.81
720.292	12.74
720.609	12.47
720.927	10.88
721.244	11.52
721.561	12.23
721.878	11.86
722.195	11.5
722.512	10.83
722.829	13.41
723.146	12.64
723.463	11.98
723.779	13.71
724.096	12.86
724.413	11.36
724.729	13.08
725.046	12.94
725.362	11.87
725.679	13.53
725.995	13.06
726.311	12.61
726.628	12.73
726.944	13.53
727.26	12.78
727.576	12.96
727.892	12.95
728.208	13.64
728.524	12.66
728.84	10.98
729.156	12.9
729.472	13.88
729.787	13.18
730.103	12.59
730.419	12.93
730.734	12.48
731.05	12.45
731.365	12.9
731.681	12.2
731.996	13.82
732.311	13.05
732.626	13.3
732.942	12.39
733.257	12.5
733.572	13.36
733.887	13.15
734.202	12.11
734.517	12.45
734.832	14.58
735.146	12.82
735.461	13.41
735.776	11.62
736.091	13.18
736.405	13.66
736.72	11.98
737.034	12.1
737.349	12.66
737.663	13.37
737.977	13.28
738.292	14.32
738.606	14.49
738.92	12.95
739.234	13.52
739.548	14.45
739.862	12.95
740.176	13.37
740.49	11.67
740.804	12.77
741.117	12.22
741.431	12.1
741.745	13.34
742.058	15.29
742.372	11.7
742.685	13.46
742.999	14.35
743.312	13.63
743.626	13.62
743.939	13.83
744.252	13.92
744.565	11.71
744.878	12.43
745.191	13.32
745.505	12.59
745.817	13.14
746.13	12.6
746.443	12.85
746.756	12.55
747.069	12.95
747.381	12.54
747.694	14
748.007	13.31
748.319	14.33
748.632	14.16
748.944	15.44
749.256	13.33
749.569	13.87
749.881	12.69
750.193	15.25
750.505	14.2
750.817	14.82
751.129	13.14
751.441	12.46
751.753	14.04
752.065	13.97
752.377	12.03
752.689	13.46
753	13.14
753.312	14.1
753.624	13.92
753.935	15.55
754.247	15.42
754.558	14.38
754.869	13.41
755.181	14.17
755.492	14.18
755.803	14.1
756.114	14.35
756.425	14.11
756.736	14.51
757.047	15.76
757.358	14.44
757.669	13.96
757.98	13.93
758.291	14.81
758.601	14.64
758.912	13.62
759.223	16.65
759.533	14.44
759.844	12
760.154	15.6
760.464	14.27
760.775	15.37
761.085	14.17
761.395	14.26
761.705	15.22
762.016	15.47
762.326	14.96
762.636	14.78
762.945	14.65
763.255	14.96
763.565	16.65
763.875	15.44
764.185	15.47
764.494	16.19
764.804	15.7
765.113	15.99
765.423	15.83
765.732	16.81
766.042	14.26
766.351	14.93
766.66	16.13
766.97	15.71
767.279	14.46
767.588	14.55
767.897	14.81
768.206	16.67
768.515	14.44
768.824	15.45
769.133	14.58
769.441	14.82
769.75	14.63
770.059	15.06
770.367	13.73
770.676	14.43
770.984	16.69
771.293	15.49
771.601	15.32
771.91	17.56
772.218	16.39
772.526	13.36
772.834	15.71
773.142	15.88
773.45	14.15
773.758	14.96
774.066	14.97
774.374	15.51
774.682	15.12
774.99	16.76
775.298	15.32
775.605	15.71
775.913	13.16
776.22	17.07
776.528	16.77
776.835	14.81
777.143	12.68
777.45	15.2
777.757	15.55
778.065	14.88
778.372	17.65
778.679	16.2
778.986	12.63
779.293	14.81
779.6	18.06
779.907	15.88
780.214	15.74
780.52	17.62
780.827	19.48
781.134	13.53
781.44	12.23
781.747	16.61
782.053	13.57
782.36	13.06
782.666	11.76
782.973	13.45
783.279	15.91
783.585	15.28
783.891	16.77
784.197	17.06
784.503	14.27
784.809	15.95
785.115	13.67
785.421	13.41
785.727	17.73
786.033	13.93
786.339	16.26
786.644	13.98
786.95	16
787.255	14.85
787.561	15.61
787.866	16.49
788.172	19.18
788.477	14.47
788.782	18.95
789.088	20.46
789.393	17.72
789.698	15.22
790.003	15.32
790.308	18.45
790.613	11.42
790.918	15.42
791.223	19.91
791.527	16.42
791.832	17
792.137	16.82
792.441	18.19
792.746	17.61
793.05	15.26
793.355	16.85
793.659	15.42
793.963	15.33
794.268	18.86
794.572	15.86
794.876	17.1
795.18	20.2
795.484	15.44
795.788	15.3
796.092	14.95
796.396	19.11
796.7	15.21
797.004	18.6
797.307	19.13
797.611	17.13
797.915	17.9
798.218	15.68
798.522	18.6
798.825	15.05
799.128	13.53
799.432	17.41
799.735	21.66
800.038	19.07
800.341	14.32
800.644	18.28
800.947	16.2
801.25	18.65
801.553	19
801.856	16.07
802.159	18.54
802.462	15.9
802.764	17.82
803.067	13.59
803.37	8.72
803.672	20.54
803.975	15.3
804.277	19.73
804.579	15.58
804.882	17.26
805.184	16.19
805.486	18.02
805.788	22.31
806.09	14.08
806.392	12.91
806.694	16.12
806.996	16.37
807.298	16.03
807.6	15.05
807.902	22.53
808.203	16.31
808.505	16.79
808.807	19.01
809.108	19.57
809.409	17.15
809.711	11.18
810.012	17.99
810.313	17.35
810.615	15.63
810.916	12.79
811.217	15.73
811.518	17.37
811.819	19.24
812.12	14.87
812.421	18.97
812.722	14.94
813.023	15.5
813.323	18.14
813.624	23.98
813.925	20.25
814.225	24.46
814.526	22.51
814.826	16.98
815.126	16.25
815.427	14.35
815.727	11.52
816.027	15.6
816.327	22.36
816.627	21.5
816.927	12.11
817.227	22.2
817.527	13.95
817.827	21.24
818.127	22.34
818.427	14.04
818.727	18.19
819.026	11.34
819.326	7.31
819.625	15.71
819.925	16.55
820.224	24.31
820.524	24.22
820.823	20.67
821.122	14.6
821.421	15.47
821.72	23.91
822.019	15.91
822.318	22.57
822.617	15.97
822.916	18.03
823.215	24.04
823.514	21.9
823.813	19.33
824.111	21.11
824.41	17.85
824.709	19.12
825.007	21.71
825.306	19.96
825.604	20.28
825.902	20.41
826.201	20.12
826.499	19.27
826.797	20.52
827.095	20.88
827.393	18.92
827.691	21.78
827.989	19.51
828.287	20.7
828.585	19.26
828.882	17.95
829.18	18.34
829.478	20.72
829.775	23.21
830.073	18.73
830.37	21.13
830.668	20.82
830.965	21.32
831.263	20.97
831.56	18.88
831.857	17.84
832.154	24.17
832.451	20.96
832.748	22.05
833.045	24.02
833.342	19.32
833.639	19.58
833.936	17.52
834.232	16.52
834.529	23.64
834.826	18.39
835.122	18.34
835.419	17.4
835.715	16.28
836.012	20.35
836.308	18.56
836.604	21.83
836.901	23.62
837.197	18.52
837.493	19.26
837.789	19.16
838.085	22.04
838.381	22.57
838.677	23.1
838.972	18.13
839.268	23.96
839.564	17.53
839.86	19.53
840.155	21.59
840.451	16.23
840.746	13.51
841.042	22.69
841.337	20.26
841.632	9.62
841.928	15.1
842.223	16.1
842.518	24.65
842.813	14.11
843.108	24.85
843.403	21.63
843.698	15.49
843.993	19.17
844.287	22.86
844.582	23.13
844.877	25.52
845.171	11.37
845.466	9.39
845.761	18.06
846.055	23.86
846.349	22.66
846.644	18.42
846.938	16.7
847.232	4.42
847.526	8.59
847.82	25.88
848.114	24.49
848.408	16.71
848.702	12.01
848.996	10.94
849.29	16.86
849.584	23.86
849.877	18.63
850.171	9.89
850.465	16.86
850.758	13.87
851.052	17.82
851.345	25.57
851.638	-3.82
851.932	16.41
852.225	13.08
852.518	18.12
852.811	22.66
853.104	33.14
853.397	-5.99
853.69	11.26
853.983	23.37
854.276	27.12
854.569	19.28
854.861	15.1
855.154	19.46
855.447	-11.58
855.739	8.9
856.032	24.06
856.324	25.89
856.616	8.79
856.909	26.13
857.201	9.77
857.493	8.43
857.785	25.09
858.077	27.24
858.369	28.05
858.661	12.01
858.953	9.45
859.245	34.66
859.537	10.21
859.829	34.75
860.12	21.04
860.412	15.63
860.703	1.23
860.995	-1.31
861.286	14.66
861.578	24.87
861.869	26.69
862.16	2.65
862.452	2.39
862.743	22.09
863.034	16.41
863.325	15.7
863.616	38.18
863.907	1.82
864.198	14.76
864.488	-7.77
864.779	25.27
865.07	27.94
865.36	10.56
865.651	16.8
865.941	-3.53
866.232	6.9
866.522	24.56
866.813	25.33
867.103	25.31
867.393	8.33
867.683	-16.21
867.973	-1.23
868.263	1.16
868.553	13.84
868.843	23.71
869.133	28.27
869.423	36.26
869.713	-7.31
870.002	21.47
870.292	8.19
870.582	-0.75
870.871	14.53
871.161	19.39
871.45	28.41
871.739	30.95
872.029	6.32
872.318	6.74
872.607	9.92
872.896	17.09
873.185	38.37
873.474	25.72
873.763	7.15
874.052	26.72
874.341	11.28
874.63	30.92
874.918	-5.22
875.207	10.53
875.496	16.37
875.784	1.48
876.073	19.38
876.361	13.56
876.649	34.27
876.938	4.2
877.226	44.85
877.514	30.93
877.802	35.64
878.09	39.66
878.378	10.38
878.666	31.62
878.954	7.29
879.242	9.84
879.53	9.09
879.817	0.14
880.105	21.65
880.392	13.97
880.68	-31.53
880.967	29.91
881.255	54.39
881.542	27.58
881.83	22.3
882.117	27.22
882.404	46.66
882.691	22.23
882.978	28.73
883.265	13.89
883.552	1.1
883.839	22.48
884.126	18.88
884.413	22.73
884.699	22.12
884.986	26.15
885.273	18.4
885.559	18.4
885.846	18.4
