Data from 0037_chest_Reflection__1__46.txt Node

Date: Fri Nov 04 15:04:33 CDT 2022
User: ToomeyLab
Spectrometer: FLMS14357
Trigger mode: 0
Integration Time (sec): 1.000000E-2
Scans to average: 100
Electric dark correction enabled: true
Nonlinearity correction enabled: false
Boxcar width: 0
XAxis mode: Wavelengths
Number of Pixels in Spectrum: 2048
>>>>>Begin Spectral Data<<<<<
189.047	1084.44
189.435	1084.44
189.823	1084.44
190.211	117.17
190.599	-170.93
190.987	43.36
191.375	-261.39
191.763	795.35
192.151	59.14
192.538	24.88
192.926	110.91
193.314	260.58
193.702	111.45
194.089	-2592.55
194.477	-251.78
194.864	47.24
195.252	20.48
195.639	95.92
196.027	756.63
196.414	26.31
196.801	85.01
197.189	-39.72
197.576	187.7
197.963	34.71
198.351	-31.56
198.738	34.03
199.125	-20.93
199.512	-16.62
199.899	6.59
200.286	-16.15
200.673	-4.59
201.06	3.84
201.447	-20.11
201.833	5.74
202.22	-4.08
202.607	-0.73
202.994	41.79
203.38	29.92
203.767	17.3
204.154	30.86
204.54	-39.88
204.927	-27.21
205.313	12.57
205.699	10.65
206.086	4.32
206.472	-18.3
206.858	8.99
207.245	-26.3
207.631	-17.01
208.017	27.02
208.403	35.46
208.789	27.84
209.175	19.66
209.561	-54.01
209.947	-55.45
210.333	4.94
210.719	1.16
211.105	-10.89
211.491	-24.5
211.876	-28.51
212.262	-40.96
212.648	2.36
213.034	14.46
213.419	-11.8
213.805	-39.76
214.19	-28.92
214.576	-3.51
214.961	11.44
215.346	-15.69
215.732	5.33
216.117	-29.2
216.502	6.98
216.888	-38.93
217.273	12.73
217.658	-24.65
218.043	-16.6
218.428	-6.02
218.813	4.89
219.198	-9.93
219.583	-22.7
219.968	21.46
220.353	-3.5
220.738	-29.22
221.122	-0.44
221.507	1.87
221.892	-22.67
222.276	-21.3
222.661	0.5
223.046	8.77
223.43	6.21
223.815	-8.58
224.199	11.46
224.583	-2.33
224.968	2.06
225.352	3.6
225.736	-14.59
226.121	-5.89
226.505	0.3
226.889	1.7
227.273	0.96
227.657	4.78
228.041	-1.16
228.425	2.7
228.809	5.82
229.193	0.49
229.577	0.91
229.961	3.76
230.344	3.3
230.728	2.84
231.112	2.52
231.495	2.63
231.879	2.61
232.263	1.79
232.646	2.88
233.03	1.02
233.413	1.5
233.797	0.94
234.18	1.37
234.563	3.53
234.946	1.18
235.33	3.79
235.713	2.6
236.096	3.2
236.479	1.23
236.862	1.92
237.245	1.62
237.628	2.6
238.011	1.57
238.394	3.38
238.777	2.98
239.16	3.21
239.543	3.12
239.925	1.21
240.308	4.07
240.691	2.25
241.073	3.22
241.456	2.51
241.838	2.52
242.221	3
242.603	2.23
242.986	2.56
243.368	2.84
243.75	2.78
244.133	2.77
244.515	2.73
244.897	2.33
245.279	2.36
245.661	2.95
246.043	2.34
246.425	2.73
246.807	3.07
247.189	2.68
247.571	2.76
247.953	2.77
248.335	2.33
248.717	2.65
249.098	2.65
249.48	2.63
249.862	2.84
250.243	2.44
250.625	2.41
251.006	2.39
251.388	2.48
251.769	3.08
252.151	3.19
252.532	2.42
252.913	2.39
253.295	2.64
253.676	2.14
254.057	2.49
254.438	2.33
254.819	2.36
255.2	2.33
255.581	2.47
255.962	2.75
256.343	1.86
256.724	2.29
257.105	2.33
257.486	2.76
257.867	3.46
258.247	2.49
258.628	1.28
259.009	2.24
259.389	2.44
259.77	3.06
260.15	2.6
260.531	2.65
260.911	2.04
261.292	2.29
261.672	2.53
262.052	2.52
262.432	2.41
262.813	2.15
263.193	1.48
263.573	2.09
263.953	2.25
264.333	2.81
264.713	2.81
265.093	2.22
265.473	2.85
265.853	2.06
266.233	2.75
266.612	2.78
266.992	3.06
267.372	2.16
267.752	2.2
268.131	2.58
268.511	2.29
268.89	2.72
269.27	2.71
269.649	2.36
270.029	2.2
270.408	2.56
270.787	2.91
271.167	2.49
271.546	3.26
271.925	2.11
272.304	1.87
272.683	2.53
273.062	2.35
273.441	2.16
273.82	1.97
274.199	2.26
274.578	2.06
274.957	2.38
275.336	1.65
275.715	2.25
276.093	2.04
276.472	2.23
276.851	1.97
277.229	2.02
277.608	2.11
277.986	2.43
278.365	2.64
278.743	2.65
279.122	2.65
279.5	2.59
279.878	2.28
280.257	2.11
280.635	1.97
281.013	2.12
281.391	2.56
281.769	2.18
282.147	1.78
282.525	2.32
282.903	2.25
283.281	3.15
283.659	2.15
284.037	1.96
284.415	2.43
284.792	2.18
285.17	2.06
285.548	2.54
285.925	2.52
286.303	2.43
286.68	2.58
287.058	2.19
287.435	2.1
287.813	2.07
288.19	2.1
288.567	2.41
288.945	2.42
289.322	2.45
289.699	2.41
290.076	2.47
290.453	1.89
290.83	1.91
291.207	2.17
291.584	2.63
291.961	2.36
292.338	2.34
292.715	2.54
293.092	2.35
293.469	1.89
293.845	1.8
294.222	2.32
294.599	2.06
294.975	1.91
295.352	2.1
295.728	2.4
296.105	2.34
296.481	2.01
296.858	2.17
297.234	2.6
297.61	2.29
297.986	1.85
298.363	2.07
298.739	2.49
299.115	2.15
299.491	2.4
299.867	2.29
300.243	2.03
300.619	2.26
300.995	2.65
301.371	2.53
301.746	2.06
302.122	2.43
302.498	2.37
302.874	2.48
303.249	2.3
303.625	1.81
304	2.19
304.376	2
304.751	2.24
305.127	1.81
305.502	2.41
305.878	2.39
306.253	2.3
306.628	1.76
307.003	2.4
307.378	2.63
307.754	2.43
308.129	1.7
308.504	2.74
308.879	2.25
309.254	2.36
309.629	2.17
310.003	2.37
310.378	2.41
310.753	2.42
311.128	2.57
311.502	2.19
311.877	2.38
312.252	2.39
312.626	2.53
313.001	2.41
313.375	2.39
313.75	2.31
314.124	2.48
314.498	2.19
314.873	2.92
315.247	2.49
315.621	2.62
315.995	2.45
316.369	2.02
316.743	2.6
317.117	2.93
317.491	2.54
317.865	1.99
318.239	2.43
318.613	2.47
318.987	2.41
319.361	2.29
319.734	2.7
320.108	2.6
320.482	1.58
320.855	2.27
321.229	2.4
321.602	2.24
321.976	2.1
322.349	3.27
322.723	2.85
323.096	2.18
323.469	2.87
323.843	2.27
324.216	2.49
324.589	2.17
324.962	2.66
325.335	2.57
325.708	2.31
326.081	2.46
326.454	2.43
326.827	2.75
327.2	2.26
327.573	2.36
327.945	2.48
328.318	2.27
328.691	2.58
329.063	2.59
329.436	2.55
329.809	2.32
330.181	2.33
330.553	2.69
330.926	2.57
331.298	2.17
331.671	2.61
332.043	2.35
332.415	2.22
332.787	1.94
333.159	2.22
333.532	1.37
333.904	2.76
334.276	2.08
334.648	2.95
335.02	2.08
335.391	2.61
335.763	2.5
336.135	2.35
336.507	2.38
336.879	2.2
337.25	2.68
337.622	2.63
337.993	2.56
338.365	2.46
338.736	2.89
339.108	2.75
339.479	2.64
339.851	2.21
340.222	2.23
340.593	2.61
340.964	2.47
341.336	2.23
341.707	1.77
342.078	2.25
342.449	2.42
342.82	2.75
343.191	2.4
343.562	2.46
343.933	2.68
344.303	2.74
344.674	2.33
345.045	2.18
345.416	1.72
345.786	2.44
346.157	2.42
346.527	2.61
346.898	2.5
347.268	2.27
347.639	2.11
348.009	2.92
348.38	2.29
348.75	2.3
349.12	2.52
349.49	3.01
349.861	2.21
350.231	2.73
350.601	2.48
350.971	2.29
351.341	2.58
351.711	2.29
352.081	2.33
352.45	2.54
352.82	2.6
353.19	2.84
353.56	2.32
353.929	2.31
354.299	2.64
354.669	2.68
355.038	2.79
355.408	2.36
355.777	2.66
356.147	2.46
356.516	2.54
356.885	2.41
357.254	2.74
357.624	2.44
357.993	2.56
358.362	2.25
358.731	2.51
359.1	2.63
359.469	2.61
359.838	2.46
360.207	2.45
360.576	2.55
360.945	2.55
361.314	2.75
361.682	2.31
362.051	2.72
362.42	2.65
362.788	2.43
363.157	2.54
363.525	2.41
363.894	2.63
364.262	2.79
364.631	2.63
364.999	2.56
365.367	2.61
365.735	2.77
366.104	2.63
366.472	2.65
366.84	2.27
367.208	2.58
367.576	2.12
367.944	2.57
368.312	2.51
368.68	2.43
369.048	2.4
369.416	2.66
369.783	2.28
370.151	2.2
370.519	3.13
370.886	2.38
371.254	2.55
371.621	2.69
371.989	2.41
372.356	2.75
372.724	2.53
373.091	2.76
373.458	2.52
373.826	2.93
374.193	2.41
374.56	2.19
374.927	2.76
375.294	2.57
375.661	2.9
376.028	2.54
376.395	2.73
376.762	2.71
377.129	2.68
377.496	2.75
377.863	2.56
378.229	2.36
378.596	2.17
378.963	2.63
379.329	2.3
379.696	2.59
380.062	2.66
380.429	2.69
380.795	2.49
381.161	2.48
381.528	2.82
381.894	2.4
382.26	2.68
382.626	2.36
382.993	2.78
383.359	2.5
383.725	2.59
384.091	2.62
384.457	2.75
384.823	2.78
385.188	2.55
385.554	2.61
385.92	2.48
386.286	2.7
386.651	2.42
387.017	2.57
387.383	2.51
387.748	2.59
388.114	2.33
388.479	2.87
388.845	2.53
389.21	2.88
389.575	2.67
389.94	2.6
390.306	2.43
390.671	2.56
391.036	2.49
391.401	2.79
391.766	2.59
392.131	2.74
392.496	2.68
392.861	2.96
393.226	2.75
393.591	2.66
393.956	2.79
394.32	2.81
394.685	2.78
395.05	2.88
395.414	2.67
395.779	2.49
396.143	2.8
396.508	2.73
396.872	2.73
397.236	2.83
397.601	2.71
397.965	2.51
398.329	2.76
398.694	2.69
399.058	2.82
399.422	2.64
399.786	2.67
400.15	2.49
400.514	2.7
400.878	2.78
401.242	2.67
401.605	2.82
401.969	2.82
402.333	2.65
402.697	2.82
403.06	2.95
403.424	2.65
403.787	2.85
404.151	2.88
404.514	2.86
404.878	2.66
405.241	2.83
405.604	2.68
405.968	2.58
406.331	2.61
406.694	2.59
407.057	2.81
407.42	2.63
407.783	2.61
408.146	2.71
408.509	2.68
408.872	2.87
409.235	2.7
409.598	2.69
409.961	2.92
410.323	2.55
410.686	2.71
411.049	2.58
411.411	2.56
411.774	2.73
412.136	2.79
412.499	2.9
412.861	2.87
413.223	2.75
413.586	2.62
413.948	2.84
414.31	2.78
414.672	2.8
415.035	2.82
415.397	2.74
415.759	2.84
416.121	2.66
416.483	2.75
416.845	2.78
417.206	2.64
417.568	2.78
417.93	2.63
418.292	2.71
418.653	2.63
419.015	2.63
419.377	2.71
419.738	2.56
420.1	2.87
420.461	2.66
420.822	2.65
421.184	2.78
421.545	2.57
421.906	2.65
422.267	2.71
422.629	2.77
422.99	2.66
423.351	2.6
423.712	2.76
424.073	2.86
424.434	2.72
424.795	2.78
425.155	2.92
425.516	2.84
425.877	2.69
426.238	2.72
426.598	2.74
426.959	2.69
427.32	2.72
427.68	2.74
428.041	2.72
428.401	2.8
428.761	2.78
429.122	2.69
429.482	2.84
429.842	2.58
430.202	2.91
430.563	2.64
430.923	2.94
431.283	2.69
431.643	3
432.003	2.96
432.363	2.95
432.722	2.89
433.082	2.9
433.442	2.74
433.802	2.58
434.161	2.77
434.521	2.81
434.881	2.87
435.24	2.7
435.6	2.85
435.959	2.82
436.319	2.86
436.678	2.87
437.037	2.75
437.396	2.91
437.756	2.78
438.115	2.74
438.474	2.88
438.833	2.97
439.192	2.87
439.551	2.78
439.91	2.9
440.269	2.87
440.628	2.94
440.987	2.9
441.345	2.75
441.704	2.85
442.063	2.72
442.421	2.85
442.78	2.9
443.138	2.83
443.497	2.79
443.855	2.78
444.214	2.9
444.572	2.77
444.93	2.9
445.288	2.93
445.647	2.92
446.005	2.83
446.363	2.91
446.721	2.86
447.079	2.9
447.437	2.78
447.795	2.84
448.153	2.76
448.51	2.83
448.868	2.78
449.226	2.76
449.584	2.74
449.941	2.77
450.299	2.82
450.656	2.9
451.014	2.89
451.371	3.02
451.729	3.05
452.086	2.95
452.443	2.81
452.801	2.89
453.158	2.92
453.515	2.93
453.872	2.88
454.229	2.93
454.586	2.95
454.943	3.04
455.3	3
455.657	2.9
456.014	2.87
456.371	2.81
456.727	3.1
457.084	2.95
457.441	2.99
457.797	2.93
458.154	3.02
458.51	3.01
458.867	2.99
459.223	3.01
459.58	3.05
459.936	2.83
460.292	2.87
460.648	3.06
461.005	2.89
461.361	2.83
461.717	2.83
462.073	2.86
462.429	2.97
462.785	2.89
463.141	2.93
463.496	2.81
463.852	2.93
464.208	2.96
464.564	2.88
464.919	3.19
465.275	3.03
465.631	3.09
465.986	3.05
466.342	2.9
466.697	2.98
467.052	2.86
467.408	2.97
467.763	2.97
468.118	3.18
468.473	3.06
468.829	2.82
469.184	2.97
469.539	2.98
469.894	3.15
470.249	3.06
470.603	3.13
470.958	2.87
471.313	2.95
471.668	2.94
472.023	2.9
472.377	3.1
472.732	2.96
473.086	3
473.441	3.03
473.795	3.03
474.15	3
474.504	3.14
474.859	2.95
475.213	3.17
475.567	2.87
475.921	2.93
476.275	2.91
476.63	3.15
476.984	3.05
477.338	3.07
477.692	3.04
478.045	3.1
478.399	2.9
478.753	3.07
479.107	3.16
479.461	3.1
479.814	3.18
480.168	2.96
480.521	3.02
480.875	3.04
481.228	2.97
481.582	3.18
481.935	3.15
482.289	3.02
482.642	3.14
482.995	3.09
483.348	3.05
483.701	3.09
484.055	3.01
484.408	3.05
484.761	3.01
485.114	2.89
485.466	2.87
485.819	2.86
486.172	2.87
486.525	2.9
486.878	2.93
487.23	3.01
487.583	2.9
487.936	3.04
488.288	3.02
488.641	3.03
488.993	2.94
489.345	2.9
489.698	2.91
490.05	2.93
490.402	2.95
490.754	2.99
491.107	2.97
491.459	3.05
491.811	3.01
492.163	3
492.515	3.18
492.866	3.04
493.218	3.05
493.57	3
493.922	3.02
494.274	2.98
494.625	3.04
494.977	3.11
495.328	3.13
495.68	3.04
496.031	3.1
496.383	3.13
496.734	3.05
497.086	3.38
497.437	3.29
497.788	3.25
498.139	3
498.49	3.04
498.842	3.21
499.193	3.18
499.544	3.18
499.894	3.09
500.245	3.18
500.596	3.14
500.947	3.15
501.298	3.08
501.648	3.2
501.999	3.3
502.35	3.1
502.7	3.16
503.051	3.31
503.401	3.24
503.752	3.23
504.102	3.15
504.452	3.29
504.803	3.22
505.153	3.14
505.503	3.3
505.853	3.32
506.203	3.29
506.553	3.39
506.903	3.23
507.253	3.31
507.603	3.14
507.953	3.3
508.303	3.35
508.652	3.18
509.002	3.45
509.352	3.41
509.701	3.3
510.051	3.24
510.4	3.28
510.75	3.23
511.099	3.18
511.449	3.21
511.798	3.2
512.147	3.29
512.496	3.25
512.846	3.25
513.195	3.25
513.544	3.26
513.893	3.34
514.242	3.23
514.591	3.27
514.939	3.35
515.288	3.36
515.637	3.39
515.986	3.37
516.334	3.32
516.683	3.39
517.032	3.4
517.38	3.47
517.729	3.32
518.077	3.37
518.426	3.24
518.774	3.31
519.122	3.39
519.47	3.33
519.819	3.33
520.167	3.4
520.515	3.33
520.863	3.29
521.211	3.35
521.559	3.36
521.907	3.41
522.255	3.5
522.602	3.45
522.95	3.37
523.298	3.52
523.645	3.41
523.993	3.45
524.341	3.46
524.688	3.56
525.036	3.35
525.383	3.5
525.73	3.45
526.078	3.55
526.425	3.55
526.772	3.4
527.119	3.42
527.466	3.43
527.814	3.44
528.161	3.44
528.508	3.43
528.854	3.39
529.201	3.33
529.548	3.42
529.895	3.37
530.242	3.32
530.588	3.35
530.935	3.33
531.282	3.4
531.628	3.33
531.975	3.43
532.321	3.47
532.667	3.49
533.014	3.45
533.36	3.58
533.706	3.58
534.052	3.5
534.399	3.51
534.745	3.48
535.091	3.45
535.437	3.57
535.783	3.44
536.129	3.56
536.474	3.58
536.82	3.53
537.166	3.49
537.512	3.67
537.857	3.58
538.203	3.53
538.549	3.52
538.894	3.63
539.239	3.66
539.585	3.53
539.93	3.57
540.276	3.67
540.621	3.71
540.966	3.78
541.311	3.63
541.656	3.81
542.001	3.7
542.346	3.64
542.691	3.66
543.036	3.54
543.381	3.63
543.726	3.61
544.071	3.64
544.415	3.66
544.76	3.68
545.105	3.65
545.449	3.77
545.794	3.72
546.138	3.7
546.483	3.76
546.827	3.8
547.171	3.79
547.516	3.84
547.86	3.81
548.204	3.86
548.548	3.8
548.892	3.75
549.236	3.78
549.58	3.9
549.924	3.84
550.268	4.08
550.612	3.77
550.956	4.01
551.3	3.95
551.643	3.97
551.987	3.83
552.33	3.97
552.674	3.84
553.017	4.07
553.361	4.21
553.704	4.05
554.048	4.1
554.391	4.01
554.734	4.01
555.077	3.99
555.42	4.14
555.764	4.3
556.107	4.07
556.45	4.16
556.793	4.31
557.135	4.11
557.478	3.91
557.821	4.27
558.164	4.12
558.507	4.12
558.849	4.15
559.192	4.18
559.534	4.18
559.877	4.25
560.219	4.06
560.562	4.21
560.904	4.26
561.246	4.3
561.589	4.44
561.931	4.26
562.273	4.41
562.615	4.21
562.957	4.22
563.299	4.34
563.641	4.33
563.983	4.23
564.325	4.24
564.667	4.36
565.008	4.31
565.35	4.4
565.692	4.44
566.033	4.46
566.375	4.44
566.716	4.52
567.058	4.38
567.399	4.35
567.741	4.53
568.082	4.57
568.423	4.35
568.764	4.42
569.105	4.38
569.447	4.54
569.788	4.44
570.129	4.48
570.47	4.56
570.811	4.49
571.151	4.51
571.492	4.56
571.833	4.45
572.174	4.68
572.514	4.5
572.855	4.32
573.195	4.58
573.536	4.69
573.876	4.62
574.217	4.6
574.557	4.72
574.898	4.7
575.238	4.52
575.578	4.88
575.918	4.71
576.258	4.9
576.598	4.84
576.938	4.89
577.278	4.6
577.618	4.71
577.958	4.66
578.298	4.7
578.638	4.89
578.977	5.01
579.317	4.94
579.657	4.88
579.996	4.82
580.336	4.78
580.675	4.77
581.014	5.14
581.354	4.86
581.693	5.07
582.032	4.78
582.372	4.95
582.711	4.94
583.05	4.98
583.389	4.97
583.728	4.89
584.067	5.12
584.406	4.92
584.745	5.26
585.083	4.97
585.422	5.17
585.761	5.08
586.1	4.97
586.438	4.83
586.777	5.29
587.115	4.96
587.454	5.54
587.792	5.31
588.13	5.28
588.469	5.2
588.807	5.32
589.145	5.21
589.483	5.17
589.821	5.29
590.159	5.2
590.497	5.44
590.835	5.33
591.173	5.32
591.511	5.44
591.849	5.56
592.187	5.28
592.524	5.46
592.862	5.57
593.2	5.46
593.537	5.33
593.875	5.43
594.212	5.36
594.55	5.25
594.887	5.72
595.224	5.51
595.561	5.36
595.899	5.56
596.236	5.7
596.573	5.5
596.91	5.55
597.247	5.64
597.584	5.4
597.921	5.71
598.258	5.81
598.594	5.33
598.931	5.52
599.268	5.85
599.604	5.63
599.941	5.7
600.277	5.61
600.614	5.88
600.95	5.79
601.287	5.71
601.623	5.68
601.959	5.82
602.296	5.86
602.632	5.99
602.968	6.03
603.304	5.91
603.64	6.1
603.976	5.54
604.312	5.91
604.648	5.91
604.984	5.97
605.319	5.92
605.655	5.83
605.991	5.88
606.326	5.89
606.662	5.94
606.998	5.9
607.333	6.12
607.668	6.01
608.004	6.06
608.339	5.99
608.674	6.25
609.01	6
609.345	6.18
609.68	5.88
610.015	6.07
610.35	6.12
610.685	6.25
611.02	6.37
611.355	6.29
611.689	6.34
612.024	6.24
612.359	6.23
612.694	6.16
613.028	6.47
613.363	6.62
613.697	6.33
614.032	6.36
614.366	6.63
614.7	6.37
615.035	6.73
615.369	6.4
615.703	6.52
616.037	6.48
616.371	6.78
616.705	6.26
617.039	6.55
617.373	6.79
617.707	6.94
618.041	6.68
618.375	6.78
618.709	6.92
619.042	6.7
619.376	6.91
619.71	6.75
620.043	7.07
620.377	7.2
620.71	6.72
621.043	6.94
621.377	7.03
621.71	6.97
622.043	7.22
622.376	7.23
622.709	7.04
623.043	6.98
623.376	7.13
623.709	6.92
624.041	7.14
624.374	6.63
624.707	6.46
625.04	7
625.373	6.88
625.705	6.83
626.038	7.08
626.37	7.31
626.703	7.39
627.035	6.95
627.368	7.28
627.7	6.85
628.032	7
628.365	7.49
628.697	7.24
629.029	7.2
629.361	7.4
629.693	7.36
630.025	7.3
630.357	7.2
630.689	7.33
631.021	7.1
631.353	7.33
631.684	7.47
632.016	7.65
632.348	7.55
632.679	7.4
633.011	7.44
633.342	7.6
633.674	7.2
634.005	7.7
634.336	7.71
634.668	7.62
634.999	7.83
635.33	7.22
635.661	8.1
635.992	7.83
636.323	7.87
636.654	7.41
636.985	7.98
637.316	7.63
637.647	7.35
637.977	8
638.308	8.09
638.639	7.99
638.969	7.52
639.3	8.14
639.63	7.82
639.961	7.96
640.291	7.88
640.622	8.16
640.952	8.26
641.282	7.79
641.612	8.15
641.943	8.07
642.273	7.9
642.603	8.19
642.933	8.15
643.263	7.65
643.592	7.91
643.922	8.62
644.252	8.46
644.582	8.3
644.911	8.28
645.241	8.13
645.571	8.29
645.9	8.73
646.23	8.42
646.559	8.58
646.888	8.67
647.218	8.85
647.547	8.68
647.876	8.45
648.205	7.8
648.534	8.7
648.863	8.58
649.192	8.7
649.521	8.4
649.85	9.21
650.179	8.83
650.508	9.12
650.837	8.88
651.165	8.75
651.494	8.97
651.822	9.22
652.151	8.84
652.479	8.24
652.808	8.81
653.136	8.77
653.465	8.93
653.793	9.25
654.121	8.92
654.449	8.77
654.777	8.68
655.105	8.95
655.433	8.98
655.761	8.82
656.089	8.8
656.417	8.94
656.745	8.53
657.073	8.75
657.4	9.37
657.728	9.23
658.056	8.82
658.383	9.28
658.711	8.92
659.038	9.29
659.365	9.49
659.693	9.49
660.02	9.74
660.347	9.36
660.674	9.28
661.001	9.1
661.329	9.33
661.656	9.46
661.982	9.18
662.309	9.21
662.636	9.39
662.963	9.14
663.29	8.81
663.616	9.77
663.943	9.48
664.27	9.88
664.596	9.41
664.923	9.43
665.249	10
665.576	9.54
665.902	8.94
666.228	9.21
666.554	10.21
666.881	9.8
667.207	9.89
667.533	9.51
667.859	9.44
668.185	10
668.511	9.69
668.837	9.76
669.162	10.47
669.488	9.32
669.814	9.89
670.139	9.88
670.465	10.13
670.791	10.12
671.116	9.53
671.442	10.17
671.767	9.84
672.092	9.8
672.418	9.92
672.743	10.77
673.068	10.29
673.393	9.8
673.718	10.41
674.043	9.7
674.368	9.7
674.693	10.24
675.018	10.08
675.343	10.2
675.667	10.25
675.992	10.24
676.317	10.9
676.641	10.24
676.966	10.32
677.29	10.11
677.615	11.08
677.939	10.4
678.264	10.84
678.588	10.34
678.912	10.87
679.236	10.25
679.56	10.33
679.885	10.88
680.209	10.66
680.532	11.14
680.856	10.53
681.18	9.88
681.504	10.81
681.828	11.02
682.152	11.53
682.475	10.72
682.799	11.01
683.122	11.21
683.446	10.9
683.769	10.39
684.093	11.52
684.416	10.77
684.739	11.27
685.062	11.42
685.386	10.39
685.709	11.54
686.032	11.7
686.355	12.18
686.678	11.47
687.001	11.7
687.324	11.78
687.646	11.69
687.969	11.94
688.292	11.48
688.614	11.51
688.937	11.45
689.26	10.97
689.582	12.18
689.904	11.48
690.227	11.37
690.549	10.82
690.871	11.68
691.194	11.93
691.516	11.29
691.838	11.14
692.16	11.39
692.482	11.44
692.804	11.65
693.126	11.81
693.448	11.14
693.769	12.45
694.091	12.67
694.413	11.04
694.735	12.15
695.056	11.07
695.378	11.92
695.699	12.23
696.021	12.56
696.342	12.42
696.663	11.68
696.984	11.7
697.306	12.02
697.627	11.91
697.948	10.72
698.269	12.18
698.59	12.02
698.911	12.6
699.232	12.22
699.553	12.4
699.873	11.3
700.194	12.46
700.515	11.96
700.835	11.99
701.156	11.66
701.477	12.02
701.797	12.77
702.117	12.29
702.438	12.5
702.758	12.4
703.078	12.45
703.398	11.65
703.719	12.22
704.039	12.68
704.359	13.15
704.679	12.38
704.999	12.5
705.319	13.24
705.638	11.94
705.958	12.76
706.278	12.51
706.597	12.41
706.917	11.84
707.237	13
707.556	12.81
707.876	12.39
708.195	12.79
708.514	11.98
708.834	12.87
709.153	13.35
709.472	13.51
709.791	12.96
710.11	12.96
710.429	13.58
710.748	13.54
711.067	13.31
711.386	12.78
711.705	12.87
712.023	13.36
712.342	13.6
712.661	12.62
712.979	13.1
713.298	12.85
713.616	12.24
713.935	13.51
714.253	13.58
714.572	12.69
714.89	13.44
715.208	14.01
715.526	13.04
715.844	12.93
716.162	13.16
716.48	13.92
716.798	13.98
717.116	13.93
717.434	12.37
717.752	13.04
718.069	13.9
718.387	13.03
718.705	14.16
719.022	14.06
719.34	13.99
719.657	13.75
719.975	13.64
720.292	14.8
720.609	14.24
720.927	13.64
721.244	13.54
721.561	14.1
721.878	13.15
722.195	14.56
722.512	13.69
722.829	15.73
723.146	13.35
723.463	14.6
723.779	14.57
724.096	15.15
724.413	14.12
724.729	14.12
725.046	13.88
725.362	14.49
725.679	14.64
725.995	14.6
726.311	14.42
726.628	15.42
726.944	13.85
727.26	15.07
727.576	14.88
727.892	14.41
728.208	16.13
728.524	13.65
728.84	13.27
729.156	15.11
729.472	15.83
729.787	15.3
730.103	14.27
730.419	15.93
730.734	14.44
731.05	14.66
731.365	14.31
731.681	13.34
731.996	16.47
732.311	15.78
732.626	14.98
732.942	15.58
733.257	13.76
733.572	14.99
733.887	14.5
734.202	14.78
734.517	14.46
734.832	16.59
735.146	14.86
735.461	15.62
735.776	14.32
736.091	14.67
736.405	15.94
736.72	13.49
737.034	14.89
737.349	15.24
737.663	14.47
737.977	15.89
738.292	15.37
738.606	15.84
738.92	16.62
739.234	14.97
739.548	15.94
739.862	16.02
740.176	14.62
740.49	14.67
740.804	15.03
741.117	14.7
741.431	15.11
741.745	15.1
742.058	15.75
742.372	14.81
742.685	15.84
742.999	16.67
743.312	16.35
743.626	16.29
743.939	16.58
744.252	15.93
744.565	15.45
744.878	15.19
745.191	15.75
745.505	15.01
745.817	16.56
746.13	15.25
746.443	16.16
746.756	15.26
747.069	14.94
747.381	14.42
747.694	17.37
748.007	17.52
748.319	16.55
748.632	15.39
748.944	15.9
749.256	14.82
749.569	16.96
749.881	14.9
750.193	17.61
750.505	15.94
750.817	17.33
751.129	17.63
751.441	16.53
751.753	17.25
752.065	17.22
752.377	14.86
752.689	16.09
753	16.68
753.312	17.67
753.624	17.98
753.935	16.69
754.247	17.46
754.558	16.57
754.869	15.68
755.181	16.39
755.492	15.12
755.803	17.61
756.114	18.51
756.425	16.35
756.736	17.93
757.047	17.52
757.358	17.93
757.669	18.3
757.98	16.81
758.291	17.16
758.601	16.91
758.912	15.86
759.223	18.34
759.533	18
759.844	16.35
760.154	16.19
760.464	18.9
760.775	19.08
761.085	15.88
761.395	16.08
761.705	17.23
762.016	18.05
762.326	19.33
762.636	16.63
762.945	17.63
763.255	17.14
763.565	17.97
763.875	18.79
764.185	17.82
764.494	18.84
764.804	17.64
765.113	18.12
765.423	17.94
765.732	18.5
766.042	17.71
766.351	16.93
766.66	18.36
766.97	17.53
767.279	18.24
767.588	17.33
767.897	18.69
768.206	18.95
768.515	19.5
768.824	18.65
769.133	18.21
769.441	18.26
769.75	16.87
770.059	17.27
770.367	17.21
770.676	16.98
770.984	18.64
771.293	19.23
771.601	19.13
771.91	18.88
772.218	16.27
772.526	16.59
772.834	18.06
773.142	16.78
773.45	18.5
773.758	16.18
774.066	17.07
774.374	19.7
774.682	16.65
774.99	18.17
775.298	17.02
775.605	17.2
775.913	18.03
776.22	18.56
776.528	20.97
776.835	20.17
777.143	16.42
777.45	16.57
777.757	18.25
778.065	18.76
778.372	20.05
778.679	19.94
778.986	19
779.293	21.61
779.6	21.73
779.907	21.13
780.214	17.57
780.52	19.8
780.827	19.86
781.134	18.5
781.44	17.8
781.747	19.32
782.053	18.52
782.36	20.54
782.666	14.25
782.973	19.28
783.279	21.89
783.585	18.21
783.891	18.29
784.197	19.6
784.503	17.54
784.809	19.43
785.115	19.6
785.421	17.82
785.727	17.37
786.033	16.19
786.339	15.78
786.644	19.9
786.95	21.02
787.255	18.51
787.561	19.92
787.866	14.5
788.172	17.27
788.477	18.89
788.782	20.98
789.088	21.63
789.393	19.14
789.698	16.7
790.003	18.33
790.308	21.49
790.613	14.38
790.918	18.42
791.223	20.74
791.527	20.11
791.832	18.63
792.137	20.16
792.441	21.18
792.746	20.51
793.05	17.37
793.355	17.88
793.659	19.94
793.963	21.34
794.268	21.67
794.572	20.39
794.876	19.16
795.18	22.53
795.484	19.62
795.788	25.46
796.092	20.6
796.396	19
796.7	19.69
797.004	21.43
797.307	19.98
797.611	18.17
797.915	21.93
798.218	20.56
798.522	19.46
798.825	20.6
799.128	20.47
799.432	20.55
799.735	18.7
800.038	14.7
800.341	17.11
800.644	19.4
800.947	17.14
801.25	22.31
801.553	21.5
801.856	22.46
802.159	20.58
802.462	18.75
802.764	19.08
803.067	18.78
803.37	14.5
803.672	19.66
803.975	26.11
804.277	22.85
804.579	21.19
804.882	16.42
805.184	23.23
805.486	22.72
805.788	20.35
806.09	13.82
806.392	19.24
806.694	16.03
806.996	21.88
807.298	17.6
807.6	19.51
807.902	23.98
808.203	21.39
808.505	24.43
808.807	20.13
809.108	22.8
809.409	25.54
809.711	17.61
810.012	22.62
810.313	21.28
810.615	22.04
810.916	15.49
811.217	18.22
811.518	19.36
811.819	19.86
812.12	16.25
812.421	22.92
812.722	17.1
813.023	21.61
813.323	21.93
813.624	23.4
813.925	17.05
814.225	26.39
814.526	22.01
814.826	14.61
815.126	19.58
815.427	18.93
815.727	16.73
816.027	17.87
816.327	22.31
816.627	19.36
816.927	18.25
817.227	26.59
817.527	23.55
817.827	18.22
818.127	19.49
818.427	22.97
818.727	20.95
819.026	19.82
819.326	23.85
819.625	20.91
819.925	23.54
820.224	28.27
820.524	26.83
820.823	27.49
821.122	22.63
821.421	19.75
821.72	22.49
822.019	21.37
822.318	24.86
822.617	24.81
822.916	20.21
823.215	23.1
823.514	23.16
823.813	20.96
824.111	25.38
824.41	21.98
824.709	22.41
825.007	24.63
825.306	23.11
825.604	24.43
825.902	24.25
826.201	24.21
826.499	23.01
826.797	23.56
827.095	24.53
827.393	22.4
827.691	24.22
827.989	24.22
828.287	23.32
828.585	22.56
828.882	23.98
829.18	22.26
829.478	25.19
829.775	24.44
830.073	23.83
830.37	25.41
830.668	23.45
830.965	24.29
831.263	25.52
831.56	20.18
831.857	21.73
832.154	23.76
832.451	26.72
832.748	20.66
833.045	26.87
833.342	25.97
833.639	30.6
833.936	26.31
834.232	21.59
834.529	31.82
834.826	24.47
835.122	24.02
835.419	21.57
835.715	18.35
836.012	19.42
836.308	23.82
836.604	25.36
836.901	23.59
837.197	24.2
837.493	24.34
837.789	24.72
838.085	25.38
838.381	25.65
838.677	26.12
838.972	23.36
839.268	25.87
839.564	26.48
839.86	26.19
840.155	23.04
840.451	24.81
840.746	26.06
841.042	28.29
841.337	26.11
841.632	29.77
841.928	24.02
842.223	13.49
842.518	24.17
842.813	18.41
843.108	20.03
843.403	16.34
843.698	18.58
843.993	17.43
844.287	20.75
844.582	26.48
844.877	25.24
845.171	29.14
845.466	20.54
845.761	17.12
846.055	21.76
846.349	23.46
846.644	20.64
846.938	11.44
847.232	24.67
847.526	20.67
847.82	30.4
848.114	22.38
848.408	34.49
848.702	18.76
848.996	26.16
849.29	20.82
849.584	22.8
849.877	20.64
850.171	34.83
850.465	21.14
850.758	11.96
851.052	13.82
851.345	17.09
851.638	2.65
851.932	17.34
852.225	23.89
852.518	13.75
852.811	28.48
853.104	37.14
853.397	-22.47
853.69	26.32
853.983	23.69
854.276	26.13
854.569	23.04
854.861	14.1
855.154	19.91
855.447	-16.27
855.739	32.15
856.032	17.09
856.324	35.36
856.616	29.85
856.909	10.53
857.201	28.17
857.493	25.18
857.785	27.02
858.077	10.1
858.369	28.97
858.661	21.33
858.953	18.7
859.245	20.99
859.537	21.44
859.829	37.47
860.12	12.75
860.412	22.22
860.703	-17.36
860.995	-8.6
861.286	38.98
861.578	34.87
861.869	19.42
862.16	32.09
862.452	24.7
862.743	18.8
863.034	21.75
863.325	23.24
863.616	45.31
863.907	17.26
864.198	39.79
864.488	-0.17
864.779	38.37
865.07	12.7
865.36	29.92
865.651	21.72
865.941	5.63
866.232	8.04
866.522	31.66
866.813	24.8
867.103	21.91
867.393	13.75
867.683	23.43
867.973	14.94
868.263	-4.43
868.553	5.61
868.843	36.4
869.133	15.08
869.423	20.79
869.713	13.5
870.002	18.5
870.292	10.9
870.582	46.78
870.871	14.48
871.161	34.45
871.45	9.19
871.739	14.87
872.029	10.89
872.318	8.43
872.607	-8.9
872.896	19.49
873.185	25.15
873.474	25.92
873.763	-3.98
874.052	18.68
874.341	27.71
874.63	35.02
874.918	23.36
875.207	45.21
875.496	17.09
875.784	15.77
876.073	20.61
876.361	12.82
876.649	24.53
876.938	6.75
877.226	27.06
877.514	32.39
877.802	21.29
878.09	-23.27
878.378	23.04
878.666	49.28
878.954	9.03
879.242	53.55
879.53	20.58
879.817	14.74
880.105	32.7
880.392	-2.76
880.68	13.27
880.967	45.09
881.255	35.84
881.542	8.69
881.83	32.69
882.117	31.26
882.404	18.93
882.691	22.98
882.978	20.9
883.265	25.21
883.552	10.15
883.839	6.73
884.126	15.93
884.413	14.76
884.699	22.53
884.986	35.43
885.273	25.33
885.559	25.33
885.846	25.33
