Data from 001-17_forehead_Reflection__3__164.txt Node

Date: Fri Sep 30 19:22:58 CDT 2022
User: ToomeyLab
Spectrometer: FLMS14357
Trigger mode: 0
Integration Time (sec): 1.000000E-2
Scans to average: 100
Electric dark correction enabled: true
Nonlinearity correction enabled: false
Boxcar width: 0
XAxis mode: Wavelengths
Number of Pixels in Spectrum: 2048
>>>>>Begin Spectral Data<<<<<
189.047	49.32
189.435	49.32
189.823	49.32
190.211	-539.53
190.599	88.77
190.987	-360.3
191.375	-48.21
191.763	-180.1
192.151	-65.98
192.538	70.4
192.926	746.68
193.314	-14418.18
193.702	643.67
194.089	-247.78
194.477	54.95
194.864	79.8
195.252	72.09
195.639	2.54
196.027	222.98
196.414	-94.04
196.801	18718.52
197.189	131.98
197.576	158.11
197.963	25.86
198.351	25.01
198.738	1.52
199.125	30.27
199.512	13.08
199.899	-35.8
200.286	13.5
200.673	-50.58
201.06	-8.43
201.447	-32.17
201.833	13.64
202.22	-33.88
202.607	-21.56
202.994	-4.82
203.38	62.78
203.767	32.52
204.154	32.5
204.54	15.63
204.927	-121.77
205.313	13.72
205.699	-19.78
206.086	25.83
206.472	38.63
206.858	19.35
207.245	-64.41
207.631	24.54
208.017	-1.54
208.403	24.75
208.789	21.74
209.175	37.01
209.561	25.01
209.947	28.88
210.333	36.09
210.719	42.41
211.105	-19.07
211.491	17.09
211.876	44.8
212.262	37.72
212.648	-8.25
213.034	11.25
213.419	7.27
213.805	13.37
214.19	-41.6
214.576	4.23
214.961	6.38
215.346	26.49
215.732	-33.1
216.117	-23.3
216.502	14.44
216.888	-23.13
217.273	30.85
217.658	-1.31
218.043	24.69
218.428	10.42
218.813	-11.39
219.198	14.59
219.583	9.16
219.968	6.08
220.353	13.18
220.738	-0.78
221.122	-3.49
221.507	-6.15
221.892	-5.91
222.276	-1.17
222.661	1.09
223.046	-24.17
223.43	11.96
223.815	7.44
224.199	4.47
224.583	10.55
224.968	18.51
225.352	-0.13
225.736	-5
226.121	2.49
226.505	7.55
226.889	-3.23
227.273	4.43
227.657	-5.21
228.041	2.25
228.425	1.63
228.809	1.21
229.193	0.69
229.577	0.78
229.961	1.05
230.344	0.62
230.728	1.71
231.112	1.14
231.495	1.25
231.879	1.88
232.263	1.57
232.646	2.13
233.03	1.23
233.413	1.62
233.797	-3.02
234.18	-0.77
234.563	1.78
234.946	0.81
235.33	0.04
235.713	-0.07
236.096	0.95
236.479	0.81
236.862	1.65
237.245	1.81
237.628	0.77
238.011	0.17
238.394	-1.16
238.777	1.03
239.16	1.39
239.543	1.46
239.925	0.27
240.308	1.74
240.691	1.67
241.073	1.63
241.456	0.89
241.838	1.18
242.221	1.98
242.603	1.54
242.986	1.71
243.368	1.21
243.75	1.12
244.133	0.9
244.515	1.01
244.897	1.08
245.279	1.29
245.661	1.76
246.043	0.92
246.425	1.56
246.807	0.97
247.189	1.73
247.571	1.41
247.953	1.32
248.335	1.5
248.717	1.07
249.098	1.36
249.48	1.44
249.862	1.34
250.243	1.18
250.625	1.63
251.006	1.16
251.388	0.92
251.769	0.87
252.151	0.4
252.532	0.32
252.913	0.15
253.295	1.21
253.676	1.67
254.057	1.44
254.438	0.79
254.819	1.22
255.2	1.22
255.581	1.93
255.962	1.94
256.343	-0.54
256.724	2.42
257.105	0.42
257.486	1.39
257.867	1.09
258.247	1.74
258.628	1.52
259.009	1.42
259.389	1.21
259.77	1.05
260.15	1.4
260.531	1.47
260.911	1.19
261.292	1.62
261.672	1.05
262.052	1.33
262.432	1.49
262.813	1.77
263.193	1.59
263.573	1.27
263.953	1.47
264.333	1.4
264.713	0.95
265.093	1.49
265.473	1.53
265.853	1.05
266.233	1.61
266.612	2.06
266.992	1.27
267.372	1.41
267.752	1.22
268.131	1.16
268.511	1.21
268.89	0.99
269.27	2.11
269.649	1.39
270.029	1.24
270.408	1.92
270.787	1.71
271.167	1.35
271.546	1.4
271.925	1.42
272.304	1.23
272.683	0.89
273.062	1.43
273.441	1.07
273.82	1.03
274.199	1.34
274.578	1.22
274.957	0.99
275.336	1.38
275.715	1.27
276.093	1.77
276.472	1.15
276.851	1.33
277.229	2.03
277.608	1.54
277.986	1.42
278.365	1.26
278.743	1.54
279.122	0.51
279.5	1.39
279.878	1.2
280.257	1.58
280.635	0.94
281.013	2.11
281.391	1.65
281.769	1.51
282.147	0.74
282.525	1.68
282.903	1.7
283.281	1.63
283.659	1.15
284.037	1.5
284.415	0.69
284.792	1.63
285.17	1.35
285.548	1.78
285.925	1
286.303	1.1
286.68	1.15
287.058	1.29
287.435	1.52
287.813	1.47
288.19	1.27
288.567	1.07
288.945	0.95
289.322	1.38
289.699	0.93
290.076	1.35
290.453	1.52
290.83	1.07
291.207	1.92
291.584	1.18
291.961	1.54
292.338	1.44
292.715	1.67
293.092	1.37
293.469	1.31
293.845	2.08
294.222	1.48
294.599	1.31
294.975	1.4
295.352	1.8
295.728	1.49
296.105	1.83
296.481	1.79
296.858	0.98
297.234	1.24
297.61	1.72
297.986	1.63
298.363	1.5
298.739	1.8
299.115	1.74
299.491	1.77
299.867	1.52
300.243	1.85
300.619	1.41
300.995	1.6
301.371	1.82
301.746	2.08
302.122	1.69
302.498	1.4
302.874	1.17
303.249	1.79
303.625	1.92
304	1.58
304.376	1.56
304.751	1.91
305.127	1.62
305.502	1.52
305.878	2.05
306.253	2.46
306.628	1.4
307.003	2.01
307.378	2.13
307.754	2
308.129	1.97
308.504	1.83
308.879	1.97
309.254	1.53
309.629	1.66
310.003	2.02
310.378	2.23
310.753	1.93
311.128	2.1
311.502	2.28
311.877	2.34
312.252	2.08
312.626	2.11
313.001	2.03
313.375	2.38
313.75	2.44
314.124	2.11
314.498	2.15
314.873	2.26
315.247	2.37
315.621	2.33
315.995	2.4
316.369	2.42
316.743	2.31
317.117	2.18
317.491	2.26
317.865	2.56
318.239	2.37
318.613	2.7
318.987	2.33
319.361	2.02
319.734	2.76
320.108	2.34
320.482	2.5
320.855	3.27
321.229	2.39
321.602	3.17
321.976	2.97
322.349	2.27
322.723	2.41
323.096	2.59
323.469	3.29
323.843	3.07
324.216	2.53
324.589	3.44
324.962	2.78
325.335	2.62
325.708	2.82
326.081	3.36
326.454	3.02
326.827	3.01
327.2	3.17
327.573	3.05
327.945	3.19
328.318	3.37
328.691	3.44
329.063	3.23
329.436	3.18
329.809	2.95
330.181	3.01
330.553	3.65
330.926	3.43
331.298	3.13
331.671	3.59
332.043	2.87
332.415	3.28
332.787	3.7
333.159	3.02
333.532	3.19
333.904	3.32
334.276	3.19
334.648	3.66
335.02	3.33
335.391	3.62
335.763	3.12
336.135	2.88
336.507	3.73
336.879	3.56
337.25	4.05
337.622	2.87
337.993	3
338.365	3.85
338.736	3.71
339.108	3.83
339.479	3.96
339.851	3.81
340.222	3.5
340.593	3.69
340.964	4.05
341.336	3.4
341.707	3.69
342.078	3.8
342.449	3.91
342.82	3.66
343.191	3.42
343.562	4.11
343.933	4.21
344.303	3.71
344.674	4.45
345.045	3.78
345.416	3.75
345.786	4.07
346.157	3.41
346.527	3.9
346.898	3.99
347.268	3.8
347.639	3.91
348.009	4.01
348.38	4.02
348.75	4.01
349.12	4.23
349.49	3.88
349.861	4.29
350.231	4.53
350.601	3.8
350.971	3.87
351.341	4.5
351.711	4.11
352.081	3.95
352.45	4.17
352.82	3.97
353.19	3.75
353.56	4.19
353.929	4.01
354.299	4.04
354.669	4.35
355.038	4.75
355.408	4.14
355.777	4.56
356.147	4.12
356.516	4.52
356.885	4.33
357.254	4.35
357.624	4.52
357.993	4.2
358.362	4.29
358.731	4.1
359.1	4.01
359.469	4.54
359.838	4.29
360.207	4.64
360.576	4.64
360.945	4.34
361.314	4.44
361.682	4.57
362.051	4.73
362.42	4.28
362.788	4.52
363.157	4.56
363.525	4.66
363.894	4.72
364.262	4.71
364.631	4.62
364.999	4.89
365.367	4.58
365.735	4.91
366.104	4.71
366.472	4.73
366.84	4.61
367.208	4.81
367.576	4.72
367.944	4.75
368.312	4.85
368.68	4.67
369.048	5.15
369.416	4.54
369.783	4.86
370.151	4.72
370.519	5
370.886	5.01
371.254	5.17
371.621	5.54
371.989	5.01
372.356	4.9
372.724	4.91
373.091	5.24
373.458	4.86
373.826	4.82
374.193	5.32
374.56	5.34
374.927	5.21
375.294	5.07
375.661	5
376.028	5.33
376.395	5.37
376.762	5.1
377.129	5.49
377.496	4.79
377.863	5.14
378.229	5.27
378.596	5.04
378.963	5.18
379.329	5.41
379.696	5.22
380.062	5.36
380.429	5.26
380.795	5.05
381.161	5.37
381.528	5.27
381.894	5.38
382.26	5.54
382.626	5.56
382.993	5.58
383.359	5.29
383.725	5.34
384.091	5.33
384.457	5.75
384.823	5.77
385.188	5.51
385.554	5.6
385.92	5.64
386.286	5.42
386.651	5.58
387.017	5.44
387.383	5.66
387.748	5.67
388.114	5.75
388.479	5.89
388.845	5.57
389.21	5.54
389.575	5.68
389.94	5.53
390.306	6.02
390.671	5.83
391.036	5.79
391.401	5.89
391.766	5.76
392.131	5.7
392.496	5.81
392.861	5.88
393.226	5.69
393.591	5.66
393.956	5.82
394.32	6.04
394.685	5.84
395.05	5.92
395.414	5.52
395.779	5.92
396.143	5.92
396.508	5.97
396.872	6.07
397.236	6.08
397.601	6.22
397.965	6.17
398.329	6.06
398.694	6.13
399.058	6.43
399.422	6.24
399.786	6.32
400.15	6.23
400.514	6.41
400.878	6.16
401.242	5.99
401.605	6.3
401.969	6.01
402.333	6.44
402.697	6.37
403.06	6.26
403.424	6.42
403.787	6.2
404.151	6.08
404.514	6.16
404.878	6.21
405.241	6.11
405.604	6.44
405.968	6.2
406.331	6.42
406.694	6.34
407.057	6.47
407.42	6.4
407.783	6.42
408.146	6.61
408.509	6.66
408.872	6.54
409.235	6.48
409.598	6.65
409.961	6.35
410.323	6.41
410.686	6.58
411.049	6.43
411.411	6.41
411.774	6.57
412.136	6.68
412.499	6.77
412.861	6.78
413.223	6.51
413.586	6.45
413.948	6.51
414.31	6.79
414.672	6.87
415.035	6.75
415.397	6.39
415.759	6.95
416.121	6.75
416.483	6.46
416.845	6.64
417.206	6.77
417.568	6.93
417.93	6.47
418.292	6.85
418.653	6.73
419.015	6.62
419.377	6.69
419.738	6.73
420.1	6.65
420.461	6.66
420.822	6.68
421.184	6.6
421.545	6.63
421.906	6.71
422.267	6.63
422.629	6.6
422.99	6.69
423.351	6.84
423.712	6.84
424.073	6.82
424.434	6.83
424.795	6.82
425.155	6.77
425.516	6.78
425.877	6.75
426.238	6.86
426.598	6.82
426.959	6.98
427.32	7.05
427.68	7.12
428.041	6.92
428.401	7.32
428.761	7.04
429.122	7.25
429.482	7.17
429.842	7.2
430.202	7.27
430.563	7.07
430.923	7.13
431.283	7.13
431.643	7.33
432.003	7.18
432.363	7.23
432.722	7.15
433.082	7.35
433.442	7.24
433.802	7.23
434.161	7.25
434.521	7.17
434.881	7.17
435.24	7.21
435.6	7.3
435.959	7.46
436.319	7.17
436.678	7.32
437.037	7.43
437.396	7.39
437.756	7.27
438.115	7.48
438.474	7.57
438.833	7.43
439.192	7.43
439.551	7.51
439.91	7.45
440.269	7.5
440.628	7.46
440.987	7.47
441.345	7.33
441.704	7.39
442.063	7.53
442.421	7.46
442.78	7.48
443.138	7.51
443.497	7.54
443.855	7.62
444.214	7.72
444.572	7.75
444.93	7.68
445.288	7.82
445.647	7.55
446.005	7.75
446.363	7.65
446.721	7.55
447.079	7.45
447.437	7.55
447.795	7.57
448.153	7.66
448.51	7.6
448.868	7.75
449.226	7.72
449.584	7.8
449.941	7.82
450.299	7.93
450.656	7.91
451.014	7.88
451.371	7.99
451.729	7.95
452.086	8.01
452.443	8.23
452.801	8.04
453.158	7.99
453.515	7.86
453.872	7.9
454.229	7.86
454.586	7.91
454.943	7.97
455.3	8.14
455.657	8.19
456.014	8.19
456.371	8.26
456.727	8.1
457.084	8.2
457.441	8.14
457.797	7.96
458.154	8.21
458.51	8.39
458.867	8.25
459.223	8.16
459.58	8.22
459.936	8.15
460.292	8.23
460.648	8.02
461.005	7.89
461.361	7.85
461.717	7.87
462.073	8.1
462.429	8.5
462.785	8.46
463.141	8.53
463.496	8.51
463.852	8.54
464.208	8.6
464.564	8.57
464.919	8.56
465.275	8.54
465.631	8.47
465.986	8.5
466.342	8.49
466.697	8.22
467.052	8.44
467.408	8.63
467.763	8.75
468.118	8.63
468.473	8.6
468.829	8.48
469.184	8.7
469.539	8.64
469.894	8.79
470.249	8.77
470.603	8.91
470.958	8.89
471.313	8.54
471.668	8.74
472.023	8.87
472.377	8.69
472.732	8.68
473.086	8.74
473.441	8.6
473.795	9
474.15	8.91
474.504	8.75
474.859	8.84
475.213	8.95
475.567	8.96
475.921	8.95
476.275	8.82
476.63	8.96
476.984	8.9
477.338	8.93
477.692	9.05
478.045	8.85
478.399	8.93
478.753	9.03
479.107	9.02
479.461	8.97
479.814	8.9
480.168	8.98
480.521	8.96
480.875	8.96
481.228	9.12
481.582	9.14
481.935	8.9
482.289	8.89
482.642	9.08
482.995	8.88
483.348	8.97
483.701	8.91
484.055	8.87
484.408	8.77
484.761	8.52
485.114	8.21
485.466	8.14
485.819	8.33
486.172	8.69
486.525	9.1
486.878	9.24
487.23	9.36
487.583	9.27
487.936	9.13
488.288	8.91
488.641	8.7
488.993	8.61
489.345	8.65
489.698	8.82
490.05	8.97
490.402	9.22
490.754	9.28
491.107	9.43
491.459	9.4
491.811	9.39
492.163	9.29
492.515	9.02
492.866	8.88
493.218	8.65
493.57	8.9
493.922	9.13
494.274	9.43
494.625	9.75
494.977	9.76
495.328	9.7
495.68	9.71
496.031	9.62
496.383	9.58
496.734	9.68
497.086	9.71
497.437	9.5
497.788	9.45
498.139	9.47
498.49	9.33
498.842	9.62
499.193	9.58
499.544	9.57
499.894	9.75
500.245	9.76
500.596	9.68
500.947	9.8
501.298	9.89
501.648	9.82
501.999	9.8
502.35	10.12
502.7	10.15
503.051	10.11
503.401	10
503.752	9.97
504.102	10.07
504.452	9.95
504.803	10.05
505.153	9.98
505.503	9.91
505.853	9.98
506.203	9.94
506.553	10.08
506.903	10.12
507.253	10.25
507.603	10.18
507.953	10.06
508.303	10.2
508.652	9.9
509.002	10.14
509.352	10.12
509.701	9.97
510.051	10
510.4	10.07
510.75	10.05
511.099	10.13
511.449	10.07
511.798	10.19
512.147	10.16
512.496	10.21
512.846	10.16
513.195	10.33
513.544	10.21
513.893	10.26
514.242	10.19
514.591	10.41
514.939	10.34
515.288	10.4
515.637	10.44
515.986	10.44
516.334	10.53
516.683	10.48
517.032	10.45
517.38	10.51
517.729	10.44
518.077	10.58
518.426	10.47
518.774	10.43
519.122	10.34
519.47	10.28
519.819	10.31
520.167	10.19
520.515	10.35
520.863	10.46
521.211	10.51
521.559	10.52
521.907	10.56
522.255	10.72
522.602	10.91
522.95	10.78
523.298	10.7
523.645	10.76
523.993	10.61
524.341	10.63
524.688	10.74
525.036	10.58
525.383	10.76
525.73	10.76
526.078	10.77
526.425	10.57
526.772	10.43
527.119	10.35
527.466	10.31
527.814	10.48
528.161	10.74
528.508	10.71
528.854	10.68
529.201	10.56
529.548	10.26
529.895	9.96
530.242	9.85
530.588	10.05
530.935	10.45
531.282	10.77
531.628	10.87
531.975	10.99
532.321	11.08
532.667	11.1
533.014	11.1
533.36	11.03
533.706	10.95
534.052	10.9
534.399	10.58
534.745	10.44
535.091	10.44
535.437	10.73
535.783	10.94
536.129	11.21
536.474	11.32
536.82	11.29
537.166	11.24
537.512	11.08
537.857	10.95
538.203	10.83
538.549	10.9
538.894	11.15
539.239	11.32
539.585	11.43
539.93	11.49
540.276	11.53
540.621	11.52
540.966	11.46
541.311	11.23
541.656	11.23
542.001	10.98
542.346	10.88
542.691	10.58
543.036	10.46
543.381	10.79
543.726	11.15
544.071	11.3
544.415	11.47
544.76	11.38
545.105	11.37
545.449	11.55
545.794	11.53
546.138	11.67
546.483	11.6
546.827	11.77
547.171	11.53
547.516	11.6
547.86	11.62
548.204	11.45
548.548	11.4
548.892	11.55
549.236	11.7
549.58	11.75
549.924	12.06
550.268	11.96
550.612	12.11
550.956	11.95
551.3	12.11
551.643	11.96
551.987	11.95
552.33	12.16
552.674	12.11
553.017	12.04
553.361	12.22
553.704	11.87
554.048	11.96
554.391	12.03
554.734	11.8
555.077	11.99
555.42	12
555.764	12.26
556.107	12.23
556.45	12.29
556.793	12.57
557.135	12.11
557.478	12.24
557.821	12.24
558.164	12.39
558.507	12.58
558.849	12.25
559.192	12.55
559.534	12.45
559.877	12.59
560.219	12.48
560.562	12.58
560.904	12.44
561.246	12.43
561.589	12.33
561.931	12.43
562.273	12.29
562.615	12.47
562.957	12.25
563.299	12.5
563.641	12.51
563.983	12.6
564.325	12.53
564.667	12.68
565.008	12.67
565.35	12.53
565.692	12.58
566.033	12.74
566.375	12.65
566.716	12.51
567.058	12.57
567.399	12.3
567.741	12.3
568.082	12.45
568.423	12.51
568.764	12.61
569.105	12.76
569.447	12.8
569.788	12.83
570.129	12.92
570.47	12.71
570.811	12.76
571.151	12.56
571.492	12.84
571.833	12.59
572.174	12.81
572.514	12.97
572.855	12.76
573.195	12.61
573.536	12.63
573.876	12.5
574.217	12.77
574.557	12.96
574.898	12.8
575.238	12.98
575.578	12.88
575.918	13.06
576.258	12.78
576.598	12.72
576.938	12.78
577.278	13.03
577.618	13
577.958	13.09
578.298	13.16
578.638	13.3
578.977	13.1
579.317	13.19
579.657	13.31
579.996	13.28
580.336	13.32
580.675	13.24
581.014	13.28
581.354	13.2
581.693	13.6
582.032	13.46
582.372	13.37
582.711	13.39
583.05	13.56
583.389	13.34
583.728	13.43
584.067	13.53
584.406	13.42
584.745	13.47
585.083	13.53
585.422	13.8
585.761	13.45
586.1	13.35
586.438	13.63
586.777	13.31
587.115	13.75
587.454	13.63
587.792	13.8
588.13	13.83
588.469	13.55
588.807	13.63
589.145	13.68
589.483	13.46
589.821	13.63
590.159	13.54
590.497	13.85
590.835	13.54
591.173	13.65
591.511	13.48
591.849	13.53
592.187	13.57
592.524	13.78
592.862	13.96
593.2	13.77
593.537	13.68
593.875	13.74
594.212	13.75
594.55	13.77
594.887	13.88
595.224	13.75
595.561	13.65
595.899	13.86
596.236	13.7
596.573	14.06
596.91	13.91
597.247	13.93
597.584	13.81
597.921	13.59
598.258	13.93
598.594	13.24
598.931	13.64
599.268	13.81
599.604	13.86
599.941	13.99
600.277	14.25
600.614	14.38
600.95	14.3
601.287	13.85
601.623	13.93
601.959	13.87
602.296	14.24
602.632	14
602.968	13.94
603.304	14.22
603.64	14.22
603.976	14.09
604.312	13.83
604.648	14.15
604.984	13.7
605.319	13.89
605.655	13.78
605.991	13.97
606.326	13.89
606.662	13.93
606.998	14.18
607.333	14.23
607.668	14.24
608.004	14.28
608.339	14.26
608.674	14.36
609.01	14.59
609.345	14.39
609.68	14.37
610.015	14.29
610.35	14.22
610.685	14.15
611.02	14.06
611.355	13.97
611.689	14.19
612.024	14.4
612.359	14.33
612.694	14.59
613.028	14.8
613.363	14.5
613.697	14.73
614.032	14.52
614.366	14.78
614.7	14.55
615.035	14.78
615.369	14.84
615.703	14.78
616.037	14.58
616.371	14.72
616.705	14.59
617.039	14.79
617.373	14.3
617.707	14.62
618.041	14.42
618.375	14.86
618.709	14.83
619.042	14.77
619.376	14.93
619.71	14.54
620.043	15.04
620.377	14.62
620.71	14.84
621.043	14.73
621.377	14.9
621.71	14.96
622.043	14.68
622.376	15.02
622.709	14.81
623.043	14.84
623.376	14.78
623.709	14.93
624.041	14.94
624.374	15.19
624.707	15.13
625.04	15.08
625.373	14.82
625.705	15
626.038	15.09
626.37	15.15
626.703	14.86
627.035	14.98
627.368	14.87
627.7	15.03
628.032	14.69
628.365	14.79
628.697	15.09
629.029	14.86
629.361	15.12
629.693	15.1
630.025	15.45
630.357	15.33
630.689	15.13
631.021	15.23
631.353	15.55
631.684	15.11
632.016	15.02
632.348	15.09
632.679	15.3
633.011	15.36
633.342	15.42
633.674	14.91
634.005	15.41
634.336	15.54
634.668	15.22
634.999	15.19
635.33	15.27
635.661	15.31
635.992	15.32
636.323	15.25
636.654	15.43
636.985	15.39
637.316	15.27
637.647	15.79
637.977	15.5
638.308	15.77
638.639	15.36
638.969	15.37
639.3	15.2
639.63	15.51
639.961	15.68
640.291	15.46
640.622	15.56
640.952	16.02
641.282	15.45
641.612	15.35
641.943	15.66
642.273	15.46
642.603	15.41
642.933	15.93
643.263	15.53
643.592	15.93
643.922	15.73
644.252	15.71
644.582	15.83
644.911	15.73
645.241	15.77
645.571	16.08
645.9	15.67
646.23	16.03
646.559	15.88
646.888	15.89
647.218	16.06
647.547	15.78
647.876	16.09
648.205	16.14
648.534	15.63
648.863	15.5
649.192	15.87
649.521	15.79
649.85	16.17
650.179	16.11
650.508	16.07
650.837	15.95
651.165	15.96
651.494	15.95
651.822	16.04
652.151	16
652.479	16.12
652.808	15.99
653.136	16.27
653.465	15.44
653.793	15.66
654.121	15.78
654.449	15.93
654.777	16.24
655.105	16.12
655.433	16.28
655.761	15.85
656.089	16.43
656.417	16.22
656.745	15.91
657.073	15.54
657.4	16.11
657.728	16.26
658.056	16.17
658.383	16.4
658.711	15.93
659.038	16.24
659.365	16.24
659.693	16.49
660.02	16.54
660.347	16.09
660.674	16.12
661.001	15.77
661.329	16.18
661.656	16.26
661.982	15.98
662.309	16.24
662.636	16.48
662.963	16.36
663.29	16.38
663.616	16.04
663.943	16.18
664.27	15.94
664.596	16.58
664.923	16.62
665.249	16.29
665.576	16.11
665.902	16.63
666.228	16.13
666.554	16.19
666.881	16.78
667.207	16.76
667.533	16.5
667.859	16.46
668.185	17.16
668.511	16.93
668.837	16.99
669.162	16.43
669.488	16.93
669.814	16.84
670.139	15.61
670.465	16.5
670.791	16.06
671.116	16.54
671.442	16.54
671.767	16.37
672.092	17.08
672.418	16.66
672.743	16.81
673.068	16.73
673.393	16.35
673.718	16.82
674.043	16.93
674.368	17.11
674.693	16.44
675.018	16.5
675.343	16.19
675.667	16.44
675.992	17.04
676.317	16.6
676.641	16.47
676.966	16.73
677.29	16.97
677.615	16.52
677.939	17.07
678.264	17.13
678.588	16.99
678.912	16.85
679.236	16.48
679.56	16.47
679.885	16.67
680.209	16.83
680.532	16.8
680.856	16.95
681.18	16.95
681.504	16.66
681.828	16.69
682.152	17.07
682.475	16.62
682.799	16.95
683.122	16.28
683.446	16.99
683.769	17.14
684.093	17.02
684.416	16.98
684.739	17.25
685.062	17.11
685.386	16.67
685.709	17.01
686.032	16.9
686.355	16.99
686.678	16.53
687.001	17.19
687.324	16.92
687.646	17.66
687.969	16.98
688.292	17.28
688.614	17.34
688.937	16.7
689.26	17.34
689.582	16.56
689.904	17.98
690.227	17.2
690.549	17.12
690.871	16.87
691.194	17.18
691.516	17.5
691.838	16.77
692.16	17.52
692.482	17.11
692.804	18.24
693.126	17.04
693.448	17.02
693.769	17.61
694.091	17.98
694.413	17.53
694.735	17.83
695.056	16.94
695.378	16.88
695.699	16.95
696.021	16.77
696.342	17.04
696.663	17.91
696.984	17.46
697.306	16.63
697.627	16.81
697.948	17.55
698.269	17
698.59	18.02
698.911	17.12
699.232	17.23
699.553	16.86
699.873	16.99
700.194	17.49
700.515	17.07
700.835	17.19
701.156	17.93
701.477	17.14
701.797	17.93
702.117	17.61
702.438	17.79
702.758	17.48
703.078	17.24
703.398	17.51
703.719	17.5
704.039	18.08
704.359	18.13
704.679	17.61
704.999	17.81
705.319	17.45
705.638	18.09
705.958	17.62
706.278	17.71
706.597	17.78
706.917	17.3
707.237	18.68
707.556	17.67
707.876	18.97
708.195	18.06
708.514	17.4
708.834	17.57
709.153	17.98
709.472	18.25
709.791	17.43
710.11	18.2
710.429	17.74
710.748	17.49
711.067	17.75
711.386	17.86
711.705	18.88
712.023	17.88
712.342	17.45
712.661	17.56
712.979	17.41
713.298	18.13
713.616	17.86
713.935	18.12
714.253	17.83
714.572	17.98
714.89	18.52
715.208	18.05
715.526	18.03
715.844	17.91
716.162	17.78
716.48	17.96
716.798	17.98
717.116	18.19
717.434	17.13
717.752	17.86
718.069	17.78
718.387	18.35
718.705	18.32
719.022	17.85
719.34	18.91
719.657	18.74
719.975	19.37
720.292	19.58
720.609	18.58
720.927	18.17
721.244	17.24
721.561	17.91
721.878	19.03
722.195	18.54
722.512	18.03
722.829	18.42
723.146	19.46
723.463	18.21
723.779	16.67
724.096	16.97
724.413	17.7
724.729	17.83
725.046	18.25
725.362	17.88
725.679	17.15
725.995	18.12
726.311	19.41
726.628	18.49
726.944	18.11
727.26	18.75
727.576	18.55
727.892	17.87
728.208	18.41
728.524	17.62
728.84	18.58
729.156	18.77
729.472	18.25
729.787	18.74
730.103	19.13
730.419	18.65
730.734	17.81
731.05	17.29
731.365	18.35
731.681	17.11
731.996	18.72
732.311	19.9
732.626	18
732.942	17.87
733.257	18.48
733.572	19.7
733.887	19.57
734.202	18.25
734.517	17.35
734.832	17.47
735.146	19
735.461	17.93
735.776	18.76
736.091	19.37
736.405	18.43
736.72	19.19
737.034	17.95
737.349	17.48
737.663	19.74
737.977	19.26
738.292	18.99
738.606	19.46
738.92	18.17
739.234	19.76
739.548	19.39
739.862	18.09
740.176	17.73
740.49	18.91
740.804	18.09
741.117	19.49
741.431	17.82
741.745	18.15
742.058	18.71
742.372	18.56
742.685	19.05
742.999	18.39
743.312	19.05
743.626	18.67
743.939	19.52
744.252	18.58
744.565	18.55
744.878	20.24
745.191	18.2
745.505	17.76
745.817	18.2
746.13	20.19
746.443	17.62
746.756	18.31
747.069	20.65
747.381	19.66
747.694	18.24
748.007	20.24
748.319	19.94
748.632	18.82
748.944	20.09
749.256	17.84
749.569	19.34
749.881	17.57
750.193	21.36
750.505	19.52
750.817	18.29
751.129	17.68
751.441	17.52
751.753	20.6
752.065	18.21
752.377	17.24
752.689	18.75
753	17.99
753.312	19.15
753.624	18.52
753.935	18.88
754.247	18.15
754.558	20.15
754.869	19.08
755.181	19.46
755.492	18.06
755.803	20.89
756.114	19.35
756.425	19.16
756.736	20.1
757.047	20.55
757.358	18.03
757.669	18.08
757.98	17.4
758.291	18.96
758.601	19.52
758.912	17.57
759.223	19.74
759.533	18.79
759.844	19.01
760.154	17.16
760.464	18.3
760.775	20.81
761.085	17.63
761.395	17.93
761.705	19.44
762.016	17.77
762.326	18.03
762.636	21.05
762.945	15.61
763.255	17.92
763.565	20.7
763.875	19.82
764.185	20.7
764.494	19.92
764.804	19.12
765.113	18.63
765.423	19.3
765.732	19.88
766.042	20.34
766.351	19.1
766.66	19.66
766.97	20.11
767.279	19.25
767.588	20.22
767.897	20.42
768.206	21.93
768.515	19.8
768.824	19.18
769.133	20.05
769.441	21.4
769.75	21.52
770.059	19.15
770.367	19.28
770.676	17.56
770.984	19.11
771.293	21.54
771.601	22.25
771.91	20.07
772.218	18.58
772.526	19.55
772.834	18.91
773.142	20.9
773.45	18.41
773.758	18.45
774.066	19.31
774.374	17.98
774.682	20.8
774.99	19.61
775.298	19.92
775.605	21.35
775.913	18.68
776.22	21.77
776.528	18.85
776.835	19.11
777.143	18.77
777.45	18.55
777.757	15.59
778.065	19.32
778.372	21.63
778.679	22.64
778.986	18.57
779.293	20.37
779.6	21.92
779.907	18.88
780.214	18.57
780.52	20.27
780.827	21.09
781.134	18.11
781.44	18.48
781.747	17.38
782.053	17.89
782.36	20.13
782.666	19.54
782.973	16.27
783.279	19.45
783.585	17.04
783.891	20.52
784.197	23.56
784.503	16.64
784.809	18.3
785.115	20.55
785.421	19.75
785.727	21.68
786.033	14.1
786.339	19.24
786.644	20.75
786.95	19.48
787.255	20.33
787.561	15.93
787.866	19.29
788.172	20.08
788.477	21.35
788.782	12.9
789.088	18.39
789.393	22.11
789.698	21.29
790.003	21.34
790.308	19.73
790.613	19.48
790.918	24.36
791.223	18.06
791.527	19.59
791.832	14.74
792.137	23.77
792.441	16.7
792.746	21.6
793.05	18.95
793.355	20.34
793.659	15.15
793.963	23.76
794.268	18.45
794.572	21.03
794.876	21.25
795.18	17.21
795.484	19.71
795.788	23.34
796.092	18.65
796.396	18.46
796.7	19.68
797.004	20.8
797.307	20.35
797.611	17.05
797.915	18.1
798.218	18.35
798.522	21.53
798.825	21.03
799.128	19.79
799.432	22.92
799.735	18.51
800.038	19.96
800.341	21.7
800.644	19.33
800.947	20.91
801.25	18.26
801.553	15.43
801.856	21.94
802.159	17.41
802.462	21.49
802.764	19.69
803.067	22.36
803.37	17.61
803.672	24.53
803.975	24.44
804.277	27.2
804.579	21
804.882	19.42
805.184	19.43
805.486	21.35
805.788	23.48
806.09	19.22
806.392	23.28
806.694	19.52
806.996	23.39
807.298	20.23
807.6	21.84
807.902	22.16
808.203	17.71
808.505	14.46
808.807	15.32
809.108	23.23
809.409	22.55
809.711	15.79
810.012	23
810.313	21.06
810.615	20.39
810.916	19
811.217	18.51
811.518	23.2
811.819	23.08
812.12	18.1
812.421	18.23
812.722	20.51
813.023	18.98
813.323	21.14
813.624	16.05
813.925	22.14
814.225	16.52
814.526	15.41
814.826	22.51
815.126	24.58
815.427	24.35
815.727	21.67
816.027	25.84
816.327	19
816.627	23.53
816.927	15.54
817.227	21.32
817.527	13.38
817.827	17.7
818.127	18.38
818.427	23.44
818.727	22.23
819.026	19.71
819.326	19.43
819.625	17.75
819.925	24.46
820.224	16.98
820.524	21.11
820.823	20.2
821.122	22.13
821.421	18.65
821.72	22.11
822.019	17.3
822.318	20.66
822.617	19.31
822.916	22.86
823.215	19.99
823.514	22.43
823.813	21.04
824.111	23.47
824.41	19.77
824.709	20.91
825.007	21.1
825.306	21.45
825.604	21.93
825.902	21.59
826.201	21.09
826.499	21.71
826.797	21.4
827.095	22.38
827.393	22.04
827.691	23.83
827.989	21.75
828.287	21.99
828.585	22.51
828.882	21.52
829.18	18.61
829.478	21.66
829.775	20.08
830.073	21.04
830.37	19.48
830.668	21.44
830.965	21.98
831.263	22.54
831.56	20.65
831.857	22.7
832.154	22.1
832.451	24.38
832.748	18.2
833.045	18.43
833.342	19.84
833.639	23.65
833.936	23.93
834.232	20.79
834.529	26.32
834.826	21.22
835.122	20.6
835.419	22.7
835.715	21.64
836.012	20.18
836.308	23.57
836.604	22.96
836.901	21.72
837.197	25
837.493	23.52
837.789	21.54
838.085	20.2
838.381	21.55
838.677	25.32
838.972	20.56
839.268	22.96
839.564	21.36
839.86	21.83
840.155	26.72
840.451	24.63
840.746	21.42
841.042	15.15
841.337	28.51
841.632	22.38
841.928	31.9
842.223	24.13
842.518	13.2
842.813	19.64
843.108	20.63
843.403	21.76
843.698	18.15
843.993	31.3
844.287	25.41
844.582	21.45
844.877	15.94
845.171	24.31
845.466	21.38
845.761	19.59
846.055	28.66
846.349	28.91
846.644	13.92
846.938	26
847.232	12.42
847.526	10.57
847.82	20.8
848.114	22.31
848.408	26.41
848.702	3.69
848.996	25.1
849.29	29.12
849.584	15.44
849.877	19.79
850.171	33.57
850.465	18.85
850.758	11.75
851.052	17.52
851.345	31.24
851.638	30.47
851.932	28.75
852.225	7.42
852.518	15.65
852.811	28.22
853.104	30.01
853.397	28.71
853.69	30.65
853.983	12.19
854.276	46.51
854.569	7.58
854.861	7.07
855.154	15.04
855.447	20.55
855.739	13.01
856.032	32.32
856.324	18.77
856.616	32.23
856.909	13.2
857.201	13.25
857.493	35.22
857.785	-1.58
858.077	16.9
858.369	30.44
858.661	-4.98
858.953	26.53
859.245	14.94
859.537	14.45
859.829	5.6
860.12	-9
860.412	31.03
860.703	29.27
860.995	26.97
861.286	18.4
861.578	32.08
861.869	26.53
862.16	20.56
862.452	19.67
862.743	17.02
863.034	3.72
863.325	12.24
863.616	23
863.907	30.23
864.198	27.99
864.488	17.58
864.779	29.95
865.07	41.62
865.36	30.99
865.651	-5.71
865.941	41.13
866.232	29.37
866.522	42.92
866.813	29.29
867.103	31.54
867.393	31.04
867.683	21.06
867.973	-12.66
868.263	-0.87
868.553	19.9
868.843	25.19
869.133	13.52
869.423	24.97
869.713	16.93
870.002	1.15
870.292	32.6
870.582	6.39
870.871	21.95
871.161	20.74
871.45	40.25
871.739	23.63
872.029	17.69
872.318	26.86
872.607	12.17
872.896	12.7
873.185	27.12
873.474	20.08
873.763	37.45
874.052	24.6
874.341	12.72
874.63	31.07
874.918	5.45
875.207	16.22
875.496	-0.45
875.784	15.39
876.073	1.47
876.361	2.8
876.649	33.84
876.938	30.91
877.226	15.68
877.514	7.68
877.802	50.6
878.09	-18.28
878.378	5.97
878.666	-0.83
878.954	24.23
879.242	14.64
879.53	38
879.817	22.33
880.105	1.64
880.392	11.42
880.68	27.18
880.967	14.98
881.255	31.09
881.542	-16.01
881.83	19.4
882.117	-1.4
882.404	8.49
882.691	4.52
882.978	14.92
883.265	10.02
883.552	27
883.839	23.17
884.126	14.27
884.413	20.07
884.699	23.66
884.986	18.93
885.273	22.24
885.559	22.24
885.846	22.24
