Data from 0278_forehead_Reflection__1__196.txt Node

Date: Fri Oct 20 22:13:47 CDT 2023
User: ToomeyLab
Spectrometer: FLMS14357
Trigger mode: 0
Integration Time (sec): 1.000000E-2
Scans to average: 100
Electric dark correction enabled: true
Nonlinearity correction enabled: false
Boxcar width: 0
XAxis mode: Wavelengths
Number of Pixels in Spectrum: 2048
>>>>>Begin Spectral Data<<<<<
189.047	35.78
189.435	35.78
189.823	35.78
190.211	592.25
190.599	-753.18
190.987	69.31
191.375	-283.73
191.763	75.63
192.151	-124.26
192.538	87.86
192.926	2067.1
193.314	51.38
193.702	44.61
194.089	33.41
194.477	-47.92
194.864	-370.51
195.252	114.36
195.639	364.04
196.027	-50.77
196.414	140.66
196.801	123.84
197.189	-149.73
197.576	-15.2
197.963	-119.52
198.351	50.56
198.738	40.3
199.125	64.83
199.512	48.07
199.899	65.4
200.286	10.52
200.673	54.2
201.06	33.54
201.447	3.83
201.833	44.03
202.22	58.31
202.607	67.96
202.994	56.75
203.38	53.48
203.767	59.39
204.154	48.86
204.54	80.85
204.927	42.68
205.313	25.64
205.699	58.84
206.086	43.13
206.472	53.02
206.858	60.54
207.245	44.77
207.631	42.15
208.017	53.77
208.403	38.34
208.789	67.72
209.175	3.55
209.561	50.47
209.947	29.61
210.333	19.36
210.719	38.5
211.105	42.83
211.491	-6.05
211.876	37.5
212.262	51.77
212.648	57.5
213.034	16.41
213.419	14.85
213.805	36.71
214.19	35.05
214.576	50.27
214.961	22.33
215.346	64.97
215.732	31.88
216.117	15.87
216.502	23.21
216.888	50.37
217.273	9.58
217.658	48.46
218.043	15.11
218.428	24.9
218.813	16.38
219.198	26.51
219.583	-1.1
219.968	-15.66
220.353	27.87
220.738	30.96
221.122	4.15
221.507	39.85
221.892	25.68
222.276	24.23
222.661	29.17
223.046	17
223.43	10.76
223.815	17.42
224.199	32.34
224.583	12.02
224.968	0.41
225.352	11.27
225.736	11.59
226.121	21.79
226.505	7.59
226.889	15.46
227.273	12.17
227.657	14.2
228.041	8.52
228.425	8.19
228.809	9.02
229.193	5.41
229.577	11.42
229.961	5.79
230.344	5.35
230.728	4.58
231.112	5.51
231.495	4.99
231.879	5.53
232.263	5.91
232.646	5.33
233.03	4.67
233.413	4.88
233.797	5.67
234.18	5.64
234.563	6.74
234.946	6.47
235.33	7.64
235.713	6.36
236.096	6.71
236.479	5.85
236.862	5.94
237.245	6.31
237.628	5.73
238.011	7
238.394	4.84
238.777	8.22
239.16	6.89
239.543	7.76
239.925	6.9
240.308	7.69
240.691	5.5
241.073	7.25
241.456	6.72
241.838	5.22
242.221	5.66
242.603	6.68
242.986	5.25
243.368	5.71
243.75	4.73
244.133	5.27
244.515	5.08
244.897	4.84
245.279	5.37
245.661	5.2
246.043	4.71
246.425	5.28
246.807	5.44
247.189	4.92
247.571	5.6
247.953	5.66
248.335	5.65
248.717	5.01
249.098	4.72
249.48	5.03
249.862	5.31
250.243	5.29
250.625	5.27
251.006	5.6
251.388	5.54
251.769	5.65
252.151	5.04
252.532	6.15
252.913	6.25
253.295	5.32
253.676	5.12
254.057	6.01
254.438	5.51
254.819	5.72
255.2	5.77
255.581	5.9
255.962	5.91
256.343	6.3
256.724	5.84
257.105	6.94
257.486	6.78
257.867	6.1
258.247	6.69
258.628	6.43
259.009	6.11
259.389	5.24
259.77	5.36
260.15	5.3
260.531	5.41
260.911	5.86
261.292	4.89
261.672	5.1
262.052	5.28
262.432	5.27
262.813	5.14
263.193	5.51
263.573	5.5
263.953	5.81
264.333	5.74
264.713	6.18
265.093	5.79
265.473	6.11
265.853	5.71
266.233	6.05
266.612	5.67
266.992	5.95
267.372	5.68
267.752	5.27
268.131	5.56
268.511	5.95
268.89	5.54
269.27	4.79
269.649	4.88
270.029	5.38
270.408	5.81
270.787	5.64
271.167	5.56
271.546	5.05
271.925	5.9
272.304	5.68
272.683	5.49
273.062	5.44
273.441	5.27
273.82	5.15
274.199	5.34
274.578	4.93
274.957	5.43
275.336	5.58
275.715	5.45
276.093	5.2
276.472	5.55
276.851	5.12
277.229	5.23
277.608	5.08
277.986	5.14
278.365	5.93
278.743	5.13
279.122	5.15
279.5	5.23
279.878	4.39
280.257	5.47
280.635	5.78
281.013	5.67
281.391	5.17
281.769	4.99
282.147	5.21
282.525	5.71
282.903	5.44
283.281	5.06
283.659	5.22
284.037	5.16
284.415	4.94
284.792	5.07
285.17	5.68
285.548	5.4
285.925	5.19
286.303	5.03
286.68	5.34
287.058	5.67
287.435	5.37
287.813	5
288.19	5.34
288.567	5.22
288.945	5.47
289.322	5.57
289.699	5.11
290.076	6.17
290.453	5.72
290.83	5.24
291.207	6
291.584	5.42
291.961	5.73
292.338	5.56
292.715	5.42
293.092	5.82
293.469	6.29
293.845	5.9
294.222	6.06
294.599	6.18
294.975	6.81
295.352	6.32
295.728	6.4
296.105	6.17
296.481	6.11
296.858	5.95
297.234	6.52
297.61	6.01
297.986	6.06
298.363	6.47
298.739	6.27
299.115	6.11
299.491	6.5
299.867	6.34
300.243	6.48
300.619	6.53
300.995	6.96
301.371	7.22
301.746	6.74
302.122	7.27
302.498	7.14
302.874	7.07
303.249	7.13
303.625	6.76
304	7.5
304.376	7.02
304.751	7
305.127	7.18
305.502	7.97
305.878	7.31
306.253	7.47
306.628	7.52
307.003	7.82
307.378	7.57
307.754	7.69
308.129	8.82
308.504	8.01
308.879	8.32
309.254	8.6
309.629	8.01
310.003	7.69
310.378	8.27
310.753	7.79
311.128	8.92
311.502	8.54
311.877	8.49
312.252	8.39
312.626	8.96
313.001	8.44
313.375	8.87
313.75	8.65
314.124	8.41
314.498	8.85
314.873	8.8
315.247	9.45
315.621	9.14
315.995	9.56
316.369	9.13
316.743	9.15
317.117	9.45
317.491	9.15
317.865	9.84
318.239	9.79
318.613	10.26
318.987	9.23
319.361	9.24
319.734	9.57
320.108	10.34
320.482	10.37
320.855	10.15
321.229	10.77
321.602	10.84
321.976	10.4
322.349	10.96
322.723	10.41
323.096	10.83
323.469	10.47
323.843	11.47
324.216	10.31
324.589	10.9
324.962	11.49
325.335	10.98
325.708	11
326.081	11.12
326.454	10.9
326.827	11.42
327.2	11.28
327.573	11.47
327.945	11.07
328.318	11.11
328.691	11.5
329.063	11.84
329.436	11.15
329.809	11.7
330.181	12.03
330.553	11.49
330.926	11.96
331.298	11.47
331.671	10.99
332.043	11.82
332.415	12.19
332.787	11.86
333.159	12.16
333.532	12.7
333.904	12.25
334.276	12.13
334.648	12.31
335.02	12.58
335.391	12.24
335.763	12.82
336.135	12.47
336.507	13.11
336.879	12.45
337.25	12.89
337.622	13.03
337.993	12.99
338.365	12.89
338.736	12.43
339.108	13.38
339.479	12.54
339.851	13.02
340.222	12.84
340.593	12.78
340.964	12.76
341.336	13.79
341.707	12.98
342.078	13.5
342.449	13.51
342.82	13.1
343.191	13.1
343.562	13.18
343.933	13.08
344.303	13.7
344.674	13.62
345.045	13.57
345.416	13.7
345.786	13.58
346.157	13.67
346.527	13.27
346.898	13.44
347.268	14.13
347.639	13.73
348.009	13.69
348.38	13.94
348.75	13.76
349.12	13.8
349.49	13.92
349.861	14.8
350.231	13.93
350.601	14.67
350.971	14.65
351.341	14.39
351.711	14.89
352.081	14.61
352.45	14.39
352.82	14.45
353.19	14.52
353.56	14.62
353.929	14.62
354.299	14.55
354.669	14.64
355.038	14.73
355.408	15.51
355.777	14.53
356.147	14.91
356.516	15.01
356.885	14.93
357.254	15
357.624	15.13
357.993	14.5
358.362	15.17
358.731	14.8
359.1	14.81
359.469	15.32
359.838	15.41
360.207	14.84
360.576	15.46
360.945	14.74
361.314	15.71
361.682	16.05
362.051	15.56
362.42	15.82
362.788	15.78
363.157	15.53
363.525	15.36
363.894	15.42
364.262	15.64
364.631	15.73
364.999	15.85
365.367	15.93
365.735	15.7
366.104	16.1
366.472	16.2
366.84	16.26
367.208	16.42
367.576	16.29
367.944	16.32
368.312	16.37
368.68	16.63
369.048	16.18
369.416	16.44
369.783	16.41
370.151	16.82
370.519	16.8
370.886	16.74
371.254	16.88
371.621	16.77
371.989	16.57
372.356	17.2
372.724	16.99
373.091	16.5
373.458	16.69
373.826	16.97
374.193	16.7
374.56	16.88
374.927	17.43
375.294	17.16
375.661	17.38
376.028	17.4
376.395	17.34
376.762	17.28
377.129	17.73
377.496	17.62
377.863	18.02
378.229	17.45
378.596	17.7
378.963	17.86
379.329	17.82
379.696	17.75
380.062	17.69
380.429	17.45
380.795	17.76
381.161	17.88
381.528	17.99
381.894	17.74
382.26	18.13
382.626	18.29
382.993	18.03
383.359	18.05
383.725	18.24
384.091	18.28
384.457	18.33
384.823	18.63
385.188	18.8
385.554	18.6
385.92	18.61
386.286	18.47
386.651	18.49
387.017	18.52
387.383	18.54
387.748	18.47
388.114	18.62
388.479	19.05
388.845	19.03
389.21	18.8
389.575	19
389.94	19.05
390.306	19.11
390.671	19.21
391.036	18.94
391.401	19.14
391.766	19.39
392.131	19.41
392.496	19.41
392.861	19.29
393.226	19.51
393.591	19.26
393.956	19.48
394.32	19.55
394.685	19.28
395.05	19.6
395.414	19.61
395.779	19.44
396.143	19.79
396.508	19.38
396.872	20.06
397.236	19.92
397.601	19.74
397.965	19.61
398.329	19.93
398.694	19.94
399.058	20.05
399.422	19.93
399.786	20.17
400.15	20.07
400.514	20.1
400.878	20.5
401.242	20.37
401.605	20.53
401.969	20.42
402.333	20.48
402.697	20.59
403.06	20.55
403.424	20.85
403.787	20.52
404.151	20.72
404.514	20.71
404.878	20.74
405.241	20.8
405.604	20.76
405.968	20.78
406.331	20.75
406.694	20.79
407.057	20.87
407.42	21.2
407.783	20.97
408.146	21.13
408.509	21.16
408.872	21.27
409.235	21.2
409.598	21.24
409.961	21.32
410.323	21.68
410.686	21.29
411.049	21.52
411.411	21.48
411.774	21.71
412.136	21.46
412.499	21.33
412.861	21.85
413.223	21.84
413.586	21.88
413.948	21.9
414.31	22.07
414.672	22
415.035	22.32
415.397	22.31
415.759	22.21
416.121	22.18
416.483	22.34
416.845	22.19
417.206	22.29
417.568	22.35
417.93	22.42
418.292	22.05
418.653	22.38
419.015	22.13
419.377	22.15
419.738	22.27
420.1	22.13
420.461	22.31
420.822	22.31
421.184	22.5
421.545	22.35
421.906	22.28
422.267	22.44
422.629	22.43
422.99	22.33
423.351	22.32
423.712	22.27
424.073	22.47
424.434	22.45
424.795	22.49
425.155	22.77
425.516	22.67
425.877	22.7
426.238	22.6
426.598	22.76
426.959	22.75
427.32	22.83
427.68	22.97
428.041	23.05
428.401	23.21
428.761	23.28
429.122	23.39
429.482	23.4
429.842	23.46
430.202	23.83
430.563	23.67
430.923	23.77
431.283	23.61
431.643	23.82
432.003	23.84
432.363	24
432.722	23.91
433.082	23.72
433.442	24.11
433.802	24.18
434.161	24.02
434.521	24.18
434.881	24.32
435.24	24.42
435.6	23.98
435.959	24.07
436.319	24.2
436.678	24.29
437.037	24.42
437.396	24.48
437.756	24.54
438.115	24.73
438.474	24.5
438.833	24.71
439.192	24.72
439.551	24.79
439.91	24.82
440.269	24.93
440.628	24.98
440.987	24.8
441.345	24.97
441.704	24.86
442.063	24.77
442.421	24.89
442.78	24.74
443.138	25.02
443.497	24.97
443.855	25.1
444.214	25.19
444.572	25.22
444.93	25.39
445.288	25.4
445.647	25.59
446.005	25.52
446.363	25.57
446.721	25.55
447.079	25.58
447.437	25.58
447.795	25.39
448.153	25.36
448.51	25.47
448.868	25.45
449.226	25.47
449.584	25.48
449.941	25.45
450.299	25.87
450.656	25.84
451.014	25.84
451.371	26.05
451.729	26.28
452.086	26.17
452.443	26.3
452.801	26.39
453.158	26.25
453.515	26.61
453.872	26.45
454.229	26.53
454.586	26.32
454.943	26.28
455.3	26.49
455.657	26.74
456.014	26.83
456.371	26.98
456.727	27
457.084	26.84
457.441	27.24
457.797	27.17
458.154	26.76
458.51	27.07
458.867	27.18
459.223	27.25
459.58	27.33
459.936	27.11
460.292	27.07
460.648	27.05
461.005	27.37
461.361	27.18
461.717	26.94
462.073	27.11
462.429	27.08
462.785	27.3
463.141	27.48
463.496	27.51
463.852	27.5
464.208	27.65
464.564	28.03
464.919	27.68
465.275	28.16
465.631	27.99
465.986	28.4
466.342	28.18
466.697	28.37
467.052	28.16
467.408	28.13
467.763	28.43
468.118	28.22
468.473	28.27
468.829	28.6
469.184	28.55
469.539	28.17
469.894	28.46
470.249	28.33
470.603	28.45
470.958	28.69
471.313	28.58
471.668	28.79
472.023	28.89
472.377	28.79
472.732	28.91
473.086	29
473.441	28.92
473.795	29.2
474.15	29.07
474.504	29.02
474.859	29.22
475.213	29.21
475.567	29.12
475.921	29.24
476.275	29.41
476.63	29.37
476.984	29.44
477.338	29.47
477.692	29.42
478.045	29.59
478.399	29.75
478.753	29.7
479.107	29.57
479.461	29.65
479.814	29.95
480.168	29.86
480.521	29.73
480.875	29.67
481.228	29.69
481.582	29.92
481.935	29.96
482.289	29.94
482.642	30.01
482.995	30
483.348	29.83
483.701	29.96
484.055	29.82
484.408	29.86
484.761	29.73
485.114	29.65
485.466	29.25
485.819	29.27
486.172	29.26
486.525	29.28
486.878	29.33
487.23	29.46
487.583	29.57
487.936	29.89
488.288	29.88
488.641	30.01
488.993	29.94
489.345	29.89
489.698	29.85
490.05	29.92
490.402	29.91
490.754	29.97
491.107	30.19
491.459	30.28
491.811	30.47
492.163	30.69
492.515	30.84
492.866	30.76
493.218	30.54
493.57	30.42
493.922	30.47
494.274	30.52
494.625	30.6
494.977	30.61
495.328	31.01
495.68	31.2
496.031	31.33
496.383	31.51
496.734	31.63
497.086	31.75
497.437	31.7
497.788	31.74
498.139	32.02
498.49	31.91
498.842	31.68
499.193	31.86
499.544	31.87
499.894	31.86
500.245	31.83
500.596	32.19
500.947	32.05
501.298	32.3
501.648	32.21
501.999	32.28
502.35	32.36
502.7	32.43
503.051	32.33
503.401	32.64
503.752	32.6
504.102	32.88
504.452	32.72
504.803	32.84
505.153	33.05
505.503	32.95
505.853	32.89
506.203	33.05
506.553	33.09
506.903	32.99
507.253	33.18
507.603	33.13
507.953	33.23
508.303	33.16
508.652	33.51
509.002	33.43
509.352	33.44
509.701	33.49
510.051	33.3
510.4	33.52
510.75	33.36
511.099	33.58
511.449	33.5
511.798	33.59
512.147	33.55
512.496	33.52
512.846	33.58
513.195	33.7
513.544	33.65
513.893	33.71
514.242	33.76
514.591	33.88
514.939	33.91
515.288	34.08
515.637	34.04
515.986	34.19
516.334	34.18
516.683	34.03
517.032	34.33
517.38	34.27
517.729	34.5
518.077	34.47
518.426	34.41
518.774	34.66
519.122	34.57
519.47	34.37
519.819	34.52
520.167	34.25
520.515	34.39
520.863	34.34
521.211	34.28
521.559	34.58
521.907	34.43
522.255	34.56
522.602	34.79
522.95	34.82
523.298	35.02
523.645	35.09
523.993	35.2
524.341	35.13
524.688	35.25
525.036	35.28
525.383	35.29
525.73	35.37
526.078	35.54
526.425	35.4
526.772	35.51
527.119	35.41
527.466	35.05
527.814	35.15
528.161	35.21
528.508	35.14
528.854	35.32
529.201	35.22
529.548	35.28
529.895	35.11
530.242	35.1
530.588	35.1
530.935	35.12
531.282	35.15
531.628	35.17
531.975	35.09
532.321	35.33
532.667	35.61
533.014	35.77
533.36	35.69
533.706	35.96
534.052	35.98
534.399	35.94
534.745	35.97
535.091	35.95
535.437	35.93
535.783	35.78
536.129	36
536.474	36.11
536.82	36.2
537.166	36.23
537.512	36.64
537.857	36.74
538.203	36.44
538.549	36.54
538.894	36.5
539.239	36.65
539.585	36.7
539.93	36.73
540.276	37.05
540.621	36.98
540.966	37.03
541.311	37.42
541.656	37.35
542.001	37.51
542.346	37.43
542.691	37.15
543.036	36.95
543.381	36.87
543.726	36.82
544.071	36.92
544.415	36.81
544.76	37.05
545.105	37.2
545.449	37.32
545.794	37.38
546.138	37.35
546.483	37.64
546.827	37.83
547.171	37.92
547.516	37.91
547.86	38.03
548.204	37.97
548.548	38.16
548.892	37.87
549.236	38.14
549.58	38.15
549.924	38.31
550.268	38.55
550.612	38.63
550.956	38.88
551.3	38.68
551.643	38.79
551.987	38.93
552.33	39.01
552.674	38.9
553.017	38.99
553.361	39.28
553.704	39.33
554.048	39.17
554.391	39.15
554.734	39.46
555.077	39.14
555.42	39.13
555.764	39.28
556.107	39.46
556.45	39.33
556.793	39.62
557.135	39.48
557.478	39.64
557.821	39.64
558.164	39.81
558.507	39.69
558.849	40.15
559.192	39.98
559.534	39.94
559.877	39.82
560.219	40.25
560.562	40.07
560.904	40.18
561.246	40.12
561.589	40.08
561.931	40.2
562.273	40.4
562.615	40.38
562.957	40.43
563.299	40.34
563.641	40.68
563.983	40.27
564.325	40.62
564.667	40.63
565.008	40.66
565.35	40.95
565.692	40.73
566.033	41.01
566.375	41.14
566.716	40.95
567.058	40.99
567.399	41.03
567.741	41.04
568.082	41
568.423	40.85
568.764	40.86
569.105	41.02
569.447	41.11
569.788	41.09
570.129	41.13
570.47	41.35
570.811	41.24
571.151	41.56
571.492	41.49
571.833	41.5
572.174	41.58
572.514	41.24
572.855	41.68
573.195	41.53
573.536	41.74
573.876	41.77
574.217	41.6
574.557	41.73
574.898	41.76
575.238	41.82
575.578	41.92
575.918	41.87
576.258	41.98
576.598	41.87
576.938	42.13
577.278	42.12
577.618	42.02
577.958	42.14
578.298	42.15
578.638	42.35
578.977	42.48
579.317	42.37
579.657	42.58
579.996	42.59
580.336	42.6
580.675	42.61
581.014	42.74
581.354	42.69
581.693	42.95
582.032	43.2
582.372	43.12
582.711	43.4
583.05	43.25
583.389	43.17
583.728	43.27
584.067	43.17
584.406	43.27
584.745	43.34
585.083	43.17
585.422	43.59
585.761	43.49
586.1	43.69
586.438	43.32
586.777	43.66
587.115	43.94
587.454	43.77
587.792	43.44
588.13	43.69
588.469	43.48
588.807	43.42
589.145	43.82
589.483	43.73
589.821	43.76
590.159	44.03
590.497	44.1
590.835	44.02
591.173	44.01
591.511	43.99
591.849	44.03
592.187	44.05
592.524	44.14
592.862	44.12
593.2	44.18
593.537	44.41
593.875	44.35
594.212	44.46
594.55	44.53
594.887	44.61
595.224	44.7
595.561	44.56
595.899	44.58
596.236	44.58
596.573	44.91
596.91	44.66
597.247	44.83
597.584	44.5
597.921	45.15
598.258	44.8
598.594	44.96
598.931	44.77
599.268	44.67
599.604	44.89
599.941	44.8
600.277	44.72
600.614	44.89
600.95	45.16
601.287	44.98
601.623	45.23
601.959	45.1
602.296	45.27
602.632	45.56
602.968	45.35
603.304	45.44
603.64	45.34
603.976	45.71
604.312	45.98
604.648	45.54
604.984	45.58
605.319	45.51
605.655	45.72
605.991	45.59
606.326	45.45
606.662	45.53
606.998	45.62
607.333	45.6
607.668	45.61
608.004	45.83
608.339	45.89
608.674	46
609.01	46.11
609.345	46.3
609.68	46.31
610.015	45.87
610.35	46.52
610.685	46.72
611.02	46.79
611.355	46.23
611.689	46.15
612.024	46.37
612.359	46.53
612.694	46.23
613.028	46.43
613.363	46.79
613.697	46.47
614.032	47.08
614.366	46.62
614.7	46.71
615.035	47.12
615.369	46.8
615.703	46.94
616.037	46.91
616.371	47.29
616.705	47.29
617.039	47.27
617.373	47.12
617.707	47.43
618.041	47.42
618.375	47.25
618.709	47.29
619.042	47.03
619.376	47.61
619.71	47.57
620.043	47.82
620.377	47.18
620.71	47.77
621.043	47.82
621.377	47.81
621.71	47.73
622.043	47.49
622.376	48.07
622.709	47.65
623.043	47.93
623.376	48.09
623.709	47.63
624.041	48.06
624.374	47.69
624.707	47.66
625.04	47.94
625.373	48.27
625.705	48.02
626.038	48.71
626.37	48.16
626.703	48.21
627.035	47.52
627.368	47.94
627.7	48.52
628.032	48.01
628.365	48.68
628.697	48.45
629.029	48.37
629.361	48.53
629.693	48.36
630.025	48.47
630.357	48.38
630.689	48.73
631.021	49.02
631.353	48.68
631.684	48.29
632.016	48.6
632.348	48.74
632.679	49.09
633.011	48.84
633.342	48.97
633.674	48.79
634.005	48.93
634.336	49.48
634.668	49.24
634.999	48.91
635.33	48.64
635.661	49.16
635.992	49.26
636.323	49.62
636.654	49.57
636.985	49.19
637.316	49.39
637.647	49.51
637.977	49.47
638.308	49.34
638.639	50.03
638.969	49.48
639.3	49.63
639.63	49.99
639.961	49.19
640.291	50.11
640.622	49.4
640.952	49.74
641.282	49.56
641.612	50.1
641.943	49.55
642.273	49.64
642.603	50.06
642.933	49.84
643.263	50.06
643.592	49.78
643.922	49.93
644.252	49.65
644.582	50.44
644.911	49.97
645.241	49.99
645.571	50.01
645.9	50.26
646.23	50.26
646.559	50.6
646.888	50.37
647.218	50.42
647.547	50.46
647.876	50.4
648.205	51.05
648.534	50.61
648.863	50.62
649.192	50.39
649.521	49.96
649.85	50.55
650.179	50.45
650.508	50.73
650.837	50.32
651.165	50.89
651.494	50.26
651.822	50.78
652.151	51.01
652.479	50.91
652.808	51.48
653.136	50.94
653.465	51.02
653.793	51.7
654.121	51.1
654.449	50.82
654.777	50.63
655.105	51.2
655.433	51.52
655.761	51.48
656.089	50.71
656.417	50.89
656.745	51.07
657.073	51.89
657.4	51.12
657.728	50.95
658.056	51.46
658.383	51.46
658.711	51.45
659.038	51.56
659.365	51.32
659.693	51.69
660.02	51.38
660.347	51.83
660.674	51.38
661.001	51.84
661.329	51.82
661.656	51.96
661.982	51.37
662.309	51.47
662.636	51.96
662.963	52.07
663.29	51.48
663.616	52.02
663.943	51.48
664.27	52.15
664.596	51.64
664.923	52.01
665.249	51.71
665.576	52.22
665.902	51.5
666.228	52.01
666.554	52.24
666.881	52.23
667.207	52.41
667.533	51.84
667.859	52.2
668.185	52.35
668.511	52.78
668.837	52.15
669.162	52.11
669.488	52.58
669.814	51.94
670.139	52.11
670.465	52.28
670.791	52.8
671.116	53.08
671.442	53.14
671.767	52.98
672.092	52.75
672.418	52.89
672.743	52.96
673.068	52.86
673.393	53.16
673.718	52.83
674.043	53.27
674.368	52.71
674.693	53.05
675.018	52.99
675.343	52.82
675.667	52.87
675.992	53.29
676.317	52.77
676.641	53.64
676.966	53.05
677.29	53.06
677.615	53.85
677.939	53
678.264	53.46
678.588	51.95
678.912	52.9
679.236	53.31
679.56	53.59
679.885	53.78
680.209	52.93
680.532	52.87
680.856	53.2
681.18	53.26
681.504	53.71
681.828	53.38
682.152	54.15
682.475	53.73
682.799	54.06
683.122	53.66
683.446	54.05
683.769	53.72
684.093	53.61
684.416	54.3
684.739	53.7
685.062	53.89
685.386	53.88
685.709	53.82
686.032	53.9
686.355	54.03
686.678	53.66
687.001	53.33
687.324	54.22
687.646	54.79
687.969	53.98
688.292	54.73
688.614	53.64
688.937	54.32
689.26	53.57
689.582	54.23
689.904	53.56
690.227	54.23
690.549	54.07
690.871	53.91
691.194	54.12
691.516	54.36
691.838	55.44
692.16	54.31
692.482	54.18
692.804	54.61
693.126	54.73
693.448	54.95
693.769	54.64
694.091	54.29
694.413	55.09
694.735	54.48
695.056	53.78
695.378	54.48
695.699	54.83
696.021	55.11
696.342	54.32
696.663	55.38
696.984	54.72
697.306	55.81
697.627	54.74
697.948	54.55
698.269	54.98
698.59	55.06
698.911	54.82
699.232	55.12
699.553	55.57
699.873	55.1
700.194	55.19
700.515	55.47
700.835	55.3
701.156	54.85
701.477	55.17
701.797	55.51
702.117	55.05
702.438	55.36
702.758	55.3
703.078	55.49
703.398	55.43
703.719	55.79
704.039	55.26
704.359	55.81
704.679	55.53
704.999	54.88
705.319	56.42
705.638	55.05
705.958	54.87
706.278	55.37
706.597	55.18
706.917	55.4
707.237	54.69
707.556	55.48
707.876	54.89
708.195	56.67
708.514	56.4
708.834	56.15
709.153	55.41
709.472	56.68
709.791	55.43
710.11	56.23
710.429	56.43
710.748	56.23
711.067	55.97
711.386	56.86
711.705	55.95
712.023	55.36
712.342	55.09
712.661	56.33
712.979	56.45
713.298	56.96
713.616	55.88
713.935	56.22
714.253	55.67
714.572	56.09
714.89	57.1
715.208	56.27
715.526	57.56
715.844	55.63
716.162	56.75
716.48	57.31
716.798	56.94
717.116	56.49
717.434	56.53
717.752	56.08
718.069	56.46
718.387	56.23
718.705	56.66
719.022	56.4
719.34	57.26
719.657	57.03
719.975	57.06
720.292	58.04
720.609	57.43
720.927	58.32
721.244	57.4
721.561	56.89
721.878	57.2
722.195	57.63
722.512	56.52
722.829	57.87
723.146	58.26
723.463	57.97
723.779	56.15
724.096	56.91
724.413	58.35
724.729	56.13
725.046	57.52
725.362	57.64
725.679	55.84
725.995	57.49
726.311	56.77
726.628	59.46
726.944	56.12
727.26	57.21
727.576	57.21
727.892	56.75
728.208	58.25
728.524	56.53
728.84	57.21
729.156	59.02
729.472	58.96
729.787	57.67
730.103	58.61
730.419	57.15
730.734	57.41
731.05	58.43
731.365	58.01
731.681	58.61
731.996	57.86
732.311	56.25
732.626	55.92
732.942	57
733.257	58.04
733.572	58.1
733.887	57.56
734.202	58.16
734.517	58.06
734.832	58.23
735.146	58.19
735.461	57.75
735.776	57.52
736.091	57.87
736.405	57.2
736.72	58.41
737.034	58.36
737.349	58.17
737.663	59.01
737.977	57.57
738.292	58.56
738.606	57.29
738.92	59.22
739.234	59.63
739.548	58.15
739.862	56.33
740.176	59.08
740.49	56.6
740.804	59.37
741.117	59.07
741.431	57.36
741.745	59.4
742.058	57.55
742.372	58.45
742.685	57.38
742.999	60.25
743.312	60.21
743.626	58.56
743.939	58.75
744.252	58.55
744.565	59.17
744.878	57.89
745.191	60.61
745.505	57.58
745.817	59.58
746.13	58.78
746.443	61.89
746.756	61.04
747.069	58.54
747.381	61.07
747.694	59.98
748.007	58.95
748.319	59.99
748.632	60.31
748.944	59.27
749.256	59.62
749.569	57.4
749.881	59.91
750.193	58.82
750.505	61
750.817	57.76
751.129	57.55
751.441	59.09
751.753	59.34
752.065	60.58
752.377	60.43
752.689	60.68
753	58.44
753.312	58.25
753.624	59.48
753.935	61.35
754.247	60.5
754.558	58.62
754.869	60.36
755.181	59.93
755.492	58.61
755.803	58.98
756.114	57.74
756.425	58.54
756.736	59.65
757.047	58.8
757.358	59.74
757.669	59.56
757.98	58.27
758.291	59.59
758.601	60.17
758.912	60.87
759.223	58.28
759.533	59.39
759.844	60.9
760.154	60.07
760.464	61.77
760.775	59.39
761.085	57.85
761.395	59.28
761.705	59.35
762.016	59.85
762.326	60.67
762.636	59.6
762.945	59.06
763.255	61.52
763.565	60.13
763.875	58.47
764.185	60.51
764.494	60.78
764.804	59.17
765.113	59.32
765.423	59.26
765.732	60.47
766.042	60.37
766.351	59.24
766.66	60.49
766.97	60.32
767.279	59.91
767.588	57.65
767.897	59.74
768.206	59.2
768.515	60
768.824	61.93
769.133	60.76
769.441	58.62
769.75	59.75
770.059	61.16
770.367	60.26
770.676	62.04
770.984	60.46
771.293	62.79
771.601	59.94
771.91	59.78
772.218	59.88
772.526	62.99
772.834	60.59
773.142	61.11
773.45	58.22
773.758	61.58
774.066	59.71
774.374	61.21
774.682	60.99
774.99	61.73
775.298	59.79
775.605	57.58
775.913	61.56
776.22	62.12
776.528	64.63
776.835	62.08
777.143	62.64
777.45	60.37
777.757	57.59
778.065	62.41
778.372	60.63
778.679	58.17
778.986	62.47
779.293	61.85
779.6	64.39
779.907	63.67
780.214	62.91
780.52	61.11
780.827	59.32
781.134	63.6
781.44	65.91
781.747	62.74
782.053	59.43
782.36	62.86
782.666	58.21
782.973	60.87
783.279	57.29
783.585	60.23
783.891	59.47
784.197	59.29
784.503	63.69
784.809	58.98
785.115	61.54
785.421	64.21
785.727	60.94
786.033	59.64
786.339	62.51
786.644	60.19
786.95	64.75
787.255	57.91
787.561	55.64
787.866	62.66
788.172	61.57
788.477	60.46
788.782	58.58
789.088	60.84
789.393	62.9
789.698	58.89
790.003	61.79
790.308	62.56
790.613	58.28
790.918	63.79
791.223	60.69
791.527	59.32
791.832	63.06
792.137	66.63
792.441	57.09
792.746	62.46
793.05	63.27
793.355	63.18
793.659	65.73
793.963	62.85
794.268	60.28
794.572	63.85
794.876	63.93
795.18	61.61
795.484	64.31
795.788	58.93
796.092	61.34
796.396	65.72
796.7	59.04
797.004	64.1
797.307	63.2
797.611	64.23
797.915	62.59
798.218	65.3
798.522	65.66
798.825	65.69
799.128	61.65
799.432	61.56
799.735	62.86
800.038	61.68
800.341	59.65
800.644	59.99
800.947	65.01
801.25	60.14
801.553	61.67
801.856	59.29
802.159	60.37
802.462	61.95
802.764	64.33
803.067	57.35
803.37	59.31
803.672	61.82
803.975	58.1
804.277	60.95
804.579	59.7
804.882	63.12
805.184	61.34
805.486	60.06
805.788	61.91
806.09	58.58
806.392	58.11
806.694	61.8
806.996	62.47
807.298	65.25
807.6	62.9
807.902	62.6
808.203	61.47
808.505	62.2
808.807	57.77
809.108	61.42
809.409	59.22
809.711	66.34
810.012	59.48
810.313	61.23
810.615	58.8
810.916	69.33
811.217	59.9
811.518	61.82
811.819	62.41
812.12	63.8
812.421	58.99
812.722	62.46
813.023	64.58
813.323	55.81
813.624	64.71
813.925	65.73
814.225	58.4
814.526	63.44
814.826	58.18
815.126	68.98
815.427	63.52
815.727	68.34
816.027	62.02
816.327	67.84
816.627	65.52
816.927	64.89
817.227	59.55
817.527	60.54
817.827	65.15
818.127	61.1
818.427	66.5
818.727	65.09
819.026	61.87
819.326	64.86
819.625	60.06
819.925	64.16
820.224	63.5
820.524	65.52
820.823	60.38
821.122	65.41
821.421	64.06
821.72	67.12
822.019	62.5
822.318	62.82
822.617	63.63
822.916	60.71
823.215	66.89
823.514	68.68
823.813	64.78
824.111	67.49
824.41	60.39
824.709	62.94
825.007	63.64
825.306	63.62
825.604	63.46
825.902	63.25
826.201	62.07
826.499	63.43
826.797	62.17
827.095	63.16
827.393	61.82
827.691	61.75
827.989	61.92
828.287	63.42
828.585	62.31
828.882	62.88
829.18	61.55
829.478	65.33
829.775	65.61
830.073	63.18
830.37	64.96
830.668	64.15
830.965	64.25
831.263	62.6
831.56	65.08
831.857	65.51
832.154	64.52
832.451	63.78
832.748	64.19
833.045	65.7
833.342	71.84
833.639	62.95
833.936	66.38
834.232	68.62
834.529	62.07
834.826	61.77
835.122	59.53
835.419	66.13
835.715	60.77
836.012	65.25
836.308	66.9
836.604	63.02
836.901	65.63
837.197	65.46
837.493	65.7
837.789	65.96
838.085	65.9
838.381	64.16
838.677	61.72
838.972	62.88
839.268	62.03
839.564	63.45
839.86	61.57
840.155	61.86
840.451	58.7
840.746	66.23
841.042	64.55
841.337	66.3
841.632	65.15
841.928	59.77
842.223	71.1
842.518	70.44
842.813	63.85
843.108	63.29
843.403	66.2
843.698	65.16
843.993	63.72
844.287	69.1
844.582	68.06
844.877	58.31
845.171	70.61
845.466	66.66
845.761	65.28
846.055	60.84
846.349	78.88
846.644	67.5
846.938	59.8
847.232	64.66
847.526	64.51
847.82	65.57
848.114	65.25
848.408	52.89
848.702	56.93
848.996	51.39
849.29	64.66
849.584	50.96
849.877	56.97
850.171	73.19
850.465	68.93
850.758	71.66
851.052	92.15
851.345	69
851.638	60.09
851.932	53.41
852.225	69.34
852.518	54.23
852.811	64.7
853.104	78.96
853.397	78.06
853.69	80.67
853.983	70.41
854.276	56.04
854.569	84.52
854.861	52.97
855.154	86.73
855.447	78.82
855.739	69.85
856.032	57.47
856.324	64.97
856.616	73.77
856.909	60.58
857.201	53.38
857.493	64.77
857.785	74.42
858.077	78.49
858.369	48.45
858.661	52.22
858.953	67.64
859.245	58.92
859.537	103.23
859.829	120.08
860.12	67.24
860.412	60.66
860.703	79.23
860.995	98.1
861.286	91.41
861.578	92.35
861.869	88.02
862.16	65.32
862.452	52.1
862.743	65.91
863.034	64.93
863.325	71.64
863.616	61.78
863.907	80.18
864.198	50.93
864.488	72.62
864.779	66.07
865.07	45.04
865.36	64.97
865.651	71.28
865.941	84.05
866.232	59.41
866.522	66.65
866.813	102.14
867.103	38.99
867.393	67.31
867.683	75.29
867.973	74.29
868.263	61.3
868.553	65.01
868.843	56.8
869.133	90.18
869.423	95.29
869.713	82.86
870.002	84.14
870.292	48.86
870.582	98.72
870.871	61.65
871.161	77.55
871.45	64.66
871.739	62.93
872.029	95.58
872.318	70.86
872.607	79.05
872.896	70.09
873.185	73.03
873.474	91
873.763	46.36
874.052	67.45
874.341	66.97
874.63	53.8
874.918	38.03
875.207	108.74
875.496	72.16
875.784	74.03
876.073	60.63
876.361	71.98
876.649	42.27
876.938	75.21
877.226	81.25
877.514	74.83
877.802	55.46
878.09	53.06
878.378	95.07
878.666	140.36
878.954	59.27
879.242	61.05
879.53	91.03
879.817	87.35
880.105	92.21
880.392	74.98
880.68	45.78
880.967	69.65
881.255	67.18
881.542	76.43
881.83	74.17
882.117	78.5
882.404	63.74
882.691	76.51
882.978	84.11
883.265	63.06
883.552	77.01
883.839	72.89
884.126	63.64
884.413	65.19
884.699	64.59
884.986	68.67
885.273	55.23
885.559	55.23
885.846	55.23
