Data from 0278_chest_Reflection__2__186.txt Node

Date: Fri Oct 20 22:09:54 CDT 2023
User: ToomeyLab
Spectrometer: FLMS14357
Trigger mode: 0
Integration Time (sec): 1.000000E-2
Scans to average: 100
Electric dark correction enabled: true
Nonlinearity correction enabled: false
Boxcar width: 0
XAxis mode: Wavelengths
Number of Pixels in Spectrum: 2048
>>>>>Begin Spectral Data<<<<<
189.047	11.53
189.435	11.53
189.823	11.53
190.211	884.19
190.599	-1591.64
190.987	93.34
191.375	-124.77
191.763	141.28
192.151	133.74
192.538	34.82
192.926	1110.32
193.314	178.83
193.702	33.96
194.089	61.78
194.477	304.41
194.864	23.5
195.252	21.23
195.639	221.97
196.027	159.3
196.414	120.38
196.801	219.34
197.189	175.47
197.576	177.41
197.963	-1271.31
198.351	55.12
198.738	35.6
199.125	46.83
199.512	36.24
199.899	79.09
200.286	-5.88
200.673	21.81
201.06	4.76
201.447	-5.73
201.833	52.9
202.22	37.34
202.607	92.36
202.994	36.76
203.38	14.14
203.767	57.35
204.154	38.32
204.54	66.53
204.927	16.67
205.313	5.56
205.699	40.23
206.086	27.75
206.472	43.53
206.858	56.37
207.245	29.73
207.631	30.59
208.017	27.59
208.403	14.68
208.789	59.91
209.175	13.8
209.561	5.59
209.947	43.02
210.333	33.95
210.719	17.44
211.105	13.5
211.491	61.63
211.876	-1.7
212.262	39.17
212.648	12.76
213.034	-9.68
213.419	-4.01
213.805	13.03
214.19	26.65
214.576	15.18
214.961	13.16
215.346	23.13
215.732	12.52
216.117	-1.21
216.502	11.18
216.888	21.21
217.273	-9.39
217.658	1.44
218.043	13.71
218.428	19.53
218.813	18.26
219.198	7.12
219.583	11.23
219.968	18.66
220.353	24.8
220.738	18.14
221.122	14.34
221.507	3.04
221.892	-3.81
222.276	10.31
222.661	20.36
223.046	18.55
223.43	16.03
223.815	23.39
224.199	23.87
224.583	-3.27
224.968	5.16
225.352	7.01
225.736	-0.98
226.121	11.42
226.505	7.25
226.889	7.65
227.273	-0.33
227.657	9.72
228.041	11.7
228.425	5.04
228.809	7.41
229.193	6.01
229.577	7.18
229.961	3.47
230.344	3.65
230.728	2.8
231.112	4.8
231.495	4.14
231.879	4.14
232.263	4.76
232.646	4.15
233.03	3.24
233.413	2.97
233.797	3.54
234.18	4.27
234.563	6.55
234.946	6.54
235.33	5.97
235.713	4.03
236.096	4.76
236.479	5.05
236.862	4.76
237.245	3.7
237.628	2.9
238.011	3.57
238.394	3.34
238.777	5.63
239.16	4.23
239.543	4.91
239.925	6.7
240.308	4.03
240.691	5.1
241.073	6.01
241.456	5.19
241.838	5.01
242.221	5.82
242.603	5.24
242.986	3.86
243.368	4.29
243.75	4.07
244.133	3.34
244.515	3.68
244.897	4.11
245.279	4.18
245.661	3.78
246.043	4.11
246.425	4.31
246.807	2.89
247.189	4.54
247.571	3.5
247.953	3.84
248.335	4.29
248.717	3.83
249.098	3.36
249.48	3.89
249.862	3.73
250.243	4.23
250.625	4.14
251.006	4.38
251.388	3.66
251.769	4.73
252.151	3.93
252.532	4.35
252.913	4.67
253.295	2.92
253.676	4.28
254.057	3.81
254.438	4.05
254.819	4.15
255.2	3.97
255.581	3.23
255.962	3.78
256.343	3.84
256.724	3.45
257.105	3.94
257.486	5.01
257.867	3.97
258.247	4.64
258.628	4.09
259.009	3.61
259.389	3.42
259.77	3.32
260.15	3.73
260.531	4.05
260.911	3.85
261.292	3.6
261.672	3.96
262.052	3.93
262.432	3.55
262.813	3.83
263.193	3.92
263.573	3.96
263.953	3.58
264.333	4.48
264.713	3.93
265.093	4.26
265.473	4.35
265.853	2.91
266.233	3.67
266.612	4.43
266.992	3.67
267.372	3.57
267.752	3.54
268.131	4.45
268.511	4.28
268.89	4.15
269.27	3.91
269.649	3.39
270.029	3.98
270.408	4.24
270.787	3.98
271.167	3.62
271.546	3.96
271.925	4.52
272.304	3.83
272.683	4.15
273.062	3.86
273.441	3.79
273.82	3.87
274.199	4.05
274.578	3.68
274.957	4.21
275.336	3.46
275.715	3.87
276.093	3.75
276.472	3.95
276.851	3.77
277.229	3.58
277.608	2.96
277.986	3.55
278.365	4.19
278.743	3.49
279.122	3.74
279.5	4.03
279.878	3.69
280.257	3.97
280.635	3.51
281.013	4.13
281.391	4.01
281.769	3.57
282.147	3.65
282.525	3.79
282.903	3.55
283.281	3.75
283.659	3.66
284.037	3.85
284.415	3.26
284.792	3.4
285.17	3.55
285.548	3.87
285.925	3.51
286.303	3.65
286.68	3.59
287.058	4.24
287.435	4.02
287.813	3.33
288.19	3.64
288.567	3.52
288.945	3.92
289.322	4.24
289.699	3.34
290.076	4.02
290.453	3.87
290.83	3.71
291.207	4.02
291.584	3.43
291.961	3.86
292.338	3.68
292.715	3.4
293.092	3.76
293.469	3.91
293.845	3.61
294.222	3.63
294.599	4.03
294.975	4.27
295.352	4.16
295.728	4.28
296.105	3.64
296.481	4.12
296.858	3.95
297.234	4.44
297.61	3.8
297.986	3.83
298.363	4.06
298.739	4.06
299.115	3.47
299.491	3.89
299.867	3.9
300.243	4.14
300.619	4.3
300.995	3.91
301.371	4.12
301.746	4
302.122	4.32
302.498	3.96
302.874	3.82
303.249	4.05
303.625	4.51
304	4.64
304.376	4.35
304.751	3.36
305.127	4.31
305.502	4.65
305.878	4.37
306.253	4.54
306.628	4.39
307.003	4.42
307.378	4.27
307.754	4.6
308.129	4.4
308.504	4.5
308.879	4.23
309.254	4.59
309.629	4.38
310.003	4.12
310.378	4.67
310.753	4.6
311.128	4.83
311.502	4.61
311.877	4.38
312.252	4.14
312.626	4.79
313.001	4.96
313.375	4.33
313.75	4.8
314.124	4.16
314.498	4.91
314.873	4.47
315.247	4.56
315.621	4.62
315.995	4.81
316.369	4.12
316.743	4.55
317.117	4.81
317.491	4.04
317.865	4.62
318.239	4.85
318.613	4.7
318.987	4.37
319.361	4.26
319.734	4.64
320.108	4.7
320.482	4.67
320.855	4.94
321.229	5.65
321.602	5.26
321.976	4.82
322.349	5.21
322.723	4.45
323.096	4.68
323.469	5.22
323.843	5.52
324.216	5.02
324.589	4.96
324.962	5.61
325.335	5.43
325.708	4.75
326.081	5.12
326.454	5.16
326.827	5.35
327.2	5.03
327.573	4.92
327.945	4.99
328.318	4.64
328.691	4.91
329.063	5.12
329.436	4.94
329.809	5.17
330.181	5.26
330.553	5.05
330.926	4.9
331.298	4.64
331.671	4.73
332.043	4.37
332.415	4.9
332.787	5.23
333.159	4.6
333.532	5.15
333.904	5.4
334.276	4.35
334.648	5.24
335.02	5.54
335.391	5.14
335.763	5.45
336.135	5.05
336.507	5.27
336.879	4.78
337.25	5.14
337.622	5.52
337.993	5.53
338.365	5.31
338.736	5.21
339.108	5.6
339.479	5.08
339.851	5.1
340.222	4.93
340.593	4.93
340.964	5.03
341.336	5.53
341.707	5.33
342.078	5.22
342.449	5
342.82	5.06
343.191	4.99
343.562	4.96
343.933	5.16
344.303	5.12
344.674	5.51
345.045	5.54
345.416	5.25
345.786	5.26
346.157	5.19
346.527	5.43
346.898	5.04
347.268	5.49
347.639	5.56
348.009	5.06
348.38	5.43
348.75	5.24
349.12	5.38
349.49	5.09
349.861	5.58
350.231	4.96
350.601	5.25
350.971	5.45
351.341	5.37
351.711	5.83
352.081	5.62
352.45	5.01
352.82	5
353.19	5.64
353.56	5.45
353.929	5.22
354.299	5.26
354.669	4.91
355.038	5.63
355.408	5.67
355.777	5.38
356.147	5.43
356.516	5.43
356.885	5.24
357.254	5.12
357.624	5.39
357.993	5.2
358.362	5.48
358.731	4.97
359.1	4.89
359.469	5.16
359.838	5.44
360.207	5.31
360.576	5.42
360.945	5.06
361.314	5.59
361.682	5.14
362.051	4.85
362.42	5.15
362.788	5.37
363.157	5.12
363.525	5.18
363.894	5.14
364.262	5.35
364.631	5.34
364.999	5.34
365.367	5.4
365.735	5.2
366.104	5.14
366.472	5.35
366.84	5.52
367.208	5.22
367.576	5.3
367.944	5.42
368.312	5.39
368.68	5.3
369.048	5.33
369.416	5.54
369.783	5.3
370.151	5.51
370.519	5.35
370.886	5.62
371.254	5.67
371.621	5.54
371.989	5.31
372.356	5.55
372.724	5.72
373.091	5.45
373.458	5.15
373.826	5.47
374.193	5.29
374.56	5.38
374.927	5.54
375.294	5.82
375.661	5.77
376.028	5.58
376.395	5.8
376.762	5.47
377.129	5.59
377.496	5.45
377.863	5.84
378.229	5.99
378.596	5.84
378.963	5.42
379.329	5.64
379.696	5.54
380.062	5.58
380.429	5.51
380.795	5.28
381.161	5.46
381.528	5.8
381.894	5.48
382.26	5.69
382.626	5.72
382.993	5.39
383.359	5.82
383.725	5.64
384.091	5.3
384.457	5.86
384.823	5.79
385.188	6.03
385.554	5.62
385.92	5.51
386.286	5.82
386.651	5.41
387.017	5.67
387.383	5.79
387.748	5.59
388.114	5.49
388.479	5.49
388.845	6.04
389.21	5.38
389.575	5.46
389.94	5.66
390.306	5.31
390.671	5.57
391.036	5.74
391.401	5.81
391.766	5.67
392.131	5.98
392.496	5.84
392.861	5.65
393.226	5.67
393.591	5.73
393.956	5.78
394.32	5.87
394.685	5.7
395.05	5.83
395.414	5.77
395.779	5.56
396.143	5.59
396.508	5.77
396.872	5.79
397.236	5.85
397.601	5.69
397.965	5.68
398.329	5.6
398.694	5.81
399.058	5.78
399.422	5.8
399.786	5.71
400.15	5.69
400.514	5.78
400.878	5.88
401.242	6.03
401.605	5.89
401.969	5.56
402.333	5.82
402.697	5.84
403.06	5.68
403.424	5.91
403.787	5.65
404.151	5.85
404.514	5.88
404.878	6.07
405.241	6.08
405.604	5.8
405.968	6.06
406.331	5.81
406.694	5.85
407.057	5.82
407.42	6.1
407.783	5.87
408.146	5.79
408.509	5.94
408.872	6.15
409.235	5.87
409.598	5.92
409.961	5.83
410.323	5.9
410.686	5.61
411.049	6.04
411.411	5.89
411.774	6.08
412.136	5.92
412.499	5.81
412.861	5.9
413.223	6.01
413.586	5.97
413.948	5.91
414.31	6.23
414.672	5.88
415.035	5.96
415.397	5.96
415.759	6.29
416.121	6
416.483	6.13
416.845	5.81
417.206	5.91
417.568	6.18
417.93	6.2
418.292	5.81
418.653	6.06
419.015	5.85
419.377	5.91
419.738	5.94
420.1	5.86
420.461	5.99
420.822	5.95
421.184	5.97
421.545	5.95
421.906	5.83
422.267	5.89
422.629	6.02
422.99	5.8
423.351	5.9
423.712	5.91
424.073	6
424.434	5.86
424.795	5.93
425.155	6.04
425.516	6.02
425.877	5.92
426.238	5.85
426.598	5.92
426.959	5.93
427.32	5.94
427.68	5.95
428.041	6.01
428.401	6.08
428.761	6.06
429.122	6.04
429.482	6.05
429.842	6.03
430.202	6.16
430.563	6.17
430.923	6.28
431.283	6.17
431.643	6.08
432.003	6.27
432.363	6.13
432.722	6.18
433.082	6.26
433.442	6.31
433.802	6.35
434.161	6.07
434.521	6.43
434.881	6.21
435.24	6.27
435.6	6.15
435.959	6.16
436.319	6.26
436.678	6.3
437.037	6.11
437.396	6.36
437.756	6.28
438.115	6.17
438.474	6.28
438.833	6.32
439.192	6.2
439.551	6.13
439.91	6.39
440.269	6.36
440.628	6.38
440.987	6.41
441.345	6.27
441.704	6.26
442.063	6.26
442.421	6.16
442.78	6.2
443.138	6.4
443.497	6.29
443.855	6.39
444.214	6.36
444.572	6.34
444.93	6.47
445.288	6.41
445.647	6.6
446.005	6.42
446.363	6.33
446.721	6.38
447.079	6.51
447.437	6.34
447.795	6.26
448.153	6.26
448.51	6.4
448.868	6.38
449.226	6.3
449.584	6.36
449.941	6.34
450.299	6.35
450.656	6.28
451.014	6.43
451.371	6.56
451.729	6.54
452.086	6.43
452.443	6.55
452.801	6.41
453.158	6.7
453.515	6.58
453.872	6.57
454.229	6.63
454.586	6.56
454.943	6.4
455.3	6.46
455.657	6.54
456.014	6.6
456.371	6.66
456.727	6.72
457.084	6.68
457.441	6.72
457.797	6.6
458.154	6.45
458.51	6.65
458.867	6.7
459.223	6.54
459.58	6.59
459.936	6.67
460.292	6.64
460.648	6.45
461.005	6.64
461.361	6.58
461.717	6.46
462.073	6.62
462.429	6.61
462.785	6.6
463.141	6.78
463.496	6.61
463.852	6.78
464.208	6.71
464.564	6.85
464.919	6.77
465.275	7.01
465.631	6.93
465.986	6.87
466.342	7.08
466.697	6.84
467.052	6.88
467.408	6.79
467.763	6.86
468.118	7
468.473	6.81
468.829	6.83
469.184	6.87
469.539	6.81
469.894	6.9
470.249	6.79
470.603	6.99
470.958	6.78
471.313	7.02
471.668	6.78
472.023	7.02
472.377	7.04
472.732	6.75
473.086	6.93
473.441	7.12
473.795	7.12
474.15	7
474.504	7.03
474.859	7.01
475.213	6.87
475.567	7.09
475.921	7.03
476.275	6.97
476.63	7.09
476.984	7.08
477.338	7.1
477.692	7.03
478.045	7.02
478.399	6.94
478.753	6.98
479.107	7.14
479.461	7.03
479.814	7.22
480.168	7.15
480.521	7.11
480.875	7.03
481.228	7.15
481.582	7.23
481.935	7.08
482.289	7.08
482.642	7.08
482.995	7.15
483.348	7.21
483.701	7.17
484.055	7.14
484.408	7.02
484.761	7.02
485.114	6.94
485.466	6.87
485.819	6.81
486.172	6.69
486.525	6.78
486.878	6.81
487.23	6.86
487.583	6.86
487.936	7.01
488.288	7.03
488.641	7.16
488.993	6.96
489.345	7.01
489.698	6.95
490.05	6.92
490.402	6.98
490.754	7.02
491.107	7
491.459	7.04
491.811	7.1
492.163	7.13
492.515	7.2
492.866	7.19
493.218	7.18
493.57	7.1
493.922	7.12
494.274	7.15
494.625	7.12
494.977	7.1
495.328	7.38
495.68	7.41
496.031	7.27
496.383	7.49
496.734	7.52
497.086	7.41
497.437	7.47
497.788	7.39
498.139	7.58
498.49	7.5
498.842	7.5
499.193	7.51
499.544	7.51
499.894	7.5
500.245	7.65
500.596	7.62
500.947	7.64
501.298	7.59
501.648	7.65
501.999	7.59
502.35	7.68
502.7	7.73
503.051	7.68
503.401	7.71
503.752	7.71
504.102	7.66
504.452	7.56
504.803	7.76
505.153	7.78
505.503	7.84
505.853	7.95
506.203	7.81
506.553	7.8
506.903	7.91
507.253	7.74
507.603	7.72
507.953	7.87
508.303	7.8
508.652	7.96
509.002	7.96
509.352	7.96
509.701	7.97
510.051	7.95
510.4	7.84
510.75	7.95
511.099	7.89
511.449	7.83
511.798	8.1
512.147	7.97
512.496	7.98
512.846	7.97
513.195	8.02
513.544	7.98
513.893	7.97
514.242	7.99
514.591	8.06
514.939	8.13
515.288	8.1
515.637	7.99
515.986	8.17
516.334	8.18
516.683	8.15
517.032	8.11
517.38	8.09
517.729	8.23
518.077	8.25
518.426	8.23
518.774	8.26
519.122	8.17
519.47	8.37
519.819	8.2
520.167	8.11
520.515	8.22
520.863	8.27
521.211	8.2
521.559	8.18
521.907	8.23
522.255	8.26
522.602	8.41
522.95	8.34
523.298	8.39
523.645	8.42
523.993	8.41
524.341	8.35
524.688	8.32
525.036	8.65
525.383	8.44
525.73	8.58
526.078	8.64
526.425	8.58
526.772	8.5
527.119	8.52
527.466	8.58
527.814	8.45
528.161	8.51
528.508	8.5
528.854	8.46
529.201	8.48
529.548	8.53
529.895	8.47
530.242	8.44
530.588	8.39
530.935	8.4
531.282	8.38
531.628	8.37
531.975	8.41
532.321	8.56
532.667	8.58
533.014	8.72
533.36	8.71
533.706	8.87
534.052	8.78
534.399	8.67
534.745	8.78
535.091	8.71
535.437	8.79
535.783	8.72
536.129	8.8
536.474	8.86
536.82	8.87
537.166	8.88
537.512	8.96
537.857	9.07
538.203	9.02
538.549	9.08
538.894	8.97
539.239	9.03
539.585	9.15
539.93	9.18
540.276	9.23
540.621	9.24
540.966	9.32
541.311	9.56
541.656	9.44
542.001	9.51
542.346	9.47
542.691	9.27
543.036	9.3
543.381	9.21
543.726	9.1
544.071	9.19
544.415	9.22
544.76	9.26
545.105	9.43
545.449	9.42
545.794	9.43
546.138	9.5
546.483	9.48
546.827	9.61
547.171	9.65
547.516	9.68
547.86	9.73
548.204	9.64
548.548	9.76
548.892	9.71
549.236	9.7
549.58	9.76
549.924	9.8
550.268	10.01
550.612	10
550.956	10.22
551.3	10
551.643	10.15
551.987	10.31
552.33	10.2
552.674	10.18
553.017	10.26
553.361	10.27
553.704	10.41
554.048	10.32
554.391	10.38
554.734	10.54
555.077	10.4
555.42	10.22
555.764	10.38
556.107	10.42
556.45	10.6
556.793	10.46
557.135	10.45
557.478	10.5
557.821	10.67
558.164	10.82
558.507	10.73
558.849	10.75
559.192	10.72
559.534	10.83
559.877	10.71
560.219	10.86
560.562	10.93
560.904	10.71
561.246	10.86
561.589	10.79
561.931	10.9
562.273	11.08
562.615	11.01
562.957	10.99
563.299	11.08
563.641	11
563.983	11.05
564.325	11.12
564.667	11.15
565.008	11.08
565.35	11.38
565.692	11.35
566.033	11.3
566.375	11.41
566.716	11.32
567.058	11.36
567.399	11.28
567.741	11.29
568.082	11.5
568.423	11.48
568.764	11.47
569.105	11.62
569.447	11.55
569.788	11.6
570.129	11.7
570.47	11.66
570.811	11.72
571.151	11.76
571.492	11.77
571.833	11.89
572.174	11.89
572.514	11.62
572.855	11.79
573.195	11.87
573.536	11.82
573.876	12.05
574.217	11.83
574.557	11.82
574.898	11.92
575.238	12.07
575.578	12.1
575.918	11.94
576.258	12.17
576.598	12.26
576.938	12.29
577.278	12.31
577.618	12.23
577.958	12.32
578.298	12.41
578.638	12.4
578.977	12.4
579.317	12.55
579.657	12.62
579.996	12.62
580.336	12.83
580.675	12.5
581.014	12.71
581.354	12.6
581.693	12.64
582.032	12.93
582.372	12.76
582.711	13.02
583.05	13.05
583.389	13.18
583.728	12.95
584.067	13.17
584.406	13.17
584.745	13.04
585.083	13.23
585.422	13.14
585.761	13.14
586.1	13.36
586.438	12.86
586.777	13.54
587.115	13.58
587.454	13.33
587.792	13.57
588.13	13.61
588.469	13.48
588.807	13.08
589.145	13.64
589.483	13.63
589.821	13.67
590.159	14.12
590.497	13.67
590.835	13.86
591.173	13.83
591.511	14.11
591.849	13.8
592.187	13.99
592.524	13.98
592.862	14.01
593.2	14.12
593.537	13.95
593.875	14.01
594.212	14.15
594.55	14.14
594.887	14.33
595.224	14.14
595.561	14.22
595.899	14.26
596.236	14.41
596.573	14.51
596.91	14.44
597.247	14.39
597.584	14.37
597.921	14.74
598.258	14.73
598.594	14.82
598.931	14.45
599.268	14.44
599.604	14.71
599.941	14.54
600.277	14.5
600.614	14.66
600.95	14.87
601.287	14.96
601.623	15.04
601.959	14.84
602.296	14.91
602.632	15.07
602.968	14.96
603.304	15.41
603.64	14.83
603.976	15.22
604.312	15.57
604.648	15.4
604.984	15.5
605.319	15.28
605.655	15.12
605.991	15.49
606.326	15.22
606.662	15.45
606.998	15.31
607.333	15.38
607.668	15.43
608.004	15.61
608.339	15.38
608.674	15.64
609.01	15.78
609.345	15.87
609.68	16.03
610.015	15.72
610.35	16.17
610.685	16.11
611.02	15.78
611.355	15.84
611.689	16
612.024	16.06
612.359	15.99
612.694	16.06
613.028	15.88
613.363	16.34
613.697	16.29
614.032	16.26
614.366	16.43
614.7	16.29
615.035	16.73
615.369	16.55
615.703	16.37
616.037	16.65
616.371	16.66
616.705	16.67
617.039	16.75
617.373	16.77
617.707	17.09
618.041	16.89
618.375	16.95
618.709	16.63
619.042	17.15
619.376	16.97
619.71	17.39
620.043	17.21
620.377	16.84
620.71	17.22
621.043	17.5
621.377	17.06
621.71	17.2
622.043	17.21
622.376	17.23
622.709	17.78
623.043	17.35
623.376	17.75
623.709	17.41
624.041	17.61
624.374	17.54
624.707	17.41
625.04	17.46
625.373	18.03
625.705	17.87
626.038	18.01
626.37	17.75
626.703	17.47
627.035	17.74
627.368	17.93
627.7	18.08
628.032	17.98
628.365	17.92
628.697	18.18
629.029	18.01
629.361	18.2
629.693	18.31
630.025	18.06
630.357	18.19
630.689	18.17
631.021	18.08
631.353	18.37
631.684	18.19
632.016	18.54
632.348	18.51
632.679	18.29
633.011	18.48
633.342	18.37
633.674	18.54
634.005	19
634.336	19.03
634.668	18.69
634.999	18.97
635.33	18.4
635.661	19.05
635.992	19.23
636.323	19.18
636.654	18.87
636.985	19.17
637.316	19
637.647	19.35
637.977	18.9
638.308	19.23
638.639	19.59
638.969	19.42
639.3	19.12
639.63	19.63
639.961	19.28
640.291	19.36
640.622	19.71
640.952	19.59
641.282	19.48
641.612	19.51
641.943	19.91
642.273	19.26
642.603	20.24
642.933	19.73
643.263	20.29
643.592	19.65
643.922	20.24
644.252	20.1
644.582	19.83
644.911	20.03
645.241	20.48
645.571	20.54
645.9	20.17
646.23	19.96
646.559	20.61
646.888	20.13
647.218	20.52
647.547	20.02
647.876	20.82
648.205	20.68
648.534	20.34
648.863	20.73
649.192	20.49
649.521	20.48
649.85	20.62
650.179	20.36
650.508	20.61
650.837	20.89
651.165	21.08
651.494	20.27
651.822	20.95
652.151	21.01
652.479	20.74
652.808	20.82
653.136	20.39
653.465	20.99
653.793	21.2
654.121	21.18
654.449	21
654.777	21.26
655.105	20.9
655.433	21.44
655.761	21.59
656.089	21.63
656.417	21.41
656.745	21.68
657.073	21.59
657.4	22.16
657.728	22.14
658.056	22.1
658.383	21.24
658.711	21.79
659.038	22.35
659.365	21.87
659.693	21.83
660.02	22.23
660.347	22.16
660.674	21.75
661.001	21.67
661.329	22.25
661.656	21.72
661.982	21.97
662.309	22.34
662.636	21.95
662.963	21.73
663.29	21.99
663.616	22.26
663.943	22.09
664.27	22.46
664.596	22.08
664.923	22.38
665.249	22.31
665.576	22.49
665.902	22.5
666.228	22.83
666.554	23.1
666.881	21.9
667.207	23.07
667.533	23.06
667.859	22.87
668.185	22.8
668.511	23.04
668.837	22.89
669.162	23.07
669.488	23.15
669.814	23.14
670.139	22.66
670.465	22.99
670.791	23.46
671.116	23.04
671.442	23.32
671.767	23.25
672.092	22.95
672.418	23.69
672.743	23.42
673.068	23.94
673.393	23.63
673.718	23.21
674.043	23.65
674.368	23.33
674.693	23.17
675.018	23.73
675.343	23.69
675.667	23.5
675.992	24.24
676.317	23.96
676.641	24.13
676.966	23.8
677.29	24.47
677.615	24.26
677.939	23.23
678.264	24.01
678.588	24.06
678.912	24.04
679.236	23.86
679.56	23.91
679.885	24.7
680.209	24
680.532	23.89
680.856	23.8
681.18	24.19
681.504	24.79
681.828	24.15
682.152	25.1
682.475	23.99
682.799	24.39
683.122	24.45
683.446	24.72
683.769	24.46
684.093	24.92
684.416	25.32
684.739	24.62
685.062	24.17
685.386	24.47
685.709	25.01
686.032	25.15
686.355	24.67
686.678	25.23
687.001	25.31
687.324	25.06
687.646	25.26
687.969	25.87
688.292	24.94
688.614	25.11
688.937	25.08
689.26	25.02
689.582	25.62
689.904	24.47
690.227	25.97
690.549	25.23
690.871	25.5
691.194	25.96
691.516	25.78
691.838	25.77
692.16	25.86
692.482	25.05
692.804	26.17
693.126	26.04
693.448	26.44
693.769	26.33
694.091	25.84
694.413	26.36
694.735	25.52
695.056	26.03
695.378	26.44
695.699	25.77
696.021	25.86
696.342	26.29
696.663	26.44
696.984	26.57
697.306	26.7
697.627	25.81
697.948	26.45
698.269	25.55
698.59	26.63
698.911	25.63
699.232	26.43
699.553	26.01
699.873	26.44
700.194	27.5
700.515	26.29
700.835	26.75
701.156	26.7
701.477	26.33
701.797	25.92
702.117	25.95
702.438	26.45
702.758	27.27
703.078	27.21
703.398	26.67
703.719	27.28
704.039	27.19
704.359	27.42
704.679	27.23
704.999	26.99
705.319	27.59
705.638	26.67
705.958	26.77
706.278	26.42
706.597	26.98
706.917	27.42
707.237	27.34
707.556	26.8
707.876	27.09
708.195	27.41
708.514	27.22
708.834	28.26
709.153	26.88
709.472	28.21
709.791	28.41
710.11	27.83
710.429	28.02
710.748	27.7
711.067	27.38
711.386	27.56
711.705	28.33
712.023	27.72
712.342	28.65
712.661	28.53
712.979	27.83
713.298	27.85
713.616	28.67
713.935	28.87
714.253	28.39
714.572	29.08
714.89	28.83
715.208	28.6
715.526	29.66
715.844	27.45
716.162	28.02
716.48	28.59
716.798	27.28
717.116	28.89
717.434	28.43
717.752	28.89
718.069	28.83
718.387	28.44
718.705	28.82
719.022	29.12
719.34	30.02
719.657	28.41
719.975	29.36
720.292	29.8
720.609	28.73
720.927	28.71
721.244	29.82
721.561	29.33
721.878	29.67
722.195	28.62
722.512	29.93
722.829	30.77
723.146	30.59
723.463	29.77
723.779	30.19
724.096	29.34
724.413	29.78
724.729	29.15
725.046	30.65
725.362	29.97
725.679	29.3
725.995	30.27
726.311	28.57
726.628	30.81
726.944	29.66
727.26	30
727.576	29.59
727.892	30.36
728.208	30.16
728.524	28.56
728.84	28.86
729.156	30.83
729.472	29.63
729.787	30.4
730.103	29.93
730.419	31.01
730.734	28.91
731.05	28.93
731.365	29.78
731.681	30.46
731.996	30.5
732.311	29.68
732.626	29.44
732.942	29.24
733.257	30.75
733.572	30.89
733.887	30.32
734.202	30.87
734.517	31.4
734.832	31.28
735.146	31.13
735.461	30.67
735.776	30.98
736.091	30.55
736.405	30.41
736.72	31.3
737.034	31.58
737.349	31.01
737.663	31.47
737.977	32.54
738.292	30.03
738.606	29.6
738.92	31.16
739.234	31.17
739.548	30.16
739.862	29.93
740.176	31.61
740.49	30.93
740.804	31.24
741.117	32.57
741.431	31.49
741.745	32.07
742.058	30.19
742.372	32.29
742.685	30.67
742.999	31.15
743.312	31.93
743.626	31.2
743.939	31.86
744.252	31.25
744.565	32.35
744.878	32.55
745.191	32.05
745.505	30.21
745.817	32.43
746.13	30.86
746.443	34.29
746.756	32.64
747.069	32.05
747.381	32.84
747.694	34.33
748.007	32.37
748.319	31.39
748.632	32.5
748.944	32.32
749.256	32
749.569	31.67
749.881	31.08
750.193	30.32
750.505	32.19
750.817	33.07
751.129	32.87
751.441	32.73
751.753	32.33
752.065	34.8
752.377	32.23
752.689	33.15
753	32.99
753.312	31.74
753.624	30.52
753.935	33.81
754.247	33.27
754.558	33.61
754.869	33.17
755.181	34.13
755.492	32.02
755.803	33.09
756.114	32.45
756.425	31.25
756.736	33.5
757.047	32.79
757.358	32.47
757.669	31.42
757.98	33.24
758.291	33.6
758.601	34.06
758.912	33.44
759.223	30.4
759.533	33.68
759.844	35.45
760.154	34.71
760.464	33.06
760.775	32.96
761.085	34.39
761.395	33.54
761.705	33.81
762.016	35.77
762.326	34.63
762.636	33.56
762.945	33.32
763.255	34.86
763.565	34.09
763.875	34.54
764.185	33.44
764.494	35.08
764.804	33.87
765.113	34.31
765.423	32.99
765.732	33.23
766.042	33.32
766.351	32.14
766.66	34.58
766.97	34.02
767.279	33.88
767.588	31.85
767.897	32.34
768.206	33.16
768.515	33.59
768.824	33.17
769.133	33.78
769.441	33.63
769.75	34.63
770.059	33.25
770.367	35.77
770.676	36.85
770.984	34.93
771.293	36.48
771.601	32.41
771.91	32.81
772.218	34.41
772.526	35.38
772.834	35.9
773.142	33.07
773.45	32.89
773.758	35.71
774.066	34.6
774.374	34.18
774.682	35.46
774.99	34.33
775.298	31.17
775.605	34.76
775.913	34.89
776.22	30.42
776.528	37.04
776.835	37.09
777.143	35.44
777.45	35.76
777.757	34.14
778.065	37.27
778.372	36.2
778.679	30.74
778.986	33.66
779.293	36.64
779.6	35.64
779.907	33.44
780.214	35.89
780.52	38.16
780.827	36.81
781.134	35.92
781.44	37.94
781.747	35.04
782.053	34.81
782.36	33.91
782.666	32.05
782.973	34.91
783.279	32.3
783.585	35.41
783.891	33.85
784.197	35.26
784.503	37.47
784.809	34.7
785.115	38.35
785.421	39.02
785.727	36
786.033	38.54
786.339	36.99
786.644	34.91
786.95	38.44
787.255	36.82
787.561	35.22
787.866	35.33
788.172	40.25
788.477	33.37
788.782	30.3
789.088	34.71
789.393	32.26
789.698	35.42
790.003	35.04
790.308	36.4
790.613	37.66
790.918	40.1
791.223	34.22
791.527	36.12
791.832	38.68
792.137	36.56
792.441	33.33
792.746	35.85
793.05	39.67
793.355	38.75
793.659	38.93
793.963	36.89
794.268	35.52
794.572	31.35
794.876	33.12
795.18	32.89
795.484	39.62
795.788	37.48
796.092	32.5
796.396	37.84
796.7	32.51
797.004	32.96
797.307	36.12
797.611	40.49
797.915	35.54
798.218	32.62
798.522	42.32
798.825	39.1
799.128	36.74
799.432	35.95
799.735	37.24
800.038	39.04
800.341	32.7
800.644	38.9
800.947	36.96
801.25	34.98
801.553	41.77
801.856	32.76
802.159	35.19
802.462	37.07
802.764	36.58
803.067	38.23
803.37	38.39
803.672	40.64
803.975	35.48
804.277	36.49
804.579	33.91
804.882	40.08
805.184	36.13
805.486	33.81
805.788	40.86
806.09	31.03
806.392	38.6
806.694	39.25
806.996	36.3
807.298	42.88
807.6	38.13
807.902	36.86
808.203	37.34
808.505	42.71
808.807	30.45
809.108	37.1
809.409	40.58
809.711	29.82
810.012	36.91
810.313	32.39
810.615	35.96
810.916	40.71
811.217	40.02
811.518	32.29
811.819	38.54
812.12	38.46
812.421	35.3
812.722	38.7
813.023	37.4
813.323	33.87
813.624	36.98
813.925	39.31
814.225	35.75
814.526	40.44
814.826	38.84
815.126	46.77
815.427	42.03
815.727	45.04
816.027	32.86
816.327	39.28
816.627	40.24
816.927	37.35
817.227	31.37
817.527	35.24
817.827	32.53
818.127	37.47
818.427	41.09
818.727	41.75
819.026	35.16
819.326	47.8
819.625	36.92
819.925	35.25
820.224	44.32
820.524	39.62
820.823	33.58
821.122	37.87
821.421	36.88
821.72	40.87
822.019	37.46
822.318	39.37
822.617	37.92
822.916	42.03
823.215	40.43
823.514	38.18
823.813	40.7
824.111	39.8
824.41	39.91
824.709	39.25
825.007	38.54
825.306	40.4
825.604	39.23
825.902	39.78
826.201	38.39
826.499	40.01
826.797	39.34
827.095	38.86
827.393	38.76
827.691	40.29
827.989	39.98
828.287	41.27
828.585	38.85
828.882	37.35
829.18	39.01
829.478	40.52
829.775	39.35
830.073	39.57
830.37	38.38
830.668	40.01
830.965	39.55
831.263	38.36
831.56	42.03
831.857	39.86
832.154	39.8
832.451	41.41
832.748	39.47
833.045	37.42
833.342	43.79
833.639	40.72
833.936	45.48
834.232	44.47
834.529	40.33
834.826	34.88
835.122	43.22
835.419	43.26
835.715	36.94
836.012	39.3
836.308	41.6
836.604	43.28
836.901	39.44
837.197	41.79
837.493	40.83
837.789	41.86
838.085	40.18
838.381	37.3
838.677	38.06
838.972	40.46
839.268	34.62
839.564	42.21
839.86	34.62
840.155	40.98
840.451	43.36
840.746	36.13
841.042	43.19
841.337	32.48
841.632	42.58
841.928	36.36
842.223	41.78
842.518	35.54
842.813	34.07
843.108	42.68
843.403	40.55
843.698	45.41
843.993	39.11
844.287	40.32
844.582	35.97
844.877	38.48
845.171	43.8
845.466	47.11
845.761	38.27
846.055	34.09
846.349	44.84
846.644	55.34
846.938	38.66
847.232	36.48
847.526	45.09
847.82	36.86
848.114	42.31
848.408	41.74
848.702	23.27
848.996	41.37
849.29	41.47
849.584	33.1
849.877	52.6
850.171	47.93
850.465	35.61
850.758	38.06
851.052	33.65
851.345	53.52
851.638	43.17
851.932	41.65
852.225	47.45
852.518	37.52
852.811	52.29
853.104	57.63
853.397	49.69
853.69	39.7
853.983	37.33
854.276	27.06
854.569	48.96
854.861	42.99
855.154	60.65
855.447	34.83
855.739	41.33
856.032	42.59
856.324	39.78
856.616	24.99
856.909	38.61
857.201	31.94
857.493	37.23
857.785	32.37
858.077	66.62
858.369	56.65
858.661	32.83
858.953	36.8
859.245	0.74
859.537	33.33
859.829	44.84
860.12	66.74
860.412	34.92
860.703	54.17
860.995	65.9
861.286	32.89
861.578	58
861.869	29.78
862.16	55.35
862.452	25.5
862.743	18.71
863.034	51.85
863.325	53.23
863.616	38.21
863.907	60.71
864.198	21.64
864.488	63.36
864.779	32.65
865.07	40.82
865.36	35.15
865.651	45.77
865.941	73.61
866.232	50.58
866.522	59.13
866.813	67.91
867.103	25.75
867.393	59.06
867.683	60.16
867.973	43.81
868.263	48.5
868.553	36.27
868.843	57.81
869.133	32.21
869.423	61.11
869.713	46.66
870.002	58.02
870.292	30.03
870.582	61.65
870.871	37.76
871.161	48.63
871.45	49.15
871.739	18.28
872.029	69.98
872.318	55
872.607	34.7
872.896	57.76
873.185	65.1
873.474	34.02
873.763	20.71
874.052	55.65
874.341	42.06
874.63	39.8
874.918	32.69
875.207	61.49
875.496	41.98
875.784	37.63
876.073	39.76
876.361	41.65
876.649	41.59
876.938	41.36
877.226	56.23
877.514	40.66
877.802	50.37
878.09	42.38
878.378	67.83
878.666	78.93
878.954	56.34
879.242	46.17
879.53	66.15
879.817	50.71
880.105	67.59
880.392	42.39
880.68	27.74
880.967	47.48
881.255	43.95
881.542	49.23
881.83	27.89
882.117	53.57
882.404	66.06
882.691	50.88
882.978	75.23
883.265	42.94
883.552	45.16
883.839	43.71
884.126	63.1
884.413	51.2
884.699	38.29
884.986	48.52
885.273	47
885.559	47
885.846	47
