Data from 0074_chest_Reflection__0__344.txt Node

Date: Fri Dec 16 16:49:28 CST 2022
User: ToomeyLab
Spectrometer: FLMS14357
Trigger mode: 0
Integration Time (sec): 1.000000E-2
Scans to average: 100
Electric dark correction enabled: true
Nonlinearity correction enabled: false
Boxcar width: 0
XAxis mode: Wavelengths
Number of Pixels in Spectrum: 2048
>>>>>Begin Spectral Data<<<<<
189.047	-63.12
189.435	-63.12
189.823	-63.12
190.211	36.76
190.599	331.4
190.987	800
191.375	8.75
191.763	930.72
192.151	-16.94
192.538	504.3
192.926	-181.66
193.314	75.86
193.702	274.24
194.089	87.55
194.477	67.27
194.864	-122.95
195.252	61.57
195.639	229.77
196.027	247.87
196.414	22.29
196.801	219.62
197.189	45.12
197.576	3509.33
197.963	-302.06
198.351	12.53
198.738	-47.11
199.125	12.06
199.512	20.41
199.899	-94.09
200.286	-10.46
200.673	-2.19
201.06	10.15
201.447	10.34
201.833	2.09
202.22	22.7
202.607	33.98
202.994	23.2
203.38	-110.59
203.767	-28.43
204.154	-75.92
204.54	24.19
204.927	9.81
205.313	15.42
205.699	29.07
206.086	-26.08
206.472	-5.81
206.858	4.72
207.245	30.8
207.631	-67.91
208.017	24.48
208.403	10.34
208.789	39.58
209.175	15.5
209.561	16.22
209.947	-0.83
210.333	-51.85
210.719	-7
211.105	-52.38
211.491	0.06
211.876	-28.09
212.262	-29.85
212.648	-25.98
213.034	-48.46
213.419	-24.31
213.805	-15.36
214.19	-22.7
214.576	-15.56
214.961	-26.23
215.346	-45.59
215.732	2.85
216.117	7.8
216.502	-35.59
216.888	-26.37
217.273	23.9
217.658	-0.41
218.043	-8.35
218.428	0.86
218.813	-10.6
219.198	-39.21
219.583	-8.28
219.968	-14.15
220.353	-21.04
220.738	-24.55
221.122	-19.03
221.507	-1.57
221.892	-4.45
222.276	-0.3
222.661	-9.45
223.046	1.54
223.43	-6.49
223.815	2.12
224.199	3.12
224.583	-11.11
224.968	2.8
225.352	-8.62
225.736	12.73
226.121	-3.29
226.505	-0.64
226.889	3.23
227.273	0.96
227.657	-3.98
228.041	-1.65
228.425	5.12
228.809	0.69
229.193	0.18
229.577	1.19
229.961	3.09
230.344	2.08
230.728	2.24
231.112	1.44
231.495	0.96
231.879	2.64
232.263	0.6
232.646	1.19
233.03	1.72
233.413	-0.49
233.797	2.88
234.18	-2.72
234.563	2.63
234.946	0.97
235.33	2.89
235.713	1.2
236.096	2.07
236.479	2
236.862	1.98
237.245	2.87
237.628	2.97
238.011	1
238.394	3.3
238.777	2.46
239.16	-1.31
239.543	0.68
239.925	4.45
240.308	2.99
240.691	1.62
241.073	3.19
241.456	0.51
241.838	1.46
242.221	2.3
242.603	2.44
242.986	2.89
243.368	2.11
243.75	2.66
244.133	2.07
244.515	2.19
244.897	2.32
245.279	2.31
245.661	2.07
246.043	1.98
246.425	2.17
246.807	1.95
247.189	1.4
247.571	2.34
247.953	2.33
248.335	2.61
248.717	2.58
249.098	2.62
249.48	2.15
249.862	2.64
250.243	2.5
250.625	2.58
251.006	1.98
251.388	2.92
251.769	2.17
252.151	1.69
252.532	1.39
252.913	2.46
253.295	2.31
253.676	2.63
254.057	2.09
254.438	2.26
254.819	2.06
255.2	1.81
255.581	1.14
255.962	1.16
256.343	3.03
256.724	1.98
257.105	2.84
257.486	1.93
257.867	0.46
258.247	1.66
258.628	2.47
259.009	0.95
259.389	2.24
259.77	1.96
260.15	3.06
260.531	2.29
260.911	2.39
261.292	2.37
261.672	2.35
262.052	2.28
262.432	2.42
262.813	1.8
263.193	1.45
263.573	1.66
263.953	1.71
264.333	1.89
264.713	2.28
265.093	2.18
265.473	3.71
265.853	1.84
266.233	2.07
266.612	1.94
266.992	1.9
267.372	1.86
267.752	2.48
268.131	2.22
268.511	2.48
268.89	2.54
269.27	2.36
269.649	2.37
270.029	2.35
270.408	2.74
270.787	2.24
271.167	2.46
271.546	1.16
271.925	2.23
272.304	2.1
272.683	2.07
273.062	2.38
273.441	2.02
273.82	2.36
274.199	2.64
274.578	2.26
274.957	2.17
275.336	1.67
275.715	2.43
276.093	2.09
276.472	1.97
276.851	2.85
277.229	2.63
277.608	2.39
277.986	2.59
278.365	2.27
278.743	1.79
279.122	1.5
279.5	1.82
279.878	1.16
280.257	2.44
280.635	1.56
281.013	2.41
281.391	1.47
281.769	1.93
282.147	2.22
282.525	1.97
282.903	2.33
283.281	1.8
283.659	2.24
284.037	2.16
284.415	1.99
284.792	1.85
285.17	1.89
285.548	1.73
285.925	2.08
286.303	2.2
286.68	2.55
287.058	2.19
287.435	2.03
287.813	2.35
288.19	2.32
288.567	1.67
288.945	2.41
289.322	2.22
289.699	2
290.076	2.03
290.453	2.16
290.83	2.08
291.207	1.73
291.584	1.85
291.961	2.15
292.338	2.44
292.715	2.55
293.092	1.8
293.469	2.87
293.845	2.02
294.222	1.98
294.599	2.51
294.975	2.29
295.352	1.29
295.728	2.18
296.105	2.16
296.481	2.61
296.858	2.5
297.234	1.97
297.61	2.66
297.986	2.29
298.363	1.87
298.739	2.49
299.115	1.7
299.491	1.87
299.867	2.51
300.243	1.85
300.619	2.26
300.995	2.64
301.371	2.07
301.746	2.19
302.122	2.68
302.498	2.68
302.874	2.6
303.249	2.35
303.625	2.63
304	2.02
304.376	2.36
304.751	2.46
305.127	2.19
305.502	2.75
305.878	2.14
306.253	1.81
306.628	2.37
307.003	2.35
307.378	1.86
307.754	2.21
308.129	2.34
308.504	2.35
308.879	2.65
309.254	2.11
309.629	2.64
310.003	2.39
310.378	2.43
310.753	2.54
311.128	2.33
311.502	1.82
311.877	2.31
312.252	2.17
312.626	2.15
313.001	2.1
313.375	2.36
313.75	2.33
314.124	2.95
314.498	2.29
314.873	1.81
315.247	1.89
315.621	2.41
315.995	2.28
316.369	2.29
316.743	2.32
317.117	1.82
317.491	2.37
317.865	1.62
318.239	2.59
318.613	2.48
318.987	2.14
319.361	2.62
319.734	2.32
320.108	2.3
320.482	2.24
320.855	1.88
321.229	2.69
321.602	2.33
321.976	2.82
322.349	1.85
322.723	1.36
323.096	1.52
323.469	1.83
323.843	2.36
324.216	1.99
324.589	2.59
324.962	2.03
325.335	2.13
325.708	2.26
326.081	2.73
326.454	2.6
326.827	2.67
327.2	2.71
327.573	2.4
327.945	2.44
328.318	2.87
328.691	2.61
329.063	1.94
329.436	1.96
329.809	1.82
330.181	2.15
330.553	2.46
330.926	2.12
331.298	1.92
331.671	2.61
332.043	2.33
332.415	2.9
332.787	2.87
333.159	2.55
333.532	2.18
333.904	2.55
334.276	2.41
334.648	2.58
335.02	2.2
335.391	2.23
335.763	2.15
336.135	2.32
336.507	2.32
336.879	2.3
337.25	2.22
337.622	2.49
337.993	2.38
338.365	2.7
338.736	2.62
339.108	1.71
339.479	2.19
339.851	2.44
340.222	2.4
340.593	2.03
340.964	2.27
341.336	1.77
341.707	2.2
342.078	2.25
342.449	2.59
342.82	2.43
343.191	2.55
343.562	2.31
343.933	2.43
344.303	2.54
344.674	2.11
345.045	2.38
345.416	2.41
345.786	2.04
346.157	2.36
346.527	2.29
346.898	2.12
347.268	2.3
347.639	2.18
348.009	3.15
348.38	2.48
348.75	2.31
349.12	2.33
349.49	2.13
349.861	2.87
350.231	2.14
350.601	2.21
350.971	2.61
351.341	2.69
351.711	2.67
352.081	2.47
352.45	2.52
352.82	2.44
353.19	2.23
353.56	2.39
353.929	2.38
354.299	2.12
354.669	2.92
355.038	2.6
355.408	2.79
355.777	2.3
356.147	2.81
356.516	2.78
356.885	2.42
357.254	2.87
357.624	2.53
357.993	2.47
358.362	2.47
358.731	2.67
359.1	2.78
359.469	2.32
359.838	2.42
360.207	2.44
360.576	2.45
360.945	2.11
361.314	2.64
361.682	2.26
362.051	2.57
362.42	2.72
362.788	2.57
363.157	2.31
363.525	2.4
363.894	2.21
364.262	2.45
364.631	2.88
364.999	2.31
365.367	2.94
365.735	2.25
366.104	2.33
366.472	2.59
366.84	2.44
367.208	2.37
367.576	2.6
367.944	2.86
368.312	2.29
368.68	2.69
369.048	2.74
369.416	2.38
369.783	2.38
370.151	2.47
370.519	2.63
370.886	2.56
371.254	2.76
371.621	2.46
371.989	2.58
372.356	2.2
372.724	2.49
373.091	2.59
373.458	2.56
373.826	2.48
374.193	3.14
374.56	2.72
374.927	2.32
375.294	2.86
375.661	2.59
376.028	2.45
376.395	2.4
376.762	2.85
377.129	2.76
377.496	2.42
377.863	2.57
378.229	2.51
378.596	2.41
378.963	2.69
379.329	2.38
379.696	2.56
380.062	2.54
380.429	2.79
380.795	2.58
381.161	2.43
381.528	2.03
381.894	2.49
382.26	2.32
382.626	2.37
382.993	2.72
383.359	2.37
383.725	2.79
384.091	2.49
384.457	2.61
384.823	2.58
385.188	2.74
385.554	2.7
385.92	2.98
386.286	2.93
386.651	2.42
387.017	2.83
387.383	2.64
387.748	2.61
388.114	2.69
388.479	2.44
388.845	2.6
389.21	2.78
389.575	2.57
389.94	2.6
390.306	2.64
390.671	2.47
391.036	2.72
391.401	2.93
391.766	2.7
392.131	2.6
392.496	2.65
392.861	2.56
393.226	2.84
393.591	2.71
393.956	2.91
394.32	2.44
394.685	2.91
395.05	2.55
395.414	2.57
395.779	2.57
396.143	2.77
396.508	2.86
396.872	2.72
397.236	2.49
397.601	2.91
397.965	2.37
398.329	2.72
398.694	2.73
399.058	2.46
399.422	2.84
399.786	2.61
400.15	2.67
400.514	2.8
400.878	2.74
401.242	2.77
401.605	2.75
401.969	2.7
402.333	2.69
402.697	2.8
403.06	2.81
403.424	2.49
403.787	2.97
404.151	2.81
404.514	2.63
404.878	2.7
405.241	2.75
405.604	2.75
405.968	2.68
406.331	2.87
406.694	2.8
407.057	2.88
407.42	2.62
407.783	2.46
408.146	2.95
408.509	2.45
408.872	2.53
409.235	3
409.598	2.79
409.961	2.74
410.323	2.72
410.686	2.57
411.049	2.58
411.411	2.74
411.774	2.75
412.136	2.89
412.499	2.6
412.861	2.52
413.223	2.86
413.586	2.46
413.948	2.88
414.31	2.93
414.672	2.91
415.035	2.94
415.397	2.71
415.759	2.91
416.121	2.84
416.483	2.77
416.845	2.73
417.206	2.79
417.568	2.92
417.93	2.57
418.292	2.79
418.653	2.83
419.015	2.83
419.377	2.77
419.738	2.71
420.1	2.76
420.461	2.7
420.822	2.81
421.184	2.8
421.545	2.72
421.906	2.78
422.267	2.54
422.629	2.77
422.99	2.65
423.351	2.76
423.712	2.8
424.073	2.79
424.434	2.69
424.795	2.68
425.155	2.83
425.516	2.76
425.877	2.81
426.238	2.63
426.598	2.85
426.959	2.62
427.32	2.8
427.68	2.87
428.041	2.8
428.401	2.74
428.761	2.64
429.122	2.77
429.482	2.8
429.842	2.86
430.202	2.81
430.563	2.81
430.923	2.8
431.283	3.04
431.643	2.83
432.003	2.8
432.363	2.82
432.722	2.78
433.082	2.89
433.442	2.8
433.802	2.86
434.161	2.77
434.521	2.8
434.881	2.97
435.24	2.75
435.6	2.93
435.959	2.84
436.319	2.87
436.678	2.9
437.037	2.8
437.396	2.9
437.756	2.92
438.115	2.95
438.474	2.88
438.833	3.06
439.192	2.94
439.551	2.99
439.91	3.01
440.269	3.06
440.628	2.9
440.987	2.63
441.345	2.81
441.704	2.94
442.063	2.9
442.421	2.88
442.78	2.86
443.138	2.84
443.497	2.8
443.855	2.76
444.214	2.96
444.572	2.74
444.93	2.99
445.288	2.88
445.647	3.03
446.005	2.81
446.363	2.86
446.721	2.73
447.079	2.84
447.437	2.87
447.795	2.78
448.153	2.93
448.51	2.89
448.868	2.99
449.226	2.87
449.584	2.92
449.941	2.91
450.299	2.88
450.656	3.03
451.014	2.97
451.371	2.99
451.729	2.94
452.086	2.93
452.443	2.96
452.801	2.96
453.158	2.97
453.515	2.9
453.872	3.07
454.229	2.94
454.586	3.04
454.943	2.8
455.3	2.95
455.657	2.98
456.014	3.05
456.371	3.02
456.727	2.86
457.084	2.98
457.441	2.95
457.797	2.89
458.154	3.01
458.51	2.89
458.867	2.94
459.223	2.98
459.58	2.94
459.936	2.95
460.292	2.96
460.648	2.89
461.005	2.81
461.361	2.95
461.717	2.94
462.073	2.96
462.429	2.97
462.785	2.96
463.141	3.12
463.496	2.87
463.852	3.13
464.208	3.05
464.564	3.03
464.919	3.07
465.275	3.1
465.631	2.91
465.986	3.1
466.342	3.01
466.697	3.09
467.052	3.17
467.408	3.07
467.763	2.79
468.118	3.13
468.473	3.21
468.829	2.95
469.184	3.19
469.539	2.81
469.894	3
470.249	2.95
470.603	3.02
470.958	3.15
471.313	2.98
471.668	3.13
472.023	3.31
472.377	2.99
472.732	3.2
473.086	2.89
473.441	3.1
473.795	3.05
474.15	3.11
474.504	3.02
474.859	3.03
475.213	3.14
475.567	2.97
475.921	3.12
476.275	3.17
476.63	3.14
476.984	3.07
477.338	3.26
477.692	3.04
478.045	3.02
478.399	3.21
478.753	2.92
479.107	3.08
479.461	3.29
479.814	3.09
480.168	3.13
480.521	3.13
480.875	3.28
481.228	3.14
481.582	3.07
481.935	3.18
482.289	2.98
482.642	3.12
482.995	3.1
483.348	3
483.701	3.06
484.055	3.03
484.408	3.05
484.761	2.93
485.114	2.83
485.466	2.89
485.819	2.93
486.172	3.03
486.525	3.08
486.878	3.09
487.23	3.14
487.583	3.06
487.936	3.12
488.288	3
488.641	2.98
488.993	2.91
489.345	2.94
489.698	3.07
490.05	3.02
490.402	3.12
490.754	3.15
491.107	3.17
491.459	3.19
491.811	3.24
492.163	3.11
492.515	3.11
492.866	3.01
493.218	3.03
493.57	3.11
493.922	3.06
494.274	3.19
494.625	3.15
494.977	3.21
495.328	3.25
495.68	3.25
496.031	3.23
496.383	3.18
496.734	3.37
497.086	3.15
497.437	3.29
497.788	3.14
498.139	3.15
498.49	3.25
498.842	3.23
499.193	3.23
499.544	3.33
499.894	3.31
500.245	3.26
500.596	3.31
500.947	3.14
501.298	3.23
501.648	3.21
501.999	3.43
502.35	3.4
502.7	3.36
503.051	3.46
503.401	3.29
503.752	3.21
504.102	3.26
504.452	3.32
504.803	3.12
505.153	3.42
505.503	3.36
505.853	3.26
506.203	3.24
506.553	3.33
506.903	3.26
507.253	3.24
507.603	3.28
507.953	3.48
508.303	3.31
508.652	3.43
509.002	3.43
509.352	3.26
509.701	3.42
510.051	3.53
510.4	3.34
510.75	3.35
511.099	3.25
511.449	3.31
511.798	3.5
512.147	3.25
512.496	3.42
512.846	3.39
513.195	3.48
513.544	3.46
513.893	3.34
514.242	3.47
514.591	3.45
514.939	3.39
515.288	3.45
515.637	3.46
515.986	3.33
516.334	3.45
516.683	3.39
517.032	3.24
517.38	3.43
517.729	3.39
518.077	3.48
518.426	3.43
518.774	3.41
519.122	3.33
519.47	3.46
519.819	3.36
520.167	3.36
520.515	3.33
520.863	3.34
521.211	3.42
521.559	3.44
521.907	3.41
522.255	3.47
522.602	3.59
522.95	3.43
523.298	3.44
523.645	3.44
523.993	3.51
524.341	3.45
524.688	3.48
525.036	3.75
525.383	3.71
525.73	3.56
526.078	3.58
526.425	3.56
526.772	3.34
527.119	3.43
527.466	3.45
527.814	3.43
528.161	3.49
528.508	3.53
528.854	3.46
529.201	3.45
529.548	3.36
529.895	3.33
530.242	3.37
530.588	3.43
530.935	3.45
531.282	3.5
531.628	3.54
531.975	3.55
532.321	3.64
532.667	3.61
533.014	3.64
533.36	3.56
533.706	3.57
534.052	3.46
534.399	3.45
534.745	3.47
535.091	3.48
535.437	3.58
535.783	3.66
536.129	3.58
536.474	3.72
536.82	3.64
537.166	3.75
537.512	3.75
537.857	3.62
538.203	3.66
538.549	3.67
538.894	3.69
539.239	3.88
539.585	3.78
539.93	3.79
540.276	3.76
540.621	3.76
540.966	3.69
541.311	3.82
541.656	3.7
542.001	3.83
542.346	3.66
542.691	3.61
543.036	3.6
543.381	3.73
543.726	3.76
544.071	3.85
544.415	3.76
544.76	3.72
545.105	3.79
545.449	3.77
545.794	3.86
546.138	3.92
546.483	3.88
546.827	3.88
547.171	3.83
547.516	4.04
547.86	3.9
548.204	3.84
548.548	3.92
548.892	3.96
549.236	4.09
549.58	4.04
549.924	3.97
550.268	4.15
550.612	4.17
550.956	4.01
551.3	4.09
551.643	4.07
551.987	4.12
552.33	3.99
552.674	4.11
553.017	4.15
553.361	4.1
553.704	3.98
554.048	4.18
554.391	4.07
554.734	4.23
555.077	4.22
555.42	4.21
555.764	4.25
556.107	4.18
556.45	4.24
556.793	4.43
557.135	4.43
557.478	4.42
557.821	4.22
558.164	4.27
558.507	4.13
558.849	4.29
559.192	4.37
559.534	4.27
559.877	4.45
560.219	4.37
560.562	4.49
560.904	4.28
561.246	4.55
561.589	4.4
561.931	4.76
562.273	4.35
562.615	4.25
562.957	4.35
563.299	4.37
563.641	4.53
563.983	4.45
564.325	4.25
564.667	4.54
565.008	4.49
565.35	4.58
565.692	4.61
566.033	4.51
566.375	4.41
566.716	4.47
567.058	4.66
567.399	4.68
567.741	4.67
568.082	4.58
568.423	4.51
568.764	4.56
569.105	4.64
569.447	4.63
569.788	4.83
570.129	4.59
570.47	4.69
570.811	4.71
571.151	4.78
571.492	4.74
571.833	4.86
572.174	4.72
572.514	4.58
572.855	4.86
573.195	4.57
573.536	4.58
573.876	4.74
574.217	4.82
574.557	4.87
574.898	4.74
575.238	4.75
575.578	4.95
575.918	4.88
576.258	4.88
576.598	5.02
576.938	5.05
577.278	5.02
577.618	4.86
577.958	4.96
578.298	5
578.638	5.06
578.977	5.06
579.317	5.12
579.657	5.2
579.996	5.01
580.336	4.89
580.675	5.03
581.014	5.22
581.354	5.37
581.693	5.09
582.032	5.01
582.372	5.27
582.711	5.05
583.05	5.49
583.389	5.32
583.728	5.17
584.067	5.42
584.406	5.39
584.745	5.23
585.083	5.69
585.422	5.32
585.761	5.6
586.1	5.58
586.438	5.35
586.777	5.56
587.115	5.38
587.454	5.48
587.792	5.35
588.13	6
588.469	5.46
588.807	5.75
589.145	5.57
589.483	5.52
589.821	5.5
590.159	5.27
590.497	5.42
590.835	5.47
591.173	5.56
591.511	5.51
591.849	5.52
592.187	5.59
592.524	5.78
592.862	5.83
593.2	5.67
593.537	5.63
593.875	5.62
594.212	5.75
594.55	5.71
594.887	5.8
595.224	5.77
595.561	5.75
595.899	5.85
596.236	6.02
596.573	5.79
596.91	5.96
597.247	5.87
597.584	5.82
597.921	5.91
598.258	5.89
598.594	5.77
598.931	5.97
599.268	5.86
599.604	6.04
599.941	6.09
600.277	5.9
600.614	6.01
600.95	6.2
601.287	6.25
601.623	6.45
601.959	6.28
602.296	6.19
602.632	6.32
602.968	6.26
603.304	6.3
603.64	6.09
603.976	6.36
604.312	6.17
604.648	6.37
604.984	6.21
605.319	6.29
605.655	6.2
605.991	6.36
606.326	6.26
606.662	6.18
606.998	6.39
607.333	6.46
607.668	6.45
608.004	6.34
608.339	6.36
608.674	6.65
609.01	6.53
609.345	6.71
609.68	6.41
610.015	6.69
610.35	6.65
610.685	6.64
611.02	6.65
611.355	6.79
611.689	6.44
612.024	6.85
612.359	6.92
612.694	6.9
613.028	7.07
613.363	6.62
613.697	7.12
614.032	6.82
614.366	6.88
614.7	7.15
615.035	6.87
615.369	7.02
615.703	7.14
616.037	7.23
616.371	6.84
616.705	7.12
617.039	7.33
617.373	7.26
617.707	7.15
618.041	7.34
618.375	6.72
618.709	7.3
619.042	7.17
619.376	7.07
619.71	7.34
620.043	7.36
620.377	7.16
620.71	7.48
621.043	7.46
621.377	7.3
621.71	7.5
622.043	7.6
622.376	7.22
622.709	7.58
623.043	7.32
623.376	7.8
623.709	7.85
624.041	7.6
624.374	7.43
624.707	7.38
625.04	7.79
625.373	7.36
625.705	7.6
626.038	7.57
626.37	7.49
626.703	7.67
627.035	7.9
627.368	8.04
627.7	7.95
628.032	7.65
628.365	7.52
628.697	7.68
629.029	7.96
629.361	7.37
629.693	8.13
630.025	7.92
630.357	8.15
630.689	8.18
631.021	7.79
631.353	8.11
631.684	7.93
632.016	7.96
632.348	8.21
632.679	7.99
633.011	8.31
633.342	8.26
633.674	7.91
634.005	8.19
634.336	8.03
634.668	8.19
634.999	8.03
635.33	8.03
635.661	8.28
635.992	8.28
636.323	8.3
636.654	8.27
636.985	8.1
637.316	8.78
637.647	8.79
637.977	8.36
638.308	8.57
638.639	8.32
638.969	8.65
639.3	8.65
639.63	8.38
639.961	8.74
640.291	8.97
640.622	8.41
640.952	8.66
641.282	8.34
641.612	8.5
641.943	8.8
642.273	8.66
642.603	8.89
642.933	8.71
643.263	8.87
643.592	8.68
643.922	9.52
644.252	8.83
644.582	8.93
644.911	8.77
645.241	8.9
645.571	9.11
645.9	9.22
646.23	9.33
646.559	9
646.888	8.88
647.218	9.45
647.547	9.2
647.876	9.29
648.205	8.94
648.534	9.26
648.863	8.98
649.192	9.14
649.521	9.11
649.85	9.66
650.179	9.56
650.508	9.34
650.837	9.54
651.165	9.45
651.494	9.37
651.822	9.93
652.151	10.06
652.479	9.98
652.808	9.21
653.136	9.36
653.465	9.74
653.793	10.06
654.121	9.93
654.449	9.49
654.777	9.97
655.105	10.1
655.433	9.9
655.761	8.94
656.089	9.8
656.417	9.75
656.745	10.44
657.073	10.08
657.4	10.12
657.728	9.75
658.056	10.02
658.383	9.92
658.711	9.67
659.038	10.2
659.365	9.85
659.693	9.87
660.02	9.8
660.347	10.15
660.674	9.92
661.001	9.56
661.329	10.19
661.656	10.2
661.982	10.05
662.309	10.09
662.636	10.03
662.963	10.56
663.29	10.63
663.616	10.22
663.943	10.84
664.27	10.23
664.596	10.19
664.923	10.8
665.249	10.14
665.576	10.5
665.902	10.43
666.228	10.35
666.554	10.03
666.881	10.65
667.207	10.38
667.533	10.58
667.859	10.4
668.185	10.38
668.511	10.43
668.837	10.19
669.162	11.01
669.488	10.72
669.814	10.88
670.139	10.89
670.465	11.23
670.791	10.86
671.116	10.78
671.442	10.72
671.767	10.99
672.092	10.98
672.418	10.73
672.743	11.18
673.068	11.09
673.393	10.94
673.718	11.29
674.043	10.83
674.368	11.68
674.693	11.44
675.018	11.09
675.343	11.22
675.667	11.51
675.992	11.09
676.317	11.18
676.641	11.35
676.966	12.02
677.29	11.57
677.615	11.55
677.939	11.23
678.264	11.21
678.588	11.89
678.912	11.01
679.236	11.94
679.56	11.35
679.885	11.66
680.209	10.55
680.532	11.1
680.856	11.96
681.18	11.37
681.504	11.27
681.828	10.9
682.152	11.44
682.475	12.23
682.799	11.96
683.122	11.78
683.446	11.46
683.769	12.9
684.093	12.78
684.416	11.2
684.739	12.46
685.062	12.44
685.386	12.18
685.709	12.05
686.032	12.31
686.355	12.07
686.678	12.14
687.001	11.04
687.324	11.38
687.646	11.91
687.969	12.3
688.292	12.47
688.614	13.3
688.937	12.06
689.26	11.81
689.582	11.51
689.904	12.53
690.227	12.25
690.549	13.48
690.871	12.54
691.194	12.67
691.516	13.04
691.838	12.51
692.16	12.43
692.482	12.55
692.804	12.72
693.126	12.44
693.448	12.93
693.769	12.37
694.091	13.43
694.413	12.69
694.735	12.56
695.056	13.6
695.378	13.91
695.699	13.72
696.021	12.43
696.342	12.61
696.663	13.65
696.984	13.45
697.306	13.01
697.627	13.29
697.948	12.75
698.269	12.91
698.59	13.56
698.911	13.26
699.232	13.5
699.553	13.58
699.873	12.92
700.194	13.48
700.515	13.04
700.835	13.3
701.156	13.77
701.477	12.82
701.797	14.23
702.117	13.75
702.438	13.68
702.758	12.92
703.078	13.42
703.398	14.07
703.719	13.9
704.039	13.6
704.359	13.05
704.679	12.93
704.999	13.63
705.319	13.83
705.638	14.95
705.958	14.62
706.278	13.78
706.597	13.51
706.917	14.34
707.237	13.24
707.556	14.22
707.876	13.8
708.195	14.46
708.514	14.32
708.834	14.57
709.153	14.33
709.472	13.37
709.791	14.04
710.11	14.08
710.429	14.25
710.748	13.96
711.067	14.22
711.386	15.57
711.705	14.2
712.023	14.31
712.342	14.26
712.661	15.46
712.979	15.6
713.298	14.92
713.616	15.16
713.935	14.12
714.253	14.42
714.572	14.04
714.89	14.16
715.208	14.87
715.526	15.68
715.844	14.61
716.162	14.98
716.48	14.3
716.798	15.3
717.116	14.95
717.434	15.51
717.752	14.34
718.069	13.76
718.387	15.58
718.705	14.45
719.022	15.03
719.34	15.16
719.657	15.27
719.975	14.38
720.292	15.17
720.609	15.3
720.927	15.69
721.244	15.39
721.561	16.3
721.878	15.97
722.195	16.36
722.512	16.82
722.829	15.64
723.146	15.86
723.463	16.01
723.779	14.8
724.096	15.28
724.413	15.61
724.729	15.39
725.046	15.35
725.362	13.98
725.679	16.97
725.995	15.33
726.311	15.81
726.628	14.61
726.944	15.84
727.26	14.63
727.576	18.15
727.892	16.01
728.208	16.24
728.524	16.88
728.84	16.17
729.156	15.82
729.472	17.41
729.787	16.57
730.103	16.76
730.419	17.95
730.734	16.07
731.05	16.95
731.365	16.78
731.681	15.83
731.996	15.46
732.311	16.45
732.626	15.71
732.942	17.25
733.257	17.7
733.572	17.25
733.887	17.1
734.202	17.55
734.517	16.77
734.832	16.04
735.146	16.54
735.461	15.86
735.776	16.68
736.091	17.02
736.405	17.63
736.72	16.82
737.034	15.89
737.349	16.73
737.663	16.01
737.977	18.12
738.292	17.36
738.606	17.08
738.92	17.2
739.234	16.79
739.548	18.77
739.862	18.07
740.176	16.31
740.49	18.76
740.804	17.57
741.117	17.21
741.431	15.96
741.745	15.9
742.058	16.66
742.372	16.73
742.685	16.89
742.999	16.87
743.312	15.49
743.626	16.81
743.939	17.39
744.252	16.36
744.565	17.17
744.878	18.35
745.191	16.86
745.505	17.02
745.817	18.73
746.13	18.21
746.443	16.73
746.756	18.75
747.069	16.72
747.381	16.22
747.694	14.01
748.007	18.43
748.319	17.86
748.632	17.85
748.944	17.83
749.256	19.07
749.569	17.79
749.881	16.55
750.193	17.97
750.505	18.38
750.817	18.44
751.129	18.68
751.441	17.2
751.753	18.69
752.065	18.79
752.377	17.12
752.689	18.35
753	18.07
753.312	18.72
753.624	19.14
753.935	16.6
754.247	18.24
754.558	19.17
754.869	19.81
755.181	18.02
755.492	20.31
755.803	18.45
756.114	18.14
756.425	19.57
756.736	18.73
757.047	20.07
757.358	18.94
757.669	18.27
757.98	18.87
758.291	20.44
758.601	18.68
758.912	19.22
759.223	20.03
759.533	19.84
759.844	19.42
760.154	19.36
760.464	20.38
760.775	21.05
761.085	19.15
761.395	19.55
761.705	19.08
762.016	19.61
762.326	18.53
762.636	19.86
762.945	17.76
763.255	20.41
763.565	18.79
763.875	19.35
764.185	19.37
764.494	18.14
764.804	19.65
765.113	19.78
765.423	19.22
765.732	19.49
766.042	20.75
766.351	20.92
766.66	20.9
766.97	20.23
767.279	20.39
767.588	20.13
767.897	21.08
768.206	20.49
768.515	19.55
768.824	19.86
769.133	21.46
769.441	20.95
769.75	19.47
770.059	20.13
770.367	17.83
770.676	18.54
770.984	18.96
771.293	20.07
771.601	17.29
771.91	22.27
772.218	18.63
772.526	21.03
772.834	20.67
773.142	18.67
773.45	19.78
773.758	19.99
774.066	18.66
774.374	20.39
774.682	20.04
774.99	19.41
775.298	19.66
775.605	19.68
775.913	17.94
776.22	19.15
776.528	19.43
776.835	19.94
777.143	21.39
777.45	19.77
777.757	16.76
778.065	20.38
778.372	21.34
778.679	21.18
778.986	15.96
779.293	20.79
779.6	22.93
779.907	16.29
780.214	22.57
780.52	21.05
780.827	21.68
781.134	22.83
781.44	18.99
781.747	21.05
782.053	22.45
782.36	20.11
782.666	21.78
782.973	21
783.279	18.59
783.585	22.96
783.891	21.68
784.197	19.68
784.503	23.12
784.809	21
785.115	15.52
785.421	21.89
785.727	21.47
786.033	20.23
786.339	21.11
786.644	18
786.95	22.83
787.255	19.84
787.561	20.38
787.866	19.53
788.172	21.25
788.477	19.04
788.782	21.63
789.088	23.43
789.393	18.19
789.698	15.29
790.003	20.41
790.308	21.82
790.613	22.77
790.918	22.53
791.223	19.98
791.527	22.29
791.832	21.75
792.137	21.98
792.441	22.6
792.746	19.48
793.05	24.73
793.355	22.97
793.659	23.42
793.963	24.53
794.268	21.83
794.572	22.14
794.876	21.24
795.18	17.31
795.484	21.27
795.788	23
796.092	21.12
796.396	18.76
796.7	24.26
797.004	25.39
797.307	19.7
797.611	24.15
797.915	22.9
798.218	24.25
798.522	16.88
798.825	23.74
799.128	26.38
799.432	23.1
799.735	19.57
800.038	21.82
800.341	21.29
800.644	21.82
800.947	25.06
801.25	22.09
801.553	22.15
801.856	24.04
802.159	21.4
802.462	24.86
802.764	21.62
803.067	22.67
803.37	19.33
803.672	22.54
803.975	26.04
804.277	22.66
804.579	24.76
804.882	22.43
805.184	25.07
805.486	25.54
805.788	24.88
806.09	21.23
806.392	27.7
806.694	25.8
806.996	25.93
807.298	22.46
807.6	25.06
807.902	27.02
808.203	28.16
808.505	18.93
808.807	24.16
809.108	23.25
809.409	24.33
809.711	23.94
810.012	22.2
810.313	25.79
810.615	23.4
810.916	23.65
811.217	22.73
811.518	25.13
811.819	14.78
812.12	26.88
812.421	20.86
812.722	16.65
813.023	23.5
813.323	24.54
813.624	21.65
813.925	26.35
814.225	22.34
814.526	25.05
814.826	28.43
815.126	23.72
815.427	22.55
815.727	25.9
816.027	25.37
816.327	13.09
816.627	19.07
816.927	18.39
817.227	24.87
817.527	28.54
817.827	15.8
818.127	28.09
818.427	23.3
818.727	25.44
819.026	23.11
819.326	30.58
819.625	26.25
819.925	23.91
820.224	23.09
820.524	26.8
820.823	16.48
821.122	23.48
821.421	24.83
821.72	26.3
822.019	19.32
822.318	31.71
822.617	23.1
822.916	26.9
823.215	27.63
823.514	26.83
823.813	25.95
824.111	26.4
824.41	25.79
824.709	27.48
825.007	27.41
825.306	28.08
825.604	27.01
825.902	26.72
826.201	27.56
826.499	27.77
826.797	27.15
827.095	26.59
827.393	27.22
827.691	29.8
827.989	30.11
828.287	29.52
828.585	24.1
828.882	26.96
829.18	25.69
829.478	27.03
829.775	28.35
830.073	27.82
830.37	27.19
830.668	25.92
830.965	26.95
831.263	28.13
831.56	29.72
831.857	28.02
832.154	27.55
832.451	27.46
832.748	25.68
833.045	34.13
833.342	27.93
833.639	21.03
833.936	25.13
834.232	21.65
834.529	23.06
834.826	23.25
835.122	24.13
835.419	27.11
835.715	25.82
836.012	26.9
836.308	29.6
836.604	28.47
836.901	29.36
837.197	30.05
837.493	28.36
837.789	25.82
838.085	25.79
838.381	26.92
838.677	25.66
838.972	28.17
839.268	25.77
839.564	27.86
839.86	25.91
840.155	22.93
840.451	20.5
840.746	21.71
841.042	17.82
841.337	32.96
841.632	32.01
841.928	27.95
842.223	17.86
842.518	28.35
842.813	21.19
843.108	19.18
843.403	27.47
843.698	19.71
843.993	22.6
844.287	22.35
844.582	26.21
844.877	22.42
845.171	37.02
845.466	25.84
845.761	23.28
846.055	9.4
846.349	1.3
846.644	32.89
846.938	8.98
847.232	7.93
847.526	23.79
847.82	33.29
848.114	21.84
848.408	40.28
848.702	32.18
848.996	45.61
849.29	32.73
849.584	8.93
849.877	24.82
850.171	43.4
850.465	11.41
850.758	29.37
851.052	39.17
851.345	27.85
851.638	23.18
851.932	17.65
852.225	24.16
852.518	27.82
852.811	25.18
853.104	27.88
853.397	40.03
853.69	27.79
853.983	20.48
854.276	-3.49
854.569	-7.04
854.861	30.66
855.154	21.13
855.447	36.95
855.739	28.42
856.032	18.98
856.324	5.88
856.616	22.85
856.909	33.4
857.201	29.93
857.493	-3.91
857.785	1.98
858.077	8
858.369	44.49
858.661	34.76
858.953	15.6
859.245	8.3
859.537	36.46
859.829	47.23
860.12	7.37
860.412	10.56
860.703	28.97
860.995	18.55
861.286	27.92
861.578	-2.59
861.869	17.84
862.16	23.98
862.452	12.91
862.743	32.86
863.034	26.74
863.325	9.41
863.616	24.71
863.907	35.23
864.198	27.27
864.488	36.74
864.779	9.23
865.07	33.21
865.36	33.28
865.651	18.59
865.941	20.99
866.232	-10.57
866.522	10.05
866.813	23.37
867.103	42.08
867.393	16.6
867.683	31.62
867.973	29.12
868.263	24.22
868.553	19.14
868.843	4.2
869.133	21.28
869.423	24.11
869.713	26.33
870.002	-7.91
870.292	-3.75
870.582	27.89
870.871	12.78
871.161	18.57
871.45	47.57
871.739	22.73
872.029	31.43
872.318	27.14
872.607	7.91
872.896	20.83
873.185	42.3
873.474	13.74
873.763	10.84
874.052	4.92
874.341	-25.83
874.63	28.74
874.918	16.9
875.207	34.2
875.496	42.69
875.784	-19.18
876.073	16
876.361	-13.78
876.649	33.62
876.938	16.53
877.226	30.77
877.514	18.02
877.802	45.34
878.09	29.24
878.378	44.47
878.666	-2.87
878.954	24.33
879.242	2.96
879.53	10.6
879.817	37.51
880.105	0.38
880.392	9.18
880.68	3.51
880.967	35.87
881.255	21.11
881.542	36.46
881.83	15.61
882.117	39.38
882.404	25.95
882.691	26.18
882.978	29.27
883.265	33.98
883.552	14.13
883.839	33.84
884.126	26.06
884.413	29.14
884.699	39.14
884.986	29.59
885.273	33.8
885.559	33.8
885.846	33.8
