Data from 0074_forehead_Reflection__2__357.txt Node

Date: Fri Dec 16 16:53:13 CST 2022
User: ToomeyLab
Spectrometer: FLMS14357
Trigger mode: 0
Integration Time (sec): 1.000000E-2
Scans to average: 100
Electric dark correction enabled: true
Nonlinearity correction enabled: false
Boxcar width: 0
XAxis mode: Wavelengths
Number of Pixels in Spectrum: 2048
>>>>>Begin Spectral Data<<<<<
189.047	-117.57
189.435	-117.57
189.823	-117.57
190.211	-30.89
190.599	416.62
190.987	-2693.22
191.375	47.47
191.763	326.47
192.151	-115.84
192.538	671.14
192.926	-121.16
193.314	167.02
193.702	135.1
194.089	-25.53
194.477	-159.67
194.864	-462.53
195.252	19.36
195.639	152.62
196.027	233.92
196.414	245.93
196.801	-266.19
197.189	128.33
197.576	57.33
197.963	-299.08
198.351	37.57
198.738	-33.6
199.125	36.26
199.512	-10.85
199.899	-51.73
200.286	34.09
200.673	51.31
201.06	10.38
201.447	-11.97
201.833	24.77
202.22	14.21
202.607	-67.69
202.994	33.57
203.38	-91.61
203.767	-4.37
204.154	-109.28
204.54	23.27
204.927	43.56
205.313	36.79
205.699	23.93
206.086	-12.9
206.472	5.42
206.858	4.11
207.245	43.76
207.631	-17.47
208.017	-5.17
208.403	6.34
208.789	64.89
209.175	38.94
209.561	-54.85
209.947	-23.16
210.333	2.71
210.719	-22.8
211.105	-42.49
211.491	-9.83
211.876	-2.81
212.262	-2.5
212.648	-8.64
213.034	-15.41
213.419	31.69
213.805	10.14
214.19	-23.89
214.576	6.35
214.961	-39.63
215.346	-70.27
215.732	-19.96
216.117	-22.14
216.502	-19.87
216.888	-45.54
217.273	16.5
217.658	-4.33
218.043	4.88
218.428	5.98
218.813	-8.56
219.198	-41.01
219.583	11.85
219.968	4.79
220.353	3.59
220.738	4.2
221.122	-8.17
221.507	-20.95
221.892	-2.8
222.276	-6.09
222.661	-9.52
223.046	0.87
223.43	-8.05
223.815	-2.25
224.199	6.3
224.583	6.65
224.968	5.39
225.352	4.76
225.736	-0.69
226.121	7.66
226.505	5.99
226.889	2.24
227.273	5.12
227.657	0.46
228.041	2.38
228.425	4.84
228.809	3.61
229.193	1.22
229.577	1.93
229.961	3.57
230.344	3.39
230.728	3.09
231.112	3.12
231.495	2.57
231.879	4.06
232.263	1.86
232.646	2.69
233.03	2.12
233.413	3.09
233.797	3.5
234.18	0.35
234.563	1.32
234.946	1.99
235.33	2.02
235.713	2.47
236.096	1.69
236.479	3.32
236.862	2.15
237.245	3.17
237.628	3.38
238.011	2.58
238.394	3.57
238.777	3.57
239.16	-0.08
239.543	1.98
239.925	2.63
240.308	3.07
240.691	2.01
241.073	3.45
241.456	3.55
241.838	2.79
242.221	2.77
242.603	3.66
242.986	3.74
243.368	3.26
243.75	2.86
244.133	3.49
244.515	3.28
244.897	3.02
245.279	2.75
245.661	4.03
246.043	2.67
246.425	2.42
246.807	3.87
247.189	2.98
247.571	3.22
247.953	3.25
248.335	3.41
248.717	3.28
249.098	3.33
249.48	2.89
249.862	3.68
250.243	3.36
250.625	3.32
251.006	3.27
251.388	4.07
251.769	3.78
252.151	3.5
252.532	2.72
252.913	3.47
253.295	3.1
253.676	3.88
254.057	2.74
254.438	3.06
254.819	4.03
255.2	2.78
255.581	2.46
255.962	3.72
256.343	3.76
256.724	2.86
257.105	2.8
257.486	3.74
257.867	2.16
258.247	4.04
258.628	3.83
259.009	2.99
259.389	3.95
259.77	2.98
260.15	3.97
260.531	3.72
260.911	3.59
261.292	3.26
261.672	3.27
262.052	3.18
262.432	3.24
262.813	3.3
263.193	2.82
263.573	3.72
263.953	2.84
264.333	2.87
264.713	2.16
265.093	3.4
265.473	4.11
265.853	3.73
266.233	2.78
266.612	3.29
266.992	2.75
267.372	3.5
267.752	2.81
268.131	2.89
268.511	3.46
268.89	3.22
269.27	3.52
269.649	3.69
270.029	3.46
270.408	3.17
270.787	3.03
271.167	2.98
271.546	2.37
271.925	3.46
272.304	3.8
272.683	2.95
273.062	3.16
273.441	3.36
273.82	3.32
274.199	3.59
274.578	3.24
274.957	3.5
275.336	2.88
275.715	2.92
276.093	3.4
276.472	2.98
276.851	3.3
277.229	3.24
277.608	3.23
277.986	3.26
278.365	3.09
278.743	3.3
279.122	3.01
279.5	2.76
279.878	2.55
280.257	3.34
280.635	3.19
281.013	3.77
281.391	2.96
281.769	3.08
282.147	2.95
282.525	3.2
282.903	3.54
283.281	3.14
283.659	3.25
284.037	3.12
284.415	3.14
284.792	3.07
285.17	2.64
285.548	3.02
285.925	2.94
286.303	2.93
286.68	3.52
287.058	3.11
287.435	3.3
287.813	3.16
288.19	3.65
288.567	3.03
288.945	3.43
289.322	3.35
289.699	2.61
290.076	3.5
290.453	3.25
290.83	3.7
291.207	3.57
291.584	2.99
291.961	3.38
292.338	3.27
292.715	3.6
293.092	3.37
293.469	3.94
293.845	4.06
294.222	3.25
294.599	3.96
294.975	3.75
295.352	3.28
295.728	3.92
296.105	3.68
296.481	3.72
296.858	4.32
297.234	3.58
297.61	3.76
297.986	3.91
298.363	3.33
298.739	3.9
299.115	3.57
299.491	3.48
299.867	3.74
300.243	3.78
300.619	3.69
300.995	4.23
301.371	4.19
301.746	3.87
302.122	3.95
302.498	4.02
302.874	4.37
303.249	4.02
303.625	4.29
304	3.84
304.376	4.26
304.751	4.06
305.127	4.12
305.502	4.76
305.878	4.13
306.253	4.2
306.628	4.99
307.003	4.67
307.378	4.23
307.754	4.86
308.129	4.33
308.504	4.43
308.879	4.38
309.254	4.98
309.629	4.98
310.003	5.26
310.378	5.18
310.753	4.9
311.128	4.95
311.502	5.01
311.877	5.13
312.252	5.03
312.626	4.66
313.001	4.96
313.375	5.37
313.75	5.12
314.124	5.78
314.498	5.13
314.873	5.08
315.247	5.19
315.621	5.9
315.995	5.43
316.369	5.78
316.743	5.8
317.117	5.71
317.491	5.93
317.865	5.12
318.239	6.12
318.613	6.03
318.987	6.04
319.361	5.92
319.734	6.02
320.108	6.15
320.482	5.87
320.855	5.95
321.229	6.64
321.602	5.96
321.976	6.69
322.349	5.44
322.723	5.73
323.096	5.97
323.469	5.9
323.843	6.49
324.216	5.86
324.589	6.54
324.962	6.34
325.335	6.23
325.708	6.92
326.081	6.67
326.454	6.56
326.827	6.59
327.2	6.99
327.573	6.89
327.945	6.68
328.318	6.55
328.691	6.7
329.063	6.35
329.436	6.57
329.809	6.35
330.181	6.88
330.553	7.14
330.926	6.74
331.298	6.75
331.671	6.91
332.043	6.74
332.415	7.28
332.787	7.57
333.159	7.08
333.532	7.53
333.904	7.77
334.276	6.8
334.648	7.23
335.02	6.82
335.391	7.63
335.763	7.1
336.135	6.94
336.507	7.47
336.879	7.15
337.25	7.2
337.622	7.64
337.993	7.36
338.365	7.97
338.736	7.26
339.108	7.43
339.479	7.69
339.851	7.89
340.222	7.65
340.593	7.69
340.964	7.61
341.336	7.47
341.707	8.01
342.078	7.47
342.449	8.2
342.82	7.69
343.191	7.47
343.562	7.78
343.933	7.76
344.303	7.78
344.674	7.81
345.045	8.19
345.416	7.94
345.786	7.56
346.157	7.95
346.527	7.58
346.898	7.9
347.268	7.68
347.639	8.21
348.009	8.23
348.38	7.75
348.75	8.27
349.12	8.25
349.49	8.02
349.861	8.92
350.231	8.77
350.601	8.67
350.971	8.34
351.341	8.27
351.711	8.28
352.081	8.7
352.45	8.84
352.82	8.89
353.19	8.43
353.56	8.75
353.929	8.99
354.299	8.35
354.669	8.55
355.038	8.8
355.408	9.1
355.777	8.7
356.147	8.76
356.516	9.36
356.885	8.84
357.254	9
357.624	8.98
357.993	9.02
358.362	9.37
358.731	8.9
359.1	8.86
359.469	9.22
359.838	8.88
360.207	9.16
360.576	9.44
360.945	8.94
361.314	9.51
361.682	9.01
362.051	8.85
362.42	9.45
362.788	9.4
363.157	9.16
363.525	9.16
363.894	9.13
364.262	9.39
364.631	9.95
364.999	9.39
365.367	9.95
365.735	9.21
366.104	9.35
366.472	9.52
366.84	9.83
367.208	9.41
367.576	9.81
367.944	9.84
368.312	9.39
368.68	10.04
369.048	9.79
369.416	9.73
369.783	9.71
370.151	9.9
370.519	9.91
370.886	9.71
371.254	10.42
371.621	10.25
371.989	10.19
372.356	10.13
372.724	10.15
373.091	9.89
373.458	10.04
373.826	10.22
374.193	10.43
374.56	10.39
374.927	10
375.294	10.45
375.661	10.77
376.028	10.47
376.395	10.02
376.762	10.51
377.129	10.61
377.496	10.51
377.863	10.49
378.229	10.35
378.596	10.54
378.963	10.63
379.329	10.57
379.696	10.66
380.062	10.65
380.429	10.58
380.795	10.66
381.161	10.9
381.528	10.37
381.894	11.28
382.26	10.8
382.626	10.93
382.993	10.6
383.359	10.77
383.725	11.26
384.091	10.94
384.457	11.17
384.823	11.33
385.188	11.27
385.554	11.12
385.92	11.39
386.286	11.34
386.651	11.19
387.017	11.4
387.383	11.18
387.748	11.14
388.114	11.53
388.479	11.59
388.845	11.5
389.21	11.46
389.575	11.86
389.94	11.57
390.306	11.55
390.671	11.55
391.036	11.78
391.401	11.86
391.766	11.94
392.131	11.79
392.496	11.51
392.861	11.69
393.226	11.92
393.591	11.89
393.956	11.93
394.32	11.78
394.685	12.01
395.05	11.9
395.414	11.98
395.779	11.83
396.143	12.12
396.508	12.09
396.872	12.04
397.236	11.94
397.601	12.41
397.965	11.95
398.329	12.43
398.694	12.15
399.058	12.24
399.422	12.28
399.786	12.28
400.15	12.36
400.514	12.5
400.878	12.32
401.242	12.4
401.605	12.53
401.969	12.48
402.333	12.56
402.697	12.51
403.06	12.63
403.424	12.39
403.787	12.73
404.151	12.54
404.514	12.74
404.878	12.6
405.241	12.75
405.604	12.91
405.968	12.69
406.331	12.91
406.694	12.79
407.057	13.09
407.42	12.86
407.783	12.8
408.146	12.68
408.509	13.02
408.872	13
409.235	13.22
409.598	12.85
409.961	13.19
410.323	13.17
410.686	12.99
411.049	13
411.411	13.27
411.774	13.22
412.136	13.3
412.499	13.27
412.861	13.1
413.223	13.37
413.586	13.21
413.948	13.42
414.31	13.54
414.672	13.44
415.035	13.72
415.397	13.72
415.759	13.69
416.121	13.8
416.483	13.71
416.845	13.57
417.206	13.75
417.568	13.69
417.93	13.54
418.292	13.61
418.653	13.66
419.015	13.69
419.377	13.66
419.738	13.47
420.1	13.5
420.461	13.59
420.822	13.76
421.184	13.71
421.545	13.63
421.906	13.72
422.267	13.71
422.629	13.75
422.99	13.85
423.351	13.87
423.712	13.82
424.073	14.07
424.434	13.96
424.795	13.9
425.155	14.01
425.516	13.96
425.877	13.94
426.238	14.03
426.598	14.13
426.959	14.13
427.32	14.2
427.68	14.29
428.041	14.18
428.401	14.34
428.761	14.34
429.122	14.47
429.482	14.48
429.842	14.64
430.202	14.71
430.563	14.79
430.923	14.68
431.283	14.73
431.643	14.78
432.003	14.84
432.363	14.94
432.722	14.83
433.082	14.73
433.442	14.73
433.802	15.03
434.161	14.88
434.521	14.82
434.881	14.95
435.24	14.99
435.6	14.99
435.959	15.1
436.319	15.08
436.678	15.23
437.037	15.23
437.396	15.2
437.756	15.27
438.115	15.19
438.474	15.48
438.833	15.47
439.192	15.36
439.551	15.48
439.91	15.47
440.269	15.63
440.628	15.55
440.987	15.39
441.345	15.44
441.704	15.31
442.063	15.57
442.421	15.51
442.78	15.47
443.138	15.6
443.497	15.33
443.855	15.57
444.214	15.79
444.572	15.83
444.93	15.77
445.288	15.88
445.647	16.04
446.005	15.67
446.363	15.84
446.721	15.86
447.079	15.73
447.437	15.83
447.795	15.82
448.153	15.79
448.51	15.79
448.868	15.94
449.226	15.99
449.584	16.06
449.941	16.18
450.299	16.15
450.656	16.3
451.014	16.1
451.371	16.36
451.729	16.44
452.086	16.32
452.443	16.48
452.801	16.66
453.158	16.49
453.515	16.49
453.872	16.76
454.229	16.55
454.586	16.68
454.943	16.68
455.3	16.95
455.657	16.69
456.014	16.68
456.371	16.89
456.727	16.89
457.084	16.75
457.441	16.81
457.797	17.16
458.154	16.92
458.51	17.12
458.867	17.08
459.223	17.23
459.58	17.13
459.936	17.1
460.292	17.13
460.648	16.94
461.005	16.78
461.361	16.88
461.717	17.04
462.073	17.02
462.429	17.13
462.785	17.44
463.141	17.51
463.496	17.37
463.852	17.75
464.208	17.61
464.564	17.51
464.919	17.6
465.275	17.7
465.631	17.85
465.986	17.77
466.342	18.03
466.697	17.66
467.052	18
467.408	17.97
467.763	17.99
468.118	18.01
468.473	18.1
468.829	17.99
469.184	18.09
469.539	17.99
469.894	18.3
470.249	18.19
470.603	18.34
470.958	18.33
471.313	18.15
471.668	18.1
472.023	18.21
472.377	18.22
472.732	18.32
473.086	18.24
473.441	18.66
473.795	18.61
474.15	18.5
474.504	18.38
474.859	18.5
475.213	18.62
475.567	18.52
475.921	18.69
476.275	18.66
476.63	18.6
476.984	18.74
477.338	18.94
477.692	18.94
478.045	18.71
478.399	18.9
478.753	18.68
479.107	18.86
479.461	18.91
479.814	18.91
480.168	18.82
480.521	18.98
480.875	19.28
481.228	19.21
481.582	18.99
481.935	19.09
482.289	19.22
482.642	19.26
482.995	19.15
483.348	19.18
483.701	18.87
484.055	18.88
484.408	18.69
484.761	18.55
485.114	18.42
485.466	18.37
485.819	18.36
486.172	18.48
486.525	18.66
486.878	18.72
487.23	18.96
487.583	19.06
487.936	19.01
488.288	18.92
488.641	18.87
488.993	18.79
489.345	18.83
489.698	18.94
490.05	19.02
490.402	19.21
490.754	19.42
491.107	19.44
491.459	19.59
491.811	19.63
492.163	19.72
492.515	19.56
492.866	19.33
493.218	19.36
493.57	19.38
493.922	19.43
494.274	19.6
494.625	19.8
494.977	20.03
495.328	20.32
495.68	20.31
496.031	20.59
496.383	20.49
496.734	20.49
497.086	20.38
497.437	20.55
497.788	20.34
498.139	20.4
498.49	20.44
498.842	20.48
499.193	20.54
499.544	20.71
499.894	20.5
500.245	20.68
500.596	20.71
500.947	20.79
501.298	20.82
501.648	20.92
501.999	20.98
502.35	21.1
502.7	21.21
503.051	21.26
503.401	21.28
503.752	21.23
504.102	21.25
504.452	21.25
504.803	21.1
505.153	21.46
505.503	21.45
505.853	21.33
506.203	21.42
506.553	21.58
506.903	21.49
507.253	21.41
507.603	21.68
507.953	21.76
508.303	21.65
508.652	21.76
509.002	21.64
509.352	21.57
509.701	21.67
510.051	21.64
510.4	21.77
510.75	21.69
511.099	21.8
511.449	21.8
511.798	21.9
512.147	21.9
512.496	21.98
512.846	21.99
513.195	22.08
513.544	21.92
513.893	21.94
514.242	22.14
514.591	22.28
514.939	22.23
515.288	22.44
515.637	22.4
515.986	22.13
516.334	22.5
516.683	22.39
517.032	22.5
517.38	22.6
517.729	22.5
518.077	22.64
518.426	22.41
518.774	22.48
519.122	22.43
519.47	22.34
519.819	22.31
520.167	22.23
520.515	22.25
520.863	22.45
521.211	22.5
521.559	22.55
521.907	22.61
522.255	22.82
522.602	23
522.95	23.04
523.298	22.94
523.645	23.03
523.993	23.37
524.341	23.08
524.688	23.11
525.036	23.25
525.383	23.19
525.73	23.22
526.078	23.36
526.425	23.15
526.772	22.97
527.119	22.82
527.466	22.95
527.814	22.95
528.161	23.07
528.508	23.05
528.854	23.04
529.201	22.91
529.548	22.68
529.895	22.68
530.242	22.79
530.588	22.73
530.935	22.79
531.282	22.8
531.628	23.02
531.975	23.19
532.321	23.36
532.667	23.54
533.014	23.56
533.36	23.63
533.706	23.59
534.052	23.63
534.399	23.5
534.745	23.36
535.091	23.33
535.437	23.45
535.783	23.63
536.129	23.82
536.474	23.88
536.82	23.94
537.166	24.19
537.512	24.12
537.857	24.03
538.203	24.01
538.549	24.05
538.894	24.03
539.239	24.38
539.585	24.54
539.93	24.65
540.276	24.7
540.621	24.67
540.966	24.67
541.311	24.78
541.656	24.54
542.001	24.51
542.346	24.36
542.691	24.07
543.036	24.07
543.381	24.11
543.726	24.25
544.071	24.32
544.415	24.53
544.76	24.32
545.105	24.76
545.449	24.77
545.794	24.83
546.138	25.12
546.483	25.04
546.827	25.22
547.171	25.18
547.516	25.3
547.86	25.17
548.204	25.08
548.548	25.34
548.892	25.25
549.236	25.43
549.58	25.42
549.924	25.68
550.268	25.93
550.612	25.7
550.956	25.92
551.3	25.99
551.643	26.01
551.987	25.93
552.33	26.06
552.674	26.33
553.017	26.24
553.361	26.21
553.704	26.29
554.048	26.2
554.391	26.08
554.734	26.02
555.077	26.41
555.42	26.17
555.764	26.39
556.107	26.61
556.45	26.59
556.793	26.64
557.135	26.72
557.478	26.77
557.821	26.56
558.164	26.78
558.507	26.78
558.849	26.84
559.192	26.84
559.534	26.57
559.877	26.91
560.219	27.15
560.562	27.06
560.904	26.94
561.246	26.99
561.589	27.2
561.931	27.35
562.273	27.2
562.615	27.37
562.957	27.29
563.299	27.23
563.641	27.23
563.983	27.23
564.325	27.3
564.667	27.32
565.008	27.34
565.35	27.62
565.692	27.72
566.033	27.51
566.375	27.49
566.716	27.52
567.058	27.74
567.399	27.49
567.741	27.43
568.082	27.6
568.423	27.65
568.764	27.61
569.105	27.67
569.447	27.9
569.788	27.85
570.129	27.75
570.47	28.03
570.811	27.99
571.151	28.1
571.492	28.01
571.833	27.84
572.174	27.97
572.514	27.83
572.855	28.02
573.195	28
573.536	28.04
573.876	28.27
574.217	28.27
574.557	28.21
574.898	28.21
575.238	28.08
575.578	28.2
575.918	28.34
576.258	28.56
576.598	28.41
576.938	28.59
577.278	28.13
577.618	28.46
577.958	28.49
578.298	28.6
578.638	28.73
578.977	29.12
579.317	28.72
579.657	28.84
579.996	29.02
580.336	29.12
580.675	28.99
581.014	28.95
581.354	29.14
581.693	29.28
582.032	29.4
582.372	29.29
582.711	29.16
583.05	29.24
583.389	29.34
583.728	29.53
584.067	29.47
584.406	29.6
584.745	29.41
585.083	29.55
585.422	29.53
585.761	29.71
586.1	29.57
586.438	29.71
586.777	29.87
587.115	29.93
587.454	29.85
587.792	29.63
588.13	29.86
588.469	29.95
588.807	30.11
589.145	30.16
589.483	29.71
589.821	30.04
590.159	30.22
590.497	30.07
590.835	30.23
591.173	30.1
591.511	30.35
591.849	30.06
592.187	30.19
592.524	30.01
592.862	30.28
593.2	30.15
593.537	30.29
593.875	30.28
594.212	30.22
594.55	30.38
594.887	30.5
595.224	30.52
595.561	30.56
595.899	30.56
596.236	30.63
596.573	30.3
596.91	30.62
597.247	30.45
597.584	30.94
597.921	30.59
598.258	30.48
598.594	30.06
598.931	30.61
599.268	30.62
599.604	30.71
599.941	30.68
600.277	31.02
600.614	30.79
600.95	30.66
601.287	30.93
601.623	31.32
601.959	31.14
602.296	31.2
602.632	31.12
602.968	30.96
603.304	30.94
603.64	31.22
603.976	31.02
604.312	31
604.648	31.54
604.984	31.23
605.319	31.07
605.655	31.25
605.991	31.14
606.326	31.12
606.662	31.25
606.998	31.3
607.333	31.11
607.668	31.3
608.004	31.17
608.339	31.49
608.674	31.39
609.01	31.83
609.345	31.79
609.68	31.63
610.015	31.68
610.35	31.58
610.685	31.86
611.02	31.7
611.355	31.63
611.689	31.48
612.024	31.88
612.359	32.17
612.694	32.13
613.028	32.16
613.363	32.08
613.697	31.96
614.032	32.26
614.366	32.19
614.7	32.53
615.035	32.07
615.369	32.26
615.703	32.42
616.037	32.2
616.371	32.59
616.705	32.72
617.039	32.68
617.373	32.67
617.707	32.4
618.041	32.79
618.375	32.77
618.709	32.56
619.042	32.97
619.376	32.65
619.71	32.73
620.043	32.87
620.377	32.7
620.71	32.78
621.043	32.76
621.377	32.52
621.71	32.89
622.043	32.85
622.376	32.62
622.709	33.46
623.043	32.49
623.376	32.62
623.709	33.31
624.041	32.86
624.374	33.22
624.707	33.22
625.04	33.57
625.373	32.95
625.705	33.43
626.038	33.29
626.37	33.57
626.703	33.44
627.035	32.94
627.368	33.43
627.7	33.28
628.032	33.1
628.365	32.88
628.697	33.29
629.029	33.38
629.361	33.43
629.693	33.56
630.025	33.64
630.357	33.27
630.689	34.06
631.021	33.47
631.353	34.33
631.684	34.04
632.016	33.88
632.348	33.79
632.679	33.98
633.011	34.01
633.342	34.09
633.674	33.88
634.005	33.99
634.336	34.47
634.668	33.98
634.999	33.93
635.33	34.12
635.661	33.96
635.992	34.09
636.323	34.27
636.654	34.57
636.985	34.11
637.316	34.27
637.647	34.56
637.977	34.45
638.308	34.47
638.639	34.4
638.969	34.4
639.3	34.21
639.63	34.03
639.961	34.51
640.291	34.86
640.622	34.47
640.952	34.13
641.282	34.42
641.612	34.2
641.943	34.56
642.273	34.62
642.603	34.83
642.933	35.01
643.263	34.74
643.592	34.67
643.922	34.94
644.252	34.65
644.582	34.8
644.911	34.76
645.241	34.41
645.571	34.8
645.9	35.03
646.23	35.06
646.559	35.25
646.888	34.98
647.218	35.01
647.547	35.29
647.876	35.59
648.205	35.14
648.534	34.98
648.863	35.36
649.192	35.37
649.521	35.16
649.85	35.36
650.179	35.25
650.508	35.13
650.837	35.52
651.165	35.3
651.494	35.38
651.822	35.68
652.151	35.68
652.479	35.69
652.808	35.26
653.136	34.85
653.465	35.72
653.793	35.9
654.121	35.72
654.449	35.13
654.777	35.95
655.105	35.82
655.433	35.62
655.761	35.53
656.089	36.3
656.417	35.58
656.745	36.06
657.073	35.96
657.4	35.32
657.728	36.09
658.056	35.64
658.383	36.38
658.711	35.53
659.038	36.89
659.365	36.01
659.693	35.61
660.02	36.04
660.347	36.23
660.674	35.71
661.001	36.16
661.329	36.11
661.656	36.21
661.982	36.52
662.309	36.09
662.636	35.77
662.963	36.48
663.29	36.15
663.616	35.91
663.943	36.57
664.27	36.16
664.596	36.7
664.923	36.51
665.249	36.65
665.576	36.34
665.902	36.48
666.228	36.18
666.554	36.47
666.881	37.25
667.207	36.76
667.533	36.69
667.859	36.32
668.185	36.64
668.511	36.94
668.837	35.73
669.162	36.23
669.488	37.15
669.814	36.99
670.139	37.17
670.465	37.03
670.791	36.45
671.116	37.03
671.442	36.63
671.767	36.96
672.092	37.14
672.418	36.85
672.743	36.95
673.068	36.83
673.393	36.09
673.718	36.82
674.043	36.52
674.368	37.06
674.693	37.55
675.018	37.37
675.343	37.14
675.667	37.39
675.992	37.14
676.317	36.75
676.641	37.03
676.966	36.94
677.29	37.62
677.615	37.17
677.939	37.07
678.264	38.16
678.588	37.57
678.912	37.25
679.236	37.44
679.56	37.46
679.885	37.3
680.209	37.74
680.532	37.5
680.856	37.55
681.18	37
681.504	37.29
681.828	37.34
682.152	37.21
682.475	37.58
682.799	38.16
683.122	37.71
683.446	37.63
683.769	38.05
684.093	37.95
684.416	37.11
684.739	38.41
685.062	38.37
685.386	38
685.709	38.22
686.032	37.87
686.355	37.63
686.678	38.29
687.001	37.53
687.324	37.59
687.646	37.66
687.969	38.23
688.292	37.62
688.614	38.38
688.937	37.71
689.26	37.73
689.582	38.06
689.904	38.05
690.227	37.88
690.549	38.42
690.871	37.72
691.194	38.53
691.516	38.52
691.838	37.93
692.16	38.49
692.482	38.43
692.804	38.85
693.126	37.8
693.448	39.19
693.769	38.69
694.091	39.45
694.413	39.2
694.735	38.59
695.056	38.94
695.378	38.9
695.699	39.68
696.021	38.09
696.342	38.12
696.663	38.53
696.984	38.91
697.306	38.56
697.627	38.37
697.948	38.69
698.269	38.27
698.59	38.9
698.911	38.67
699.232	39.05
699.553	38.69
699.873	39.1
700.194	38.79
700.515	38.46
700.835	38.1
701.156	38.94
701.477	38.57
701.797	39.19
702.117	38.81
702.438	38.86
702.758	38.97
703.078	38.56
703.398	39.35
703.719	39.62
704.039	39.67
704.359	39.16
704.679	38.69
704.999	39.33
705.319	38.59
705.638	40.29
705.958	39.82
706.278	39.19
706.597	40.46
706.917	40.06
707.237	38.85
707.556	40.41
707.876	39
708.195	39.25
708.514	39.28
708.834	40.14
709.153	39.52
709.472	38.9
709.791	38.45
710.11	38.93
710.429	38.91
710.748	39.8
711.067	39.51
711.386	39.49
711.705	40.09
712.023	39.19
712.342	38.64
712.661	39.36
712.979	39.69
713.298	40.15
713.616	40.13
713.935	39.19
714.253	39.35
714.572	40.03
714.89	39.88
715.208	39.98
715.526	40.45
715.844	39.32
716.162	39.72
716.48	39.56
716.798	39.51
717.116	40.02
717.434	39.87
717.752	39.51
718.069	39.46
718.387	39.41
718.705	40
719.022	40.58
719.34	40.68
719.657	39.85
719.975	39.56
720.292	39.81
720.609	40.03
720.927	42.23
721.244	41.4
721.561	40.26
721.878	39.63
722.195	40.49
722.512	39.85
722.829	40.92
723.146	39.26
723.463	39.64
723.779	37.73
724.096	38.78
724.413	40.78
724.729	40.32
725.046	41.08
725.362	38.73
725.679	40.91
725.995	40.21
726.311	39.8
726.628	39.19
726.944	40.36
727.26	39.35
727.576	41.16
727.892	39.45
728.208	40.66
728.524	41.74
728.84	40.67
729.156	40.23
729.472	42.04
729.787	41.24
730.103	39.75
730.419	40.77
730.734	40.24
731.05	40.46
731.365	40.97
731.681	40.14
731.996	41.07
732.311	41.03
732.626	40.5
732.942	41.39
733.257	40.79
733.572	41.39
733.887	41.17
734.202	40.18
734.517	41.81
734.832	40.76
735.146	40.08
735.461	39.51
735.776	42.27
736.091	41.25
736.405	41.13
736.72	40.38
737.034	40.66
737.349	39.04
737.663	40.66
737.977	40.46
738.292	40.77
738.606	40.38
738.92	41.63
739.234	41.87
739.548	40.56
739.862	41.38
740.176	40.3
740.49	41.71
740.804	40.47
741.117	41.83
741.431	39.8
741.745	42.24
742.058	40.2
742.372	40.27
742.685	40.46
742.999	41.96
743.312	39.62
743.626	40.43
743.939	41.4
744.252	39.12
744.565	41.89
744.878	41.68
745.191	40.22
745.505	41.06
745.817	43.5
746.13	42.27
746.443	42.48
746.756	41.69
747.069	40.74
747.381	40.52
747.694	40.57
748.007	40.05
748.319	41.5
748.632	40.94
748.944	40.31
749.256	42.48
749.569	42.37
749.881	40.07
750.193	39.46
750.505	42.09
750.817	42.4
751.129	41.02
751.441	39.95
751.753	41.15
752.065	40.7
752.377	41.47
752.689	41.42
753	41.05
753.312	42.06
753.624	42.32
753.935	40.73
754.247	42.28
754.558	43.43
754.869	41.76
755.181	41.47
755.492	41.72
755.803	41.89
756.114	41.06
756.425	43.11
756.736	39.43
757.047	43.52
757.358	41.77
757.669	42.1
757.98	42.14
758.291	42.01
758.601	41.96
758.912	41.01
759.223	43.17
759.533	42.12
759.844	42.6
760.154	40.78
760.464	42.65
760.775	43.57
761.085	41.46
761.395	41.81
761.705	41.12
762.016	40.22
762.326	41.56
762.636	44.36
762.945	41.17
763.255	40.78
763.565	41.99
763.875	41.13
764.185	40.78
764.494	40.96
764.804	43.71
765.113	43.03
765.423	42.83
765.732	41.62
766.042	44.15
766.351	40.79
766.66	40.58
766.97	43.29
767.279	42.26
767.588	42.9
767.897	42.09
768.206	42.46
768.515	43.56
768.824	43.04
769.133	44.34
769.441	43.89
769.75	41.15
770.059	41.2
770.367	43.22
770.676	40.68
770.984	42.77
771.293	41.05
771.601	40.36
771.91	42.43
772.218	42.59
772.526	41.93
772.834	42.74
773.142	41.74
773.45	40.72
773.758	40.41
774.066	40.67
774.374	38.5
774.682	43.36
774.99	40.12
775.298	39.78
775.605	45.12
775.913	42.32
776.22	42.21
776.528	44.14
776.835	42.04
777.143	42.53
777.45	43.16
777.757	39.22
778.065	42.29
778.372	41.12
778.679	42.63
778.986	45.5
779.293	44.3
779.6	41.4
779.907	42.02
780.214	42.01
780.52	42.28
780.827	39.84
781.134	40.57
781.44	42.4
781.747	44.47
782.053	43.18
782.36	42.01
782.666	42.45
782.973	43.54
783.279	41.95
783.585	42.4
783.891	45.15
784.197	41.82
784.503	43.78
784.809	42.67
785.115	38.16
785.421	45.32
785.727	43.25
786.033	44.08
786.339	42.25
786.644	44.32
786.95	43.04
787.255	43.42
787.561	45.9
787.866	38.26
788.172	41.26
788.477	39.66
788.782	41.04
789.088	44.32
789.393	43.15
789.698	42.53
790.003	42.75
790.308	41.3
790.613	41.82
790.918	42.5
791.223	45.17
791.527	43.27
791.832	45.46
792.137	46.32
792.441	46.51
792.746	45.22
793.05	44.68
793.355	42.35
793.659	43.95
793.963	42.51
794.268	41.45
794.572	45.3
794.876	45.24
795.18	41.97
795.484	39.93
795.788	40.86
796.092	42.24
796.396	45.38
796.7	44.76
797.004	41.42
797.307	41.41
797.611	36.59
797.915	39.29
798.218	44.52
798.522	43.43
798.825	43.33
799.128	45.46
799.432	47.06
799.735	42.34
800.038	41.5
800.341	42.17
800.644	42.45
800.947	42.43
801.25	40.29
801.553	39.03
801.856	41.49
802.159	45.05
802.462	43.2
802.764	39.04
803.067	41.86
803.37	43.34
803.672	44.8
803.975	42.03
804.277	40.44
804.579	43.14
804.882	41.59
805.184	42.37
805.486	37.6
805.788	45.38
806.09	38.17
806.392	43.07
806.694	44.6
806.996	42.31
807.298	41.53
807.6	43.97
807.902	46.22
808.203	47.97
808.505	36.55
808.807	41.4
809.108	39.9
809.409	44.46
809.711	46.4
810.012	43.76
810.313	42.66
810.615	39.34
810.916	45.68
811.217	48.06
811.518	49.15
811.819	41.86
812.12	45.16
812.421	38.88
812.722	40.55
813.023	45.23
813.323	44.19
813.624	38.49
813.925	43.02
814.225	44.74
814.526	45.52
814.826	44.53
815.126	45.31
815.427	48.05
815.727	46.72
816.027	46.95
816.327	36.61
816.627	36.27
816.927	43.41
817.227	40.37
817.527	41.06
817.827	46.73
818.127	43.03
818.427	45.29
818.727	41.63
819.026	43.09
819.326	44.26
819.625	41.9
819.925	36.72
820.224	43.15
820.524	38.99
820.823	34.86
821.122	39.14
821.421	41.36
821.72	42.13
822.019	43.73
822.318	49.24
822.617	44.79
822.916	42.05
823.215	41.65
823.514	45.01
823.813	45.58
824.111	45.66
824.41	44.79
824.709	45.31
825.007	45.33
825.306	44.96
825.604	45.32
825.902	45.43
826.201	45.18
826.499	46.41
826.797	45.24
827.095	42.7
827.393	46.75
827.691	45.61
827.989	46.75
828.287	46.02
828.585	42.28
828.882	43.05
829.18	45.77
829.478	43.77
829.775	45.6
830.073	44.41
830.37	44.47
830.668	43.2
830.965	43.06
831.263	46.32
831.56	45.68
831.857	45.47
832.154	47.09
832.451	44.98
832.748	42.43
833.045	46.08
833.342	42.75
833.639	38.4
833.936	43.07
834.232	47.43
834.529	39.54
834.826	42.64
835.122	39.81
835.419	40.58
835.715	40.92
836.012	42.45
836.308	45.89
836.604	42.5
836.901	48.09
837.197	42.69
837.493	46.14
837.789	46.41
838.085	44.02
838.381	44.3
838.677	42.34
838.972	39.6
839.268	40.49
839.564	44.48
839.86	38.26
840.155	47.25
840.451	43.86
840.746	39.12
841.042	43.84
841.337	44.68
841.632	49.66
841.928	43.92
842.223	41.01
842.518	46.35
842.813	43.98
843.108	39.5
843.403	41.9
843.698	43.76
843.993	43.88
844.287	44.18
844.582	41.09
844.877	45.85
845.171	46.67
845.466	40.35
845.761	35.57
846.055	42.79
846.349	37.01
846.644	31.96
846.938	27.31
847.232	52.99
847.526	51.93
847.82	33.71
848.114	43.27
848.408	47.79
848.702	42.51
848.996	37.86
849.29	57.63
849.584	30.58
849.877	38.82
850.171	61.29
850.465	41.69
850.758	36.14
851.052	65.17
851.345	64.18
851.638	45.7
851.932	24.04
852.225	33.56
852.518	35.17
852.811	16.89
853.104	29.7
853.397	57.18
853.69	30.22
853.983	23.73
854.276	26.76
854.569	27.56
854.861	41.37
855.154	57.05
855.447	59.28
855.739	50.61
856.032	28.97
856.324	33.22
856.616	34.84
856.909	40.76
857.201	56.06
857.493	23.55
857.785	17.84
858.077	12.65
858.369	10.25
858.661	41.7
858.953	44.92
859.245	54.49
859.537	42.64
859.829	30.39
860.12	48.14
860.412	34.61
860.703	33.92
860.995	32.7
861.286	47.75
861.578	43.99
861.869	54.48
862.16	20.73
862.452	55.98
862.743	70.59
863.034	30.71
863.325	33.41
863.616	47.89
863.907	56.12
864.198	32.13
864.488	26.53
864.779	30.26
865.07	26.05
865.36	44.46
865.651	33.48
865.941	50.1
866.232	35.25
866.522	34.67
866.813	42.55
867.103	25.16
867.393	16.96
867.683	35.47
867.973	33.21
868.263	28.18
868.553	55.46
868.843	22.07
869.133	37.9
869.423	35.79
869.713	73.81
870.002	0.21
870.292	24.65
870.582	44.46
870.871	38.32
871.161	33.66
871.45	44.39
871.739	16.15
872.029	75.43
872.318	13.38
872.607	65.95
872.896	63.49
873.185	26.59
873.474	38.08
873.763	47.11
874.052	39.39
874.341	-20.94
874.63	32.78
874.918	36.82
875.207	32.32
875.496	51.34
875.784	35.51
876.073	40.97
876.361	72.44
876.649	41.81
876.938	23.05
877.226	37.76
877.514	-7.95
877.802	40.46
878.09	34.35
878.378	30.16
878.666	17.74
878.954	55.1
879.242	21.98
879.53	78.46
879.817	47.69
880.105	1.35
880.392	15.45
880.68	57.44
880.967	20.84
881.255	16.66
881.542	30.13
881.83	41.79
882.117	40.36
882.404	55.96
882.691	19.5
882.978	35.47
883.265	42.51
883.552	36.27
883.839	44.89
884.126	36.78
884.413	47.29
884.699	47.58
884.986	37.65
885.273	43.53
885.559	43.53
885.846	43.53
