Data from 20-50_forehead_Reflection__2__42.txt Node

Date: Thu Feb 29 22:11:21 CST 2024
User: ToomeyLab
Spectrometer: FLMS14357
Trigger mode: 0
Integration Time (sec): 1.000000E-2
Scans to average: 100
Electric dark correction enabled: true
Nonlinearity correction enabled: false
Boxcar width: 0
XAxis mode: Wavelengths
Number of Pixels in Spectrum: 2048
>>>>>Begin Spectral Data<<<<<
189.047	21.85
189.435	21.85
189.823	21.85
190.211	-230.04
190.599	15.88
190.987	9.96
191.375	88.34
191.763	-42.14
192.151	135.93
192.538	-1707.77
192.926	99.66
193.314	-116.64
193.702	86.76
194.089	67.46
194.477	48.2
194.864	140.98
195.252	17.59
195.639	1354.17
196.027	61.22
196.414	199.07
196.801	104.44
197.189	76.06
197.576	-16.25
197.963	-244.76
198.351	2.93
198.738	18.62
199.125	-4.19
199.512	34.6
199.899	13.32
200.286	-2.07
200.673	19.46
201.06	9.12
201.447	27.55
201.833	38.7
202.22	22.62
202.607	10.77
202.994	-32.41
203.38	-0.53
203.767	7.79
204.154	46.05
204.54	10.74
204.927	-1.46
205.313	42.25
205.699	-10.54
206.086	-0.97
206.472	10.22
206.858	22.98
207.245	18.67
207.631	16.23
208.017	27.2
208.403	-11.36
208.789	11.71
209.175	-56.56
209.561	-0.53
209.947	13.14
210.333	21.79
210.719	35.42
211.105	-8.93
211.491	-1.41
211.876	5.25
212.262	39.12
212.648	3.93
213.034	44.06
213.419	17.38
213.805	-7.27
214.19	0.12
214.576	-8.76
214.961	26.38
215.346	12.61
215.732	2.68
216.117	-57.27
216.502	19.85
216.888	-39.97
217.273	11.14
217.658	18.22
218.043	41.41
218.428	-3.43
218.813	-11.21
219.198	15.49
219.583	-7.63
219.968	-5.61
220.353	-29.66
220.738	11.06
221.122	-1.61
221.507	21.72
221.892	15.59
222.276	13.99
222.661	0.81
223.046	6.38
223.43	-9.77
223.815	-4.79
224.199	1.24
224.583	1.38
224.968	1.84
225.352	3.73
225.736	6.93
226.121	3.96
226.505	8.21
226.889	3.89
227.273	1.35
227.657	-4.39
228.041	5.94
228.425	5.81
228.809	7.73
229.193	4.12
229.577	5.61
229.961	4.11
230.344	4.59
230.728	4.9
231.112	5.78
231.495	4.54
231.879	5.49
232.263	5.3
232.646	5.65
233.03	5.73
233.413	4.5
233.797	5.48
234.18	4.91
234.563	3.15
234.946	3.97
235.33	5.51
235.713	4.98
236.096	6.09
236.479	7.19
236.862	7.09
237.245	5.62
237.628	4.77
238.011	6.28
238.394	4.55
238.777	5.47
239.16	4.48
239.543	6.36
239.925	5.26
240.308	6.37
240.691	6.2
241.073	5.5
241.456	5.51
241.838	5.1
242.221	4.41
242.603	5.61
242.986	5.46
243.368	5.23
243.75	5.73
244.133	4.99
244.515	5.17
244.897	5.73
245.279	5.84
245.661	5.1
246.043	4.13
246.425	6.99
246.807	6.2
247.189	6.1
247.571	5.44
247.953	5.66
248.335	5.29
248.717	5.64
249.098	5.64
249.48	5.48
249.862	5.47
250.243	5.4
250.625	5.71
251.006	5.26
251.388	6.14
251.769	6.43
252.151	6.85
252.532	6.26
252.913	5.09
253.295	5.9
253.676	6.11
254.057	5.74
254.438	6.2
254.819	6.31
255.2	4.83
255.581	5.73
255.962	6.15
256.343	5.35
256.724	5.64
257.105	6.41
257.486	5.52
257.867	6.89
258.247	6.05
258.628	5.16
259.009	5.32
259.389	5.2
259.77	5.23
260.15	6.04
260.531	5.7
260.911	5.19
261.292	5.47
261.672	5.78
262.052	5.47
262.432	5.65
262.813	5.17
263.193	5.58
263.573	5.96
263.953	5.73
264.333	5.81
264.713	5.74
265.093	6.01
265.473	5.46
265.853	5.92
266.233	5.13
266.612	5.99
266.992	5.13
267.372	5.59
267.752	4.8
268.131	5.6
268.511	5.89
268.89	5.79
269.27	5.95
269.649	4.9
270.029	4.78
270.408	5.63
270.787	5.1
271.167	6.03
271.546	6.08
271.925	5.46
272.304	5.3
272.683	5.53
273.062	4.93
273.441	5.44
273.82	5.22
274.199	5.58
274.578	4.84
274.957	5.49
275.336	5.58
275.715	5.31
276.093	5.25
276.472	6.36
276.851	5.59
277.229	5.45
277.608	5.32
277.986	5.02
278.365	5.12
278.743	5.03
279.122	5.29
279.5	5.34
279.878	5.41
280.257	5.52
280.635	5.06
281.013	5.49
281.391	5.16
281.769	5.15
282.147	5.76
282.525	6.04
282.903	5.14
283.281	4.97
283.659	5.67
284.037	4.95
284.415	5.03
284.792	5.06
285.17	5.13
285.548	5.91
285.925	5.31
286.303	5.61
286.68	5.22
287.058	5.49
287.435	5.4
287.813	5.53
288.19	5.24
288.567	5.31
288.945	5.38
289.322	5.72
289.699	5.43
290.076	5.91
290.453	5.03
290.83	5.59
291.207	5.4
291.584	5.41
291.961	5.3
292.338	6.11
292.715	5.65
293.092	5.64
293.469	6.16
293.845	5.93
294.222	5.53
294.599	5.17
294.975	6.05
295.352	6.18
295.728	6.22
296.105	5.67
296.481	5.87
296.858	6.06
297.234	5.88
297.61	6.19
297.986	6.27
298.363	6.31
298.739	6.2
299.115	6.52
299.491	6.34
299.867	6.43
300.243	6.66
300.619	6.84
300.995	7.17
301.371	6.31
301.746	6.46
302.122	6.93
302.498	6.94
302.874	6.66
303.249	6.96
303.625	7.1
304	7.16
304.376	7.35
304.751	6.95
305.127	7.11
305.502	6.95
305.878	7.79
306.253	7.08
306.628	6.99
307.003	7.64
307.378	7.7
307.754	8.29
308.129	8.05
308.504	8.05
308.879	7.7
309.254	7.8
309.629	7.92
310.003	8.2
310.378	7.26
310.753	7.54
311.128	8.34
311.502	8.32
311.877	8.05
312.252	8.44
312.626	8.42
313.001	8.45
313.375	8.97
313.75	8.24
314.124	9
314.498	8.74
314.873	8.45
315.247	8.57
315.621	9.63
315.995	9.59
316.369	9.04
316.743	9.19
317.117	9.01
317.491	9.06
317.865	9.43
318.239	9.41
318.613	9.83
318.987	9.82
319.361	8.93
319.734	9.67
320.108	10.59
320.482	8.9
320.855	10.31
321.229	10.16
321.602	9.88
321.976	10.31
322.349	9.92
322.723	10.68
323.096	10.41
323.469	9.99
323.843	9.32
324.216	10.96
324.589	10.15
324.962	9.88
325.335	10.07
325.708	10.64
326.081	10.36
326.454	11.07
326.827	10.29
327.2	10.79
327.573	11.19
327.945	11.3
328.318	10.54
328.691	11.03
329.063	11.17
329.436	10.69
329.809	11.15
330.181	11.75
330.553	11.12
330.926	11.31
331.298	10.5
331.671	10.86
332.043	11.48
332.415	11.78
332.787	11.19
333.159	11.73
333.532	11.67
333.904	11.41
334.276	11.63
334.648	11.41
335.02	11.34
335.391	11.58
335.763	11.12
336.135	11.14
336.507	11.48
336.879	11.84
337.25	11.97
337.622	12.05
337.993	11.75
338.365	11.83
338.736	12.22
339.108	12.52
339.479	12.28
339.851	11.75
340.222	12.23
340.593	12.22
340.964	12.3
341.336	11.5
341.707	12.42
342.078	11.8
342.449	12.25
342.82	12.53
343.191	12.33
343.562	12.36
343.933	12.32
344.303	12.2
344.674	12.31
345.045	12.29
345.416	12.56
345.786	12.42
346.157	12.82
346.527	12.75
346.898	12.88
347.268	12.37
347.639	12.62
348.009	12.89
348.38	12.76
348.75	12.91
349.12	13.12
349.49	13.27
349.861	12.8
350.231	13.02
350.601	13.16
350.971	12.86
351.341	13.15
351.711	13.79
352.081	13.25
352.45	12.51
352.82	12.58
353.19	13.53
353.56	13.65
353.929	13.42
354.299	13.25
354.669	13.13
355.038	13.42
355.408	13.42
355.777	13.72
356.147	13.26
356.516	13.89
356.885	13.55
357.254	13.29
357.624	13.8
357.993	13.83
358.362	13.55
358.731	13.9
359.1	13.94
359.469	14.05
359.838	13.52
360.207	13.83
360.576	13.93
360.945	13.58
361.314	13.96
361.682	13.73
362.051	14.21
362.42	14.19
362.788	13.96
363.157	13.75
363.525	13.75
363.894	14.15
364.262	13.61
364.631	14.02
364.999	14.04
365.367	14.31
365.735	14.16
366.104	14.33
366.472	13.97
366.84	14.42
367.208	14.56
367.576	14.46
367.944	14.42
368.312	14.44
368.68	14.45
369.048	14.52
369.416	14.34
369.783	14.43
370.151	15.04
370.519	14.92
370.886	14.46
371.254	14.82
371.621	14.92
371.989	14.43
372.356	14.6
372.724	14.99
373.091	15.08
373.458	14.77
373.826	15.38
374.193	15.39
374.56	14.93
374.927	14.8
375.294	14.74
375.661	15.37
376.028	15.28
376.395	15.54
376.762	15.52
377.129	14.93
377.496	15.4
377.863	15.03
378.229	15.39
378.596	15.57
378.963	15.38
379.329	15.49
379.696	15.03
380.062	15.44
380.429	15.45
380.795	15.67
381.161	15.69
381.528	15.53
381.894	15.4
382.26	15.1
382.626	15.81
382.993	15.63
383.359	15.67
383.725	15.48
384.091	16
384.457	15.62
384.823	15.75
385.188	15.59
385.554	15.59
385.92	15.83
386.286	15.52
386.651	15.75
387.017	15.62
387.383	15.68
387.748	15.89
388.114	15.82
388.479	16.15
388.845	15.66
389.21	15.78
389.575	15.94
389.94	15.93
390.306	15.79
390.671	15.94
391.036	16.09
391.401	15.76
391.766	15.91
392.131	15.77
392.496	15.9
392.861	16.04
393.226	16.3
393.591	16.12
393.956	16.2
394.32	16.07
394.685	16.05
395.05	16.22
395.414	16.14
395.779	16.25
396.143	16.28
396.508	16.25
396.872	16.41
397.236	16.3
397.601	16.42
397.965	16.24
398.329	16.18
398.694	16.13
399.058	16.36
399.422	16.11
399.786	16.26
400.15	16
400.514	16.38
400.878	15.97
401.242	16.12
401.605	16.16
401.969	16.48
402.333	15.96
402.697	16.22
403.06	16.54
403.424	16.62
403.787	16.45
404.151	16.52
404.514	16.41
404.878	16.49
405.241	16.5
405.604	16.28
405.968	16.38
406.331	16.32
406.694	16.35
407.057	16.33
407.42	16.42
407.783	16.53
408.146	16.63
408.509	16.68
408.872	16.65
409.235	16.59
409.598	16.75
409.961	16.61
410.323	16.55
410.686	16.59
411.049	16.3
411.411	16.24
411.774	16.64
412.136	16.58
412.499	16.39
412.861	16.7
413.223	16.77
413.586	16.59
413.948	16.66
414.31	17.01
414.672	16.88
415.035	16.76
415.397	16.49
415.759	16.82
416.121	17.29
416.483	17.11
416.845	17.14
417.206	16.97
417.568	16.92
417.93	17.18
418.292	17.24
418.653	17.22
419.015	17.4
419.377	17.22
419.738	17.2
420.1	17.14
420.461	17.41
420.822	17.3
421.184	17.37
421.545	17.34
421.906	17.47
422.267	17.42
422.629	17.32
422.99	17.64
423.351	17.54
423.712	17.79
424.073	17.59
424.434	17.76
424.795	18.01
425.155	17.9
425.516	17.99
425.877	17.98
426.238	18.07
426.598	18.13
426.959	18.15
427.32	18.44
427.68	18.39
428.041	18.44
428.401	18.62
428.761	18.66
429.122	18.8
429.482	18.85
429.842	18.96
430.202	18.93
430.563	19.05
430.923	19.49
431.283	18.91
431.643	19.35
432.003	19.57
432.363	19.37
432.722	19.48
433.082	19.37
433.442	19.48
433.802	19.58
434.161	19.72
434.521	19.54
434.881	19.91
435.24	19.92
435.6	19.64
435.959	20.1
436.319	19.85
436.678	19.84
437.037	20.03
437.396	20.16
437.756	20.24
438.115	20.44
438.474	20.44
438.833	20.55
439.192	20.49
439.551	20.82
439.91	20.58
440.269	20.53
440.628	20.66
440.987	20.74
441.345	20.69
441.704	20.72
442.063	20.84
442.421	20.72
442.78	20.81
443.138	20.85
443.497	20.82
443.855	20.99
444.214	21.08
444.572	21.38
444.93	21.25
445.288	21.34
445.647	21.17
446.005	21.37
446.363	21.2
446.721	21.2
447.079	21.32
447.437	21.38
447.795	21.49
448.153	21.33
448.51	21.29
448.868	21.46
449.226	21.56
449.584	21.57
449.941	21.67
450.299	21.9
450.656	21.89
451.014	22.03
451.371	22.14
451.729	22.3
452.086	22.1
452.443	22.18
452.801	22.42
453.158	22.46
453.515	22.3
453.872	22.38
454.229	22.38
454.586	22.32
454.943	22.73
455.3	22.76
455.657	22.85
456.014	22.9
456.371	22.81
456.727	22.69
457.084	22.96
457.441	23.03
457.797	22.98
458.154	23.21
458.51	23.3
458.867	23.14
459.223	22.94
459.58	23.31
459.936	23.23
460.292	23.03
460.648	23.18
461.005	23.18
461.361	23.16
461.717	23.11
462.073	23.28
462.429	23.38
462.785	23.4
463.141	23.69
463.496	23.63
463.852	23.79
464.208	23.91
464.564	24.15
464.919	24.1
465.275	24.05
465.631	24.03
465.986	24.44
466.342	24.09
466.697	24.04
467.052	23.95
467.408	24.41
467.763	24.47
468.118	24.32
468.473	24.4
468.829	24.56
469.184	24.51
469.539	24.77
469.894	24.66
470.249	24.72
470.603	24.67
470.958	24.92
471.313	24.8
471.668	25.11
472.023	25.06
472.377	24.95
472.732	25.15
473.086	24.98
473.441	25.05
473.795	25.01
474.15	24.97
474.504	25.26
474.859	25.27
475.213	25.23
475.567	25.37
475.921	25.8
476.275	25.33
476.63	25.52
476.984	25.66
477.338	25.57
477.692	25.75
478.045	25.64
478.399	25.68
478.753	25.62
479.107	25.68
479.461	25.86
479.814	25.73
480.168	25.65
480.521	25.85
480.875	25.99
481.228	25.97
481.582	26.17
481.935	26.29
482.289	26.09
482.642	26.02
482.995	26.06
483.348	25.95
483.701	25.87
484.055	25.96
484.408	26.01
484.761	25.73
485.114	25.33
485.466	25.2
485.819	25.31
486.172	25.43
486.525	25.66
486.878	25.73
487.23	25.86
487.583	26.11
487.936	26.15
488.288	26.11
488.641	26.02
488.993	25.91
489.345	25.98
489.698	25.97
490.05	26.22
490.402	26.22
490.754	26.41
491.107	26.58
491.459	26.8
491.811	26.91
492.163	26.79
492.515	26.84
492.866	26.65
493.218	26.47
493.57	26.57
493.922	26.68
494.274	26.93
494.625	27.09
494.977	27.26
495.328	27.39
495.68	27.58
496.031	27.72
496.383	27.83
496.734	27.9
497.086	27.86
497.437	27.99
497.788	27.99
498.139	27.89
498.49	27.99
498.842	28
499.193	27.98
499.544	27.96
499.894	28.18
500.245	28.12
500.596	28.21
500.947	28.21
501.298	28.46
501.648	28.53
501.999	28.7
502.35	28.56
502.7	28.62
503.051	28.78
503.401	28.76
503.752	28.64
504.102	29.2
504.452	28.77
504.803	29.07
505.153	28.95
505.503	29.18
505.853	29.17
506.203	29.02
506.553	28.96
506.903	29.04
507.253	29.24
507.603	29.44
507.953	29.5
508.303	29.32
508.652	29.38
509.002	29.32
509.352	29.36
509.701	29.43
510.051	29.51
510.4	29.66
510.75	29.34
511.099	29.55
511.449	29.43
511.798	29.56
512.147	29.6
512.496	29.74
512.846	29.69
513.195	29.71
513.544	29.88
513.893	29.81
514.242	29.8
514.591	29.84
514.939	30.06
515.288	30.12
515.637	30.17
515.986	30.3
516.334	30.04
516.683	30.2
517.032	30.43
517.38	30.5
517.729	30.36
518.077	30.5
518.426	30.4
518.774	30.44
519.122	30.55
519.47	30.35
519.819	30.37
520.167	30.23
520.515	30.25
520.863	30.2
521.211	30.48
521.559	30.46
521.907	30.81
522.255	30.75
522.602	30.86
522.95	30.99
523.298	30.88
523.645	31.17
523.993	30.99
524.341	31.19
524.688	31.24
525.036	31.21
525.383	31.39
525.73	31.32
526.078	31.35
526.425	31.3
526.772	31.05
527.119	31.02
527.466	30.94
527.814	31.08
528.161	31.15
528.508	31.07
528.854	31.13
529.201	31.2
529.548	30.98
529.895	30.75
530.242	30.59
530.588	30.71
530.935	30.85
531.282	30.93
531.628	31.12
531.975	31.26
532.321	31.55
532.667	31.75
533.014	31.94
533.36	31.96
533.706	32.08
534.052	31.88
534.399	31.84
534.745	31.5
535.091	31.52
535.437	31.8
535.783	31.81
536.129	32.02
536.474	32.13
536.82	32.25
537.166	32.45
537.512	32.58
537.857	32.62
538.203	32.49
538.549	32.41
538.894	32.54
539.239	32.72
539.585	32.77
539.93	32.79
540.276	33.02
540.621	33.11
540.966	33.09
541.311	33.18
541.656	33.19
542.001	33.08
542.346	32.95
542.691	32.6
543.036	32.73
543.381	32.54
543.726	32.9
544.071	33.01
544.415	33.01
544.76	33.23
545.105	33.16
545.449	33.4
545.794	33.46
546.138	33.69
546.483	33.6
546.827	33.93
547.171	33.77
547.516	34.06
547.86	33.99
548.204	34.02
548.548	33.73
548.892	33.88
549.236	34.02
549.58	34.35
549.924	34.32
550.268	34.52
550.612	34.73
550.956	34.48
551.3	34.93
551.643	34.95
551.987	34.82
552.33	35.06
552.674	35.26
553.017	35.04
553.361	35.13
553.704	35.25
554.048	35.06
554.391	35.17
554.734	35.04
555.077	35.28
555.42	35.36
555.764	35.43
556.107	35.65
556.45	35.7
556.793	35.69
557.135	35.83
557.478	35.92
557.821	35.92
558.164	35.89
558.507	35.99
558.849	35.78
559.192	35.82
559.534	36.1
559.877	36.31
560.219	36.27
560.562	36.04
560.904	36.54
561.246	36.43
561.589	36.82
561.931	36.61
562.273	36.53
562.615	36.52
562.957	36.71
563.299	36.63
563.641	36.37
563.983	36.37
564.325	36.59
564.667	36.88
565.008	36.87
565.35	36.87
565.692	36.99
566.033	37.14
566.375	37.09
566.716	37.09
567.058	37.61
567.399	37.26
567.741	36.91
568.082	37.07
568.423	37.08
568.764	37.18
569.105	37.2
569.447	37.39
569.788	37.36
570.129	37.45
570.47	37.69
570.811	37.68
571.151	37.71
571.492	37.64
571.833	37.9
572.174	37.73
572.514	38
572.855	37.84
573.195	37.79
573.536	37.73
573.876	37.84
574.217	37.75
574.557	38.02
574.898	38.24
575.238	38.25
575.578	38.43
575.918	38.5
576.258	38.38
576.598	38.33
576.938	38.57
577.278	38.63
577.618	38.59
577.958	38.82
578.298	38.85
578.638	39.14
578.977	38.92
579.317	38.99
579.657	38.98
579.996	39.38
580.336	39.31
580.675	39.21
581.014	39.42
581.354	39.61
581.693	39.52
582.032	39.67
582.372	39.93
582.711	39.6
583.05	39.82
583.389	40.02
583.728	39.73
584.067	39.86
584.406	40.32
584.745	40.04
585.083	39.84
585.422	40.03
585.761	40.04
586.1	40.29
586.438	40.5
586.777	40.17
587.115	40.09
587.454	40.24
587.792	40.37
588.13	40.86
588.469	40.57
588.807	40.74
589.145	40.85
589.483	40.66
589.821	41
590.159	41.09
590.497	41.06
590.835	40.87
591.173	41.24
591.511	41.15
591.849	41.11
592.187	41.16
592.524	41.21
592.862	41.36
593.2	41.23
593.537	41.49
593.875	41.2
594.212	41.42
594.55	41.91
594.887	41.68
595.224	41.64
595.561	41.78
595.899	41.97
596.236	41.82
596.573	41.87
596.91	41.99
597.247	41.96
597.584	41.73
597.921	41.73
598.258	41.86
598.594	41.4
598.931	41.97
599.268	42.06
599.604	42.1
599.941	42.27
600.277	42.13
600.614	42.56
600.95	42.42
601.287	42.56
601.623	42.85
601.959	42.47
602.296	42.8
602.632	42.88
602.968	42.72
603.304	42.21
603.64	42.81
603.976	43.04
604.312	43.46
604.648	42.89
604.984	43.17
605.319	42.8
605.655	42.95
605.991	42.94
606.326	42.95
606.662	43.23
606.998	43.18
607.333	43.07
607.668	43.32
608.004	43.8
608.339	43.68
608.674	43.66
609.01	43.76
609.345	43.76
609.68	43.62
610.015	43.54
610.35	43.61
610.685	43.9
611.02	44.05
611.355	44.01
611.689	43.92
612.024	44.09
612.359	44.35
612.694	44.35
613.028	43.89
613.363	44.47
613.697	44.14
614.032	44.6
614.366	44.55
614.7	44.61
615.035	44.66
615.369	44.34
615.703	45.28
616.037	44.62
616.371	45.55
616.705	45.3
617.039	45.52
617.373	45.35
617.707	45.2
618.041	44.84
618.375	45.59
618.709	45.35
619.042	45.08
619.376	44.94
619.71	45.23
620.043	45.43
620.377	45.78
620.71	45.67
621.043	45.91
621.377	45.67
621.71	46.18
622.043	46.03
622.376	46.01
622.709	46.32
623.043	46.06
623.376	46.15
623.709	46.18
624.041	46.05
624.374	46.08
624.707	46.57
625.04	46.35
625.373	46.66
625.705	46.5
626.038	46.48
626.37	46.19
626.703	46.06
627.035	46.76
627.368	46.73
627.7	47.04
628.032	46.57
628.365	46.78
628.697	46.65
629.029	46.84
629.361	46.4
629.693	46.75
630.025	47.04
630.357	47.54
630.689	47.24
631.021	47.64
631.353	47.37
631.684	47.69
632.016	47.16
632.348	47.29
632.679	47.6
633.011	47.39
633.342	47.22
633.674	47.57
634.005	47.95
634.336	47.32
634.668	47.44
634.999	48.05
635.33	48.09
635.661	47.81
635.992	47.82
636.323	48.2
636.654	48.17
636.985	47.87
637.316	48.31
637.647	48.26
637.977	47.98
638.308	48.79
638.639	48.76
638.969	48.18
639.3	48.95
639.63	48.41
639.961	48.28
640.291	48.52
640.622	48.61
640.952	47.56
641.282	48.5
641.612	49.41
641.943	49.37
642.273	49.14
642.603	49.1
642.933	48.92
643.263	49.31
643.592	49.22
643.922	49.58
644.252	49.29
644.582	49.32
644.911	49.1
645.241	49.2
645.571	49.63
645.9	49.79
646.23	49.88
646.559	49.99
646.888	49.55
647.218	49.88
647.547	49.48
647.876	50.43
648.205	49.77
648.534	49.81
648.863	50.3
649.192	50.42
649.521	50.27
649.85	51.01
650.179	50
650.508	50.23
650.837	49.95
651.165	50.46
651.494	50.69
651.822	50.56
652.151	50.59
652.479	50.36
652.808	50.93
653.136	50.67
653.465	50.32
653.793	50.75
654.121	50.59
654.449	51.58
654.777	51.11
655.105	50.89
655.433	50.92
655.761	51.29
656.089	51.33
656.417	51.41
656.745	51.16
657.073	51.34
657.4	52.38
657.728	51.34
658.056	51.9
658.383	51.03
658.711	52.23
659.038	51.13
659.365	51.76
659.693	51.21
660.02	52.1
660.347	51.84
660.674	51.62
661.001	51.7
661.329	51.95
661.656	51.94
661.982	52.22
662.309	52.28
662.636	52.12
662.963	52.22
663.29	52.37
663.616	53.04
663.943	52.2
664.27	53.52
664.596	52.88
664.923	52.81
665.249	52.46
665.576	52.73
665.902	53.03
666.228	53.74
666.554	53.16
666.881	52.9
667.207	53.26
667.533	53.55
667.859	52.94
668.185	53.46
668.511	52.59
668.837	53
669.162	52.93
669.488	52.94
669.814	53.44
670.139	53.4
670.465	53.49
670.791	53.39
671.116	53.27
671.442	53.35
671.767	53.45
672.092	54.14
672.418	53.69
672.743	54.53
673.068	53.83
673.393	53.85
673.718	53.68
674.043	53.65
674.368	53.63
674.693	54.32
675.018	53.72
675.343	54.29
675.667	53.7
675.992	54.46
676.317	54.45
676.641	54.12
676.966	54.74
677.29	54.86
677.615	54.78
677.939	54.39
678.264	54.48
678.588	55.07
678.912	54.82
679.236	54.29
679.56	55.31
679.885	55.02
680.209	54.77
680.532	55.48
680.856	55.64
681.18	55.08
681.504	55.21
681.828	55.04
682.152	55.25
682.475	55.72
682.799	55.64
683.122	55.93
683.446	55.77
683.769	55.61
684.093	55.73
684.416	55.84
684.739	55.99
685.062	55.78
685.386	56.35
685.709	56.09
686.032	55.49
686.355	56.33
686.678	56.89
687.001	55.57
687.324	55.57
687.646	57.07
687.969	56.22
688.292	56.68
688.614	56.69
688.937	55.67
689.26	56.35
689.582	57.04
689.904	56.69
690.227	56.3
690.549	56.11
690.871	57.28
691.194	55.77
691.516	56.25
691.838	56.73
692.16	57.21
692.482	56.68
692.804	56.73
693.126	56.49
693.448	56.74
693.769	56.85
694.091	56.55
694.413	56.16
694.735	57.8
695.056	57.37
695.378	56.68
695.699	57.08
696.021	56.24
696.342	56.35
696.663	57.39
696.984	57.76
697.306	58.27
697.627	57.02
697.948	57.47
698.269	57.95
698.59	58.41
698.911	58.25
699.232	57.98
699.553	57.23
699.873	58.67
700.194	57.75
700.515	57.76
700.835	58.37
701.156	57.9
701.477	58.15
701.797	58.07
702.117	57.43
702.438	57.78
702.758	58.79
703.078	58.7
703.398	58.56
703.719	59.4
704.039	59.53
704.359	58.52
704.679	58.68
704.999	57.5
705.319	59
705.638	58.42
705.958	58.22
706.278	58.37
706.597	58.58
706.917	58.8
707.237	59.53
707.556	59.87
707.876	58.78
708.195	59.45
708.514	59.06
708.834	58.83
709.153	59.08
709.472	59.85
709.791	59.66
710.11	59.84
710.429	59.64
710.748	59.32
711.067	59.26
711.386	59.96
711.705	60.54
712.023	59.17
712.342	58.48
712.661	59.87
712.979	59.44
713.298	60.41
713.616	59.95
713.935	58.86
714.253	59.27
714.572	58.64
714.89	60.06
715.208	60.29
715.526	59.8
715.844	60.87
716.162	59.32
716.48	60.3
716.798	61.07
717.116	60.33
717.434	60.37
717.752	59.19
718.069	60.03
718.387	60.31
718.705	60.51
719.022	60.11
719.34	62.07
719.657	60.82
719.975	60.55
720.292	60.27
720.609	59.72
720.927	61.82
721.244	60.59
721.561	62.27
721.878	59.95
722.195	60.39
722.512	60.91
722.829	61.57
723.146	61.2
723.463	61.1
723.779	60.3
724.096	60.23
724.413	62.14
724.729	61.38
725.046	57.84
725.362	61.08
725.679	62.73
725.995	61.54
726.311	61.18
726.628	61.56
726.944	62.01
727.26	60.46
727.576	62.37
727.892	60.22
728.208	61.32
728.524	61.27
728.84	60.41
729.156	60.51
729.472	60.7
729.787	62.12
730.103	62.48
730.419	60.27
730.734	61.71
731.05	61.76
731.365	63.36
731.681	63.07
731.996	62.1
732.311	61.46
732.626	61.62
732.942	63.33
733.257	60.64
733.572	62.89
733.887	61.97
734.202	63.38
734.517	62.82
734.832	60.63
735.146	63.84
735.461	63.28
735.776	60.39
736.091	60.85
736.405	61.93
736.72	62.97
737.034	60.82
737.349	61.78
737.663	61.36
737.977	63.79
738.292	61.67
738.606	62.69
738.92	63.79
739.234	61.76
739.548	60.9
739.862	62.32
740.176	61.97
740.49	64.56
740.804	63.24
741.117	64.56
741.431	64.32
741.745	61.97
742.058	61.73
742.372	62.18
742.685	61.93
742.999	63.44
743.312	61.17
743.626	62.08
743.939	62.85
744.252	63.45
744.565	62.64
744.878	62.7
745.191	63.76
745.505	60.24
745.817	63.35
746.13	60.87
746.443	65.43
746.756	61.04
747.069	62.46
747.381	61.57
747.694	62.5
748.007	62.96
748.319	63.29
748.632	61.41
748.944	63.61
749.256	63.37
749.569	60.98
749.881	62.64
750.193	61.98
750.505	63.77
750.817	63.5
751.129	64.48
751.441	61.75
751.753	64.52
752.065	63.87
752.377	65.2
752.689	64.32
753	63.48
753.312	64.76
753.624	63.02
753.935	65.35
754.247	64.12
754.558	63.63
754.869	64.21
755.181	61.76
755.492	62.84
755.803	63.23
756.114	63.43
756.425	64.44
756.736	63.25
757.047	66.41
757.358	65.22
757.669	64.94
757.98	64.89
758.291	62.55
758.601	64.28
758.912	65.48
759.223	63.57
759.533	64.32
759.844	64.53
760.154	64.31
760.464	64.35
760.775	63.88
761.085	65.08
761.395	64.47
761.705	64.04
762.016	66.33
762.326	67.27
762.636	67.19
762.945	65.34
763.255	65.23
763.565	65.61
763.875	66.49
764.185	66.46
764.494	64.6
764.804	65
765.113	65.83
765.423	64.78
765.732	66.43
766.042	67.22
766.351	65.54
766.66	66.5
766.97	65.3
767.279	66.51
767.588	67.72
767.897	66.27
768.206	65.23
768.515	64.77
768.824	63.17
769.133	68.41
769.441	64.04
769.75	66.21
770.059	64.23
770.367	62.87
770.676	64.03
770.984	63.94
771.293	64.99
771.601	67.89
771.91	66.18
772.218	63.98
772.526	63.48
772.834	67.12
773.142	64.92
773.45	67.01
773.758	62.69
774.066	66.67
774.374	63.75
774.682	66.74
774.99	66.34
775.298	65.23
775.605	65.31
775.913	67.94
776.22	64.8
776.528	67.41
776.835	65.35
777.143	64.97
777.45	62.29
777.757	64.25
778.065	61.86
778.372	64.3
778.679	67.55
778.986	65.12
779.293	65.48
779.6	64.49
779.907	68.04
780.214	66.39
780.52	66.68
780.827	65.19
781.134	66.92
781.44	66.3
781.747	67.62
782.053	69.6
782.36	69.51
782.666	67.47
782.973	66.92
783.279	69.06
783.585	68.41
783.891	64.59
784.197	61.74
784.503	64.64
784.809	68.77
785.115	68.95
785.421	68.54
785.727	64.65
786.033	65.43
786.339	68.56
786.644	69.17
786.95	63.19
787.255	61.79
787.561	69.37
787.866	69.1
788.172	64.63
788.477	64.7
788.782	65.09
789.088	63.87
789.393	66.17
789.698	67.91
790.003	67.13
790.308	69.59
790.613	71.58
790.918	66.72
791.223	71.59
791.527	67.65
791.832	67.18
792.137	72.97
792.441	68.05
792.746	70.47
793.05	66.32
793.355	65.57
793.659	66.79
793.963	66.29
794.268	65.01
794.572	65.45
794.876	65.88
795.18	69.26
795.484	66.32
795.788	68.67
796.092	63.5
796.396	68.51
796.7	66.08
797.004	60.67
797.307	69.55
797.611	67.41
797.915	67.7
798.218	61.9
798.522	62.56
798.825	72.19
799.128	68.22
799.432	70.26
799.735	70.79
800.038	64.48
800.341	67.56
800.644	66.19
800.947	65
801.25	70.12
801.553	64.01
801.856	59.89
802.159	66.58
802.462	65.33
802.764	66.61
803.067	69.84
803.37	70.64
803.672	68.77
803.975	71.26
804.277	67.91
804.579	73.37
804.882	71.01
805.184	69.41
805.486	67.51
805.788	67.16
806.09	69.52
806.392	68.62
806.694	62.7
806.996	67.99
807.298	64.08
807.6	62.21
807.902	65.36
808.203	68.06
808.505	69.28
808.807	66.81
809.108	63
809.409	74.74
809.711	69.31
810.012	74.82
810.313	66.1
810.615	63.9
810.916	64.78
811.217	68.22
811.518	66.14
811.819	67.44
812.12	68.64
812.421	66.77
812.722	65.17
813.023	67.76
813.323	68.21
813.624	61.97
813.925	62.26
814.225	62.04
814.526	65.43
814.826	71.51
815.126	63.5
815.427	67.66
815.727	62.88
816.027	66.29
816.327	66.34
816.627	71.11
816.927	65.49
817.227	71.73
817.527	69.27
817.827	62.78
818.127	58.36
818.427	70.65
818.727	64.32
819.026	73.82
819.326	71.01
819.625	64.17
819.925	75.83
820.224	65.4
820.524	68.78
820.823	64.37
821.122	66.91
821.421	66.97
821.72	66.45
822.019	67.76
822.318	70
822.617	71.05
822.916	68.22
823.215	69.45
823.514	69.85
823.813	71.33
824.111	73.85
824.41	69.8
824.709	71.78
825.007	73.15
825.306	74.13
825.604	72.68
825.902	73.05
826.201	71.12
826.499	72.9
826.797	70.94
827.095	72.01
827.393	69.37
827.691	72.41
827.989	71.27
828.287	72.13
828.585	70.24
828.882	68.88
829.18	69.97
829.478	72.5
829.775	68.8
830.073	71.44
830.37	69.31
830.668	71.4
830.965	72.2
831.263	69.91
831.56	71.5
831.857	69.06
832.154	69.53
832.451	72.64
832.748	72.07
833.045	69.81
833.342	73.57
833.639	71.1
833.936	68.35
834.232	66.28
834.529	63.93
834.826	67.65
835.122	75.82
835.419	71.75
835.715	68.93
836.012	71.61
836.308	68.66
836.604	68.63
836.901	69.94
837.197	71.97
837.493	71.69
837.789	73.3
838.085	73.08
838.381	70.13
838.677	69.32
838.972	68.31
839.268	72.76
839.564	65.52
839.86	70.34
840.155	68.69
840.451	75.98
840.746	71.88
841.042	63.81
841.337	65.2
841.632	71.05
841.928	75.98
842.223	76.71
842.518	61.92
842.813	67.37
843.108	68.15
843.403	69.41
843.698	61.97
843.993	72.32
844.287	73.32
844.582	67.12
844.877	61.64
845.171	65.02
845.466	58.04
845.761	66.89
846.055	59.82
846.349	84.06
846.644	57.4
846.938	66.88
847.232	60.38
847.526	64.02
847.82	51.75
848.114	62.05
848.408	63.6
848.702	44.2
848.996	64.14
849.29	77.49
849.584	68.21
849.877	69.66
850.171	64.42
850.465	45.48
850.758	53.35
851.052	67.37
851.345	60.7
851.638	63.58
851.932	56.03
852.225	50.72
852.518	59.44
852.811	74.98
853.104	50.74
853.397	68.71
853.69	45.61
853.983	76.93
854.276	72.27
854.569	63.22
854.861	62.55
855.154	65.44
855.447	45.43
855.739	82.46
856.032	34.49
856.324	73.87
856.616	64.94
856.909	67.92
857.201	43.51
857.493	46.73
857.785	68.93
858.077	60.26
858.369	71.48
858.661	76.12
858.953	59.58
859.245	55.25
859.537	66.72
859.829	105.44
860.12	57.76
860.412	63.31
860.703	68.23
860.995	81.65
861.286	44.77
861.578	94.29
861.869	66.23
862.16	89.58
862.452	42.53
862.743	39.87
863.034	49.62
863.325	57.45
863.616	49.08
863.907	51.08
864.198	64.49
864.488	37.37
864.779	63.43
865.07	38.8
865.36	49.35
865.651	46.58
865.941	59.93
866.232	37.66
866.522	55.99
866.813	35.32
867.103	47.98
867.393	39.92
867.683	62.94
867.973	58.91
868.263	63.51
868.553	70.2
868.843	67.03
869.133	72.27
869.423	60.58
869.713	24.82
870.002	56.2
870.292	32.62
870.582	60.63
870.871	49.77
871.161	74.11
871.45	78.11
871.739	53.3
872.029	54.02
872.318	38.04
872.607	71.17
872.896	76.17
873.185	78.31
873.474	46.71
873.763	50.97
874.052	58.95
874.341	-8.33
874.63	96.44
874.918	54.49
875.207	47.5
875.496	62.42
875.784	64.1
876.073	43.45
876.361	66.88
876.649	45.87
876.938	73.59
877.226	45.54
877.514	88.93
877.802	48.19
878.09	71.22
878.378	49.55
878.666	73.04
878.954	55.57
879.242	71.68
879.53	58.23
879.817	96.87
880.105	31.62
880.392	74.72
880.68	41.71
880.967	98.2
881.255	48.69
881.542	33.07
881.83	111.37
882.117	66.41
882.404	67.8
882.691	54.92
882.978	70.61
883.265	36.1
883.552	72.76
883.839	65.47
884.126	62.58
884.413	60.85
884.699	69.68
884.986	69.42
885.273	69.37
885.559	69.37
885.846	69.37
