Data from 20-50_forehead_Reflection__0__40.txt Node

Date: Thu Feb 29 22:11:01 CST 2024
User: ToomeyLab
Spectrometer: FLMS14357
Trigger mode: 0
Integration Time (sec): 1.000000E-2
Scans to average: 100
Electric dark correction enabled: true
Nonlinearity correction enabled: false
Boxcar width: 0
XAxis mode: Wavelengths
Number of Pixels in Spectrum: 2048
>>>>>Begin Spectral Data<<<<<
189.047	-42.6
189.435	-42.6
189.823	-42.6
190.211	56.72
190.599	48.63
190.987	9.93
191.375	-61.82
191.763	-125.09
192.151	108.91
192.538	-1254.05
192.926	129.41
193.314	-93.05
193.702	109.47
194.089	106.87
194.477	0.78
194.864	50.43
195.252	-30.05
195.639	1066.67
196.027	102.13
196.414	176.87
196.801	-246.45
197.189	90.72
197.576	-30.62
197.963	-363.49
198.351	59.13
198.738	22.15
199.125	-60.31
199.512	81.98
199.899	-24.62
200.286	-33.3
200.673	43.56
201.06	10.7
201.447	-70.09
201.833	40.69
202.22	-8.7
202.607	-45.4
202.994	-71.54
203.38	-89.8
203.767	19.53
204.154	25.01
204.54	10.22
204.927	8.33
205.313	29.41
205.699	-10.55
206.086	33.4
206.472	14.14
206.858	-23.72
207.245	5.83
207.631	8.17
208.017	3.14
208.403	-56.34
208.789	18.36
209.175	-68.95
209.561	-6.98
209.947	-1.46
210.333	11.09
210.719	17.56
211.105	-9.76
211.491	2.45
211.876	3.43
212.262	17.68
212.648	-44.5
213.034	16.91
213.419	16.72
213.805	16.08
214.19	22.73
214.576	-17.22
214.961	3.95
215.346	51.96
215.732	21.11
216.117	-44.67
216.502	28.44
216.888	-41.35
217.273	2.17
217.658	15.81
218.043	18.66
218.428	-9.35
218.813	0.93
219.198	30.28
219.583	-4.53
219.968	7.8
220.353	-27.73
220.738	0.59
221.122	2
221.507	6.93
221.892	6.02
222.276	12.66
222.661	-3.93
223.046	11.92
223.43	-11.93
223.815	-2.63
224.199	1.58
224.583	-2.02
224.968	4.63
225.352	4.84
225.736	6.37
226.121	0.16
226.505	10.57
226.889	6.39
227.273	-1.91
227.657	-0.71
228.041	1.96
228.425	3.5
228.809	7.02
229.193	3.56
229.577	3.44
229.961	2.63
230.344	3.06
230.728	5
231.112	4.4
231.495	4.7
231.879	5.24
232.263	2.7
232.646	5.52
233.03	5.01
233.413	2.84
233.797	3.63
234.18	5.64
234.563	4.35
234.946	4.23
235.33	4.81
235.713	4.18
236.096	4.16
236.479	5.62
236.862	5.49
237.245	3.91
237.628	3.8
238.011	5.28
238.394	4.93
238.777	5.86
239.16	5.31
239.543	4.37
239.925	7.11
240.308	5.03
240.691	6.38
241.073	5.88
241.456	5.82
241.838	5.17
242.221	5.69
242.603	5.22
242.986	5.87
243.368	5.2
243.75	6.29
244.133	5.56
244.515	5.59
244.897	5.89
245.279	5.6
245.661	5.32
246.043	5.31
246.425	6.22
246.807	6.34
247.189	5.34
247.571	5.37
247.953	5.62
248.335	5.54
248.717	5.93
249.098	5.69
249.48	5.73
249.862	5.77
250.243	5.61
250.625	5.43
251.006	6.24
251.388	5.87
251.769	5.57
252.151	6.68
252.532	5.3
252.913	5.41
253.295	5.37
253.676	6.03
254.057	5.69
254.438	6.28
254.819	5.79
255.2	4.4
255.581	6.81
255.962	7.69
256.343	6.72
256.724	5.77
257.105	6.21
257.486	5.89
257.867	6.03
258.247	6.19
258.628	6.23
259.009	5.3
259.389	4.89
259.77	6.17
260.15	6.3
260.531	6.2
260.911	5.49
261.292	5.69
261.672	5.7
262.052	5.71
262.432	5.58
262.813	5.05
263.193	5.7
263.573	5.86
263.953	5.69
264.333	5.73
264.713	5.86
265.093	6.18
265.473	5.73
265.853	5.45
266.233	6.47
266.612	6.02
266.992	4.85
267.372	5.29
267.752	5.58
268.131	5.48
268.511	6.04
268.89	6.18
269.27	5.47
269.649	5.24
270.029	5.83
270.408	5.42
270.787	5.34
271.167	5.71
271.546	5.65
271.925	5.39
272.304	5.7
272.683	5.18
273.062	5.34
273.441	5.42
273.82	5.31
274.199	5.59
274.578	5.2
274.957	5.46
275.336	5.84
275.715	5.83
276.093	5.63
276.472	6.36
276.851	5.22
277.229	5.63
277.608	5.22
277.986	5.51
278.365	6.14
278.743	5.14
279.122	5.04
279.5	5.51
279.878	5.14
280.257	5.55
280.635	4.39
281.013	5.62
281.391	4.72
281.769	5.79
282.147	5.6
282.525	5.44
282.903	4.99
283.281	5.17
283.659	5.41
284.037	5.47
284.415	4.9
284.792	5.2
285.17	5
285.548	5.51
285.925	5.27
286.303	5.79
286.68	5.15
287.058	5.99
287.435	5.3
287.813	5.57
288.19	5.37
288.567	5.66
288.945	5.77
289.322	5.53
289.699	5.39
290.076	5.32
290.453	5.38
290.83	5.66
291.207	6.01
291.584	5.55
291.961	5.44
292.338	6.03
292.715	5.71
293.092	5.6
293.469	6.36
293.845	5.69
294.222	5.95
294.599	5.68
294.975	6.15
295.352	6.57
295.728	6.23
296.105	6.3
296.481	6.06
296.858	6.7
297.234	5.97
297.61	6.34
297.986	6.57
298.363	6.71
298.739	6.25
299.115	6.78
299.491	6.29
299.867	6.82
300.243	6.8
300.619	6.4
300.995	6.93
301.371	6.97
301.746	6.7
302.122	7.77
302.498	7.56
302.874	7.47
303.249	7.12
303.625	7.13
304	6.97
304.376	7.75
304.751	7
305.127	7.06
305.502	7.12
305.878	7.18
306.253	6.68
306.628	7.48
307.003	7.25
307.378	7.69
307.754	8.42
308.129	7.51
308.504	7.47
308.879	7.75
309.254	6.87
309.629	7.58
310.003	8.07
310.378	7.43
310.753	7.57
311.128	7.79
311.502	8.05
311.877	8.05
312.252	8.03
312.626	7.88
313.001	8.48
313.375	8.47
313.75	7.97
314.124	8.1
314.498	8.26
314.873	8.32
315.247	8.1
315.621	8.45
315.995	8.45
316.369	8.11
316.743	8.24
317.117	9.11
317.491	8.32
317.865	8.4
318.239	8.76
318.613	8.81
318.987	8.88
319.361	8.29
319.734	9.16
320.108	9.39
320.482	9.15
320.855	8.61
321.229	8.75
321.602	9.2
321.976	8.96
322.349	8.86
322.723	9.16
323.096	9.09
323.469	9.14
323.843	8.23
324.216	9.18
324.589	9.43
324.962	8.98
325.335	8.34
325.708	9.41
326.081	8.43
326.454	8.44
326.827	8.83
327.2	9
327.573	9.04
327.945	8.98
328.318	8.79
328.691	9.17
329.063	8.78
329.436	9.56
329.809	9.12
330.181	9.7
330.553	8.5
330.926	9.13
331.298	9.1
331.671	9.08
332.043	9.27
332.415	9.09
332.787	8.97
333.159	9.77
333.532	9.53
333.904	9.18
334.276	9.63
334.648	9.52
335.02	9.08
335.391	9.21
335.763	8.71
336.135	8.88
336.507	9.16
336.879	9.29
337.25	10.25
337.622	8.97
337.993	9.81
338.365	9.38
338.736	9.48
339.108	9.38
339.479	9.26
339.851	9.03
340.222	9.65
340.593	9.43
340.964	10.16
341.336	9.12
341.707	9.74
342.078	9.47
342.449	9.38
342.82	9.07
343.191	9.11
343.562	9.51
343.933	9.14
344.303	9.78
344.674	9.23
345.045	9.36
345.416	9.69
345.786	9.47
346.157	9.67
346.527	9.89
346.898	10.41
347.268	9.5
347.639	9.52
348.009	9.46
348.38	9.53
348.75	9.85
349.12	9.65
349.49	9.74
349.861	9.8
350.231	9.71
350.601	10.07
350.971	9.6
351.341	9.82
351.711	10.23
352.081	9.89
352.45	9.89
352.82	9.31
353.19	9.98
353.56	9.91
353.929	9.94
354.299	9.49
354.669	9.4
355.038	9.91
355.408	10.02
355.777	9.95
356.147	9.73
356.516	10.01
356.885	9.75
357.254	9.65
357.624	10.15
357.993	10.12
358.362	9.77
358.731	10
359.1	10.38
359.469	9.89
359.838	10.12
360.207	10.3
360.576	10.11
360.945	9.76
361.314	10.16
361.682	9.61
362.051	9.98
362.42	10.42
362.788	10.04
363.157	10.12
363.525	9.88
363.894	9.76
364.262	9.8
364.631	10.16
364.999	9.73
365.367	9.87
365.735	10.1
366.104	10.13
366.472	9.6
366.84	10.33
367.208	10.12
367.576	10.04
367.944	10.2
368.312	10
368.68	10.14
369.048	9.89
369.416	10.58
369.783	10.37
370.151	10.4
370.519	10.12
370.886	10.02
371.254	10.75
371.621	10.15
371.989	10.16
372.356	10.07
372.724	10.21
373.091	10.46
373.458	10.1
373.826	10.25
374.193	10.1
374.56	10.22
374.927	10.97
375.294	10.02
375.661	10.58
376.028	10.55
376.395	10.47
376.762	10.41
377.129	9.97
377.496	10.49
377.863	10.26
378.229	10.28
378.596	10.42
378.963	10.26
379.329	10.39
379.696	9.92
380.062	10.25
380.429	10.3
380.795	10.15
381.161	10.52
381.528	10.11
381.894	9.9
382.26	9.94
382.626	10.53
382.993	10.42
383.359	10.4
383.725	10.36
384.091	10.41
384.457	10.33
384.823	10.37
385.188	10.35
385.554	10.09
385.92	10.32
386.286	9.99
386.651	10.05
387.017	10.12
387.383	10.37
387.748	10.25
388.114	10.13
388.479	10.54
388.845	10.11
389.21	10.08
389.575	10.18
389.94	10.34
390.306	10.23
390.671	9.78
391.036	10.13
391.401	10.09
391.766	9.82
392.131	9.89
392.496	9.91
392.861	9.84
393.226	10.18
393.591	10.1
393.956	9.8
394.32	9.98
394.685	9.95
395.05	9.98
395.414	9.97
395.779	9.75
396.143	9.63
396.508	9.69
396.872	9.89
397.236	9.83
397.601	9.59
397.965	9.94
398.329	9.49
398.694	9.28
399.058	9.87
399.422	9.5
399.786	9.54
400.15	9.42
400.514	9.49
400.878	9.48
401.242	9.18
401.605	9.54
401.969	9.82
402.333	9.48
402.697	9.02
403.06	9.49
403.424	9.6
403.787	9.21
404.151	9.36
404.514	9.44
404.878	9.34
405.241	9.05
405.604	9.11
405.968	9.15
406.331	8.92
406.694	9.23
407.057	8.81
407.42	9.1
407.783	9.12
408.146	9.23
408.509	9.18
408.872	9.31
409.235	9.15
409.598	9.05
409.961	8.99
410.323	9.22
410.686	9
411.049	8.75
411.411	8.85
411.774	8.95
412.136	8.8
412.499	8.99
412.861	9.28
413.223	9.09
413.586	9.07
413.948	9.11
414.31	9.05
414.672	9.02
415.035	9.19
415.397	8.98
415.759	9.26
416.121	9.33
416.483	9.21
416.845	9.27
417.206	9.28
417.568	9.24
417.93	9.42
418.292	9.48
418.653	9.43
419.015	9.44
419.377	9.61
419.738	9.39
420.1	9.5
420.461	9.37
420.822	9.38
421.184	9.44
421.545	9.52
421.906	9.61
422.267	9.6
422.629	9.58
422.99	9.69
423.351	9.77
423.712	9.77
424.073	9.74
424.434	9.97
424.795	10.19
425.155	10.11
425.516	10.19
425.877	10.05
426.238	10.3
426.598	10.3
426.959	10.45
427.32	10.59
427.68	10.61
428.041	10.53
428.401	10.79
428.761	10.91
429.122	10.91
429.482	11.14
429.842	11.26
430.202	11.31
430.563	11.35
430.923	11.47
431.283	11.33
431.643	11.25
432.003	11.85
432.363	11.57
432.722	11.76
433.082	11.5
433.442	12.04
433.802	11.96
434.161	12.17
434.521	11.93
434.881	12.12
435.24	12.04
435.6	11.96
435.959	12.25
436.319	12.26
436.678	12.19
437.037	12.14
437.396	12.38
437.756	12.7
438.115	12.52
438.474	12.61
438.833	12.69
439.192	12.51
439.551	12.73
439.91	12.85
440.269	12.88
440.628	12.91
440.987	12.75
441.345	13.05
441.704	12.94
442.063	13.26
442.421	12.98
442.78	12.98
443.138	12.98
443.497	13.23
443.855	13.27
444.214	13.43
444.572	13.45
444.93	13.44
445.288	13.54
445.647	13.54
446.005	13.58
446.363	13.46
446.721	13.53
447.079	13.52
447.437	13.66
447.795	13.59
448.153	13.62
448.51	13.63
448.868	13.78
449.226	13.94
449.584	13.79
449.941	13.93
450.299	13.96
450.656	13.92
451.014	14.07
451.371	14.12
451.729	14.28
452.086	14.13
452.443	14.37
452.801	14.36
453.158	14.63
453.515	14.49
453.872	14.51
454.229	14.39
454.586	14.45
454.943	14.45
455.3	14.62
455.657	14.77
456.014	14.94
456.371	14.83
456.727	14.76
457.084	14.82
457.441	14.98
457.797	14.67
458.154	14.91
458.51	15.09
458.867	15.48
459.223	15.03
459.58	15.12
459.936	15.13
460.292	14.93
460.648	15.16
461.005	15.09
461.361	15.17
461.717	15.09
462.073	15.15
462.429	15.28
462.785	15.33
463.141	15.51
463.496	15.69
463.852	15.78
464.208	15.66
464.564	15.65
464.919	15.86
465.275	15.67
465.631	16.08
465.986	15.92
466.342	15.77
466.697	15.73
467.052	15.81
467.408	15.97
467.763	16.32
468.118	16.34
468.473	16.13
468.829	16.23
469.184	16.14
469.539	16.41
469.894	16.24
470.249	16.35
470.603	16.25
470.958	16.48
471.313	16.27
471.668	16.59
472.023	16.28
472.377	16.48
472.732	16.41
473.086	16.54
473.441	16.44
473.795	16.76
474.15	16.45
474.504	16.7
474.859	16.77
475.213	16.77
475.567	16.87
475.921	17.06
476.275	16.86
476.63	16.97
476.984	17.04
477.338	17.02
477.692	16.94
478.045	16.91
478.399	16.88
478.753	16.92
479.107	17.16
479.461	17.06
479.814	17.07
480.168	16.9
480.521	17.26
480.875	17.33
481.228	17.36
481.582	17.52
481.935	17.47
482.289	17.3
482.642	17.28
482.995	17.33
483.348	17.27
483.701	17.39
484.055	17.19
484.408	17.13
484.761	17.13
485.114	16.66
485.466	16.51
485.819	16.67
486.172	16.79
486.525	16.94
486.878	17.05
487.23	17.22
487.583	17.37
487.936	17.42
488.288	17.27
488.641	17.23
488.993	17.11
489.345	17.13
489.698	17.15
490.05	17.24
490.402	17.4
490.754	17.6
491.107	17.74
491.459	17.71
491.811	17.86
492.163	17.88
492.515	17.86
492.866	17.71
493.218	17.39
493.57	17.48
493.922	17.66
494.274	17.81
494.625	17.92
494.977	18.16
495.328	18.21
495.68	18.4
496.031	18.32
496.383	18.39
496.734	18.49
497.086	18.44
497.437	18.61
497.788	18.45
498.139	18.35
498.49	18.49
498.842	18.46
499.193	18.5
499.544	18.65
499.894	18.62
500.245	18.64
500.596	18.62
500.947	18.66
501.298	18.94
501.648	18.81
501.999	19.1
502.35	18.89
502.7	18.9
503.051	19.15
503.401	19.1
503.752	19.02
504.102	19.11
504.452	19.2
504.803	19.07
505.153	19.09
505.503	19.29
505.853	19.3
506.203	19.09
506.553	19.34
506.903	19.25
507.253	19.21
507.603	19.44
507.953	19.3
508.303	19.51
508.652	19.34
509.002	19.29
509.352	19.47
509.701	19.44
510.051	19.5
510.4	19.49
510.75	19.34
511.099	19.35
511.449	19.4
511.798	19.42
512.147	19.47
512.496	19.49
512.846	19.37
513.195	19.56
513.544	19.59
513.893	19.7
514.242	19.59
514.591	19.49
514.939	19.63
515.288	19.7
515.637	19.86
515.986	19.75
516.334	19.76
516.683	19.88
517.032	19.91
517.38	19.83
517.729	19.84
518.077	19.96
518.426	19.81
518.774	19.93
519.122	19.91
519.47	19.84
519.819	19.77
520.167	19.46
520.515	19.59
520.863	19.6
521.211	19.86
521.559	19.87
521.907	19.99
522.255	19.94
522.602	20.03
522.95	20.07
523.298	20.03
523.645	20.05
523.993	20.22
524.341	19.92
524.688	20.18
525.036	20.25
525.383	20.25
525.73	20.16
526.078	20.21
526.425	20.33
526.772	20.08
527.119	19.92
527.466	19.94
527.814	19.89
528.161	20
528.508	20.12
528.854	20.1
529.201	19.98
529.548	19.91
529.895	19.56
530.242	19.33
530.588	19.47
530.935	19.64
531.282	19.76
531.628	19.94
531.975	20.04
532.321	20.18
532.667	20.33
533.014	20.42
533.36	20.4
533.706	20.39
534.052	20.43
534.399	20.34
534.745	20.16
535.091	19.96
535.437	20.04
535.783	20.23
536.129	20.46
536.474	20.61
536.82	20.64
537.166	20.77
537.512	20.79
537.857	20.86
538.203	20.64
538.549	20.5
538.894	20.72
539.239	20.8
539.585	21.01
539.93	20.95
540.276	21.18
540.621	20.98
540.966	21.05
541.311	21.14
541.656	21.26
542.001	21.04
542.346	20.98
542.691	20.67
543.036	20.58
543.381	20.56
543.726	20.8
544.071	20.86
544.415	20.97
544.76	21.05
545.105	21.11
545.449	21.22
545.794	21.47
546.138	21.62
546.483	21.52
546.827	21.71
547.171	21.79
547.516	21.65
547.86	21.58
548.204	21.6
548.548	21.54
548.892	21.49
549.236	21.75
549.58	21.91
549.924	22.06
550.268	22.08
550.612	22.15
550.956	22.21
551.3	22.29
551.643	22.24
551.987	22.48
552.33	22.27
552.674	22.56
553.017	22.37
553.361	22.19
553.704	22.53
554.048	22.45
554.391	22.43
554.734	22.56
555.077	22.42
555.42	22.76
555.764	22.69
556.107	22.84
556.45	22.73
556.793	22.93
557.135	22.77
557.478	22.75
557.821	22.91
558.164	22.83
558.507	23.03
558.849	22.9
559.192	22.84
559.534	23.12
559.877	23.17
560.219	22.97
560.562	23.11
560.904	22.86
561.246	23.1
561.589	23.03
561.931	23.11
562.273	23.51
562.615	23.27
562.957	23.32
563.299	23.34
563.641	23.09
563.983	23.5
564.325	23.18
564.667	23.22
565.008	23.62
565.35	23.47
565.692	23.65
566.033	23.56
566.375	23.69
566.716	23.79
567.058	23.86
567.399	23.96
567.741	23.47
568.082	23.51
568.423	23.65
568.764	23.65
569.105	23.72
569.447	23.86
569.788	24.12
570.129	23.91
570.47	23.93
570.811	23.8
571.151	24.15
571.492	24.19
571.833	24.17
572.174	24.14
572.514	24.24
572.855	24.34
573.195	24.29
573.536	24.11
573.876	24.09
574.217	24.35
574.557	24.41
574.898	24.59
575.238	24.41
575.578	24.65
575.918	24.51
576.258	24.52
576.598	24.41
576.938	24.71
577.278	24.73
577.618	24.82
577.958	24.9
578.298	24.83
578.638	24.91
578.977	24.91
579.317	25.21
579.657	25.16
579.996	25.43
580.336	25.39
580.675	25.49
581.014	25.42
581.354	25.22
581.693	25.53
582.032	25.43
582.372	25.91
582.711	25.62
583.05	25.45
583.389	25.51
583.728	25.37
584.067	25.8
584.406	25.73
584.745	25.85
585.083	25.89
585.422	26.01
585.761	26.22
586.1	26.2
586.438	25.89
586.777	26.05
587.115	25.86
587.454	26.23
587.792	26.51
588.13	26.11
588.469	26.26
588.807	26.59
589.145	26.55
589.483	26.61
589.821	26.43
590.159	26.63
590.497	26.34
590.835	26.72
591.173	26.85
591.511	26.87
591.849	26.79
592.187	26.67
592.524	26.96
592.862	27.04
593.2	26.79
593.537	26.84
593.875	27.47
594.212	26.91
594.55	27.29
594.887	27.19
595.224	27.09
595.561	27.39
595.899	27.44
596.236	27.19
596.573	27.43
596.91	27.54
597.247	27.72
597.584	27.55
597.921	27.36
598.258	27.46
598.594	27.46
598.931	27.49
599.268	27.36
599.604	27.88
599.941	27.63
600.277	28.02
600.614	28.21
600.95	28.11
601.287	28.38
601.623	28.28
601.959	28.16
602.296	28.19
602.632	28.08
602.968	28.21
603.304	28.21
603.64	28.26
603.976	28.48
604.312	28.76
604.648	28.28
604.984	28.07
605.319	28.4
605.655	28.3
605.991	28.22
606.326	28.48
606.662	28.52
606.998	28.33
607.333	28.43
607.668	28.42
608.004	28.95
608.339	28.72
608.674	28.74
609.01	28.67
609.345	28.81
609.68	28.48
610.015	28.92
610.35	28.99
610.685	29.22
611.02	28.74
611.355	28.82
611.689	28.98
612.024	29.13
612.359	29.25
612.694	29.46
613.028	29.2
613.363	29.5
613.697	29.11
614.032	29.23
614.366	29.67
614.7	29.49
615.035	29.87
615.369	29.44
615.703	29.72
616.037	29.32
616.371	29.82
616.705	29.63
617.039	29.79
617.373	29.87
617.707	29.67
618.041	29.88
618.375	30.26
618.709	30.23
619.042	29.99
619.376	29.75
619.71	29.62
620.043	30.02
620.377	30.67
620.71	30.35
621.043	30.73
621.377	30.57
621.71	30.31
622.043	30.65
622.376	30.46
622.709	30.88
623.043	30.48
623.376	30.86
623.709	30.63
624.041	30.51
624.374	30.69
624.707	31
625.04	31.12
625.373	31.05
625.705	30.95
626.038	31.22
626.37	30.72
626.703	30.68
627.035	30.96
627.368	31.18
627.7	31.19
628.032	30.92
628.365	31.31
628.697	30.52
629.029	31.39
629.361	31.1
629.693	31.23
630.025	31.56
630.357	31.48
630.689	31.6
631.021	31.8
631.353	31.86
631.684	31.4
632.016	31.34
632.348	31.87
632.679	31.62
633.011	32.26
633.342	31.54
633.674	32.02
634.005	31.88
634.336	32.44
634.668	32.25
634.999	32.46
635.33	32.5
635.661	32.56
635.992	32.33
636.323	32.53
636.654	32.49
636.985	32.5
637.316	32.62
637.647	32.69
637.977	32.49
638.308	32.94
638.639	33.33
638.969	32.88
639.3	33.18
639.63	32.92
639.961	33.33
640.291	33.09
640.622	33.53
640.952	32.57
641.282	33.7
641.612	33.58
641.943	33.69
642.273	32.97
642.603	33.52
642.933	33.68
643.263	34.11
643.592	33.95
643.922	34.11
644.252	33.81
644.582	33.62
644.911	34.14
645.241	34.05
645.571	33.66
645.9	34.25
646.23	34.32
646.559	34.53
646.888	34.76
647.218	34.6
647.547	34.69
647.876	34.35
648.205	34.11
648.534	34.24
648.863	35.19
649.192	34.46
649.521	35.14
649.85	34.49
650.179	34.58
650.508	35.19
650.837	34.87
651.165	34.89
651.494	35.78
651.822	34.86
652.151	34.99
652.479	34.97
652.808	34.7
653.136	34.96
653.465	34.97
653.793	35.04
654.121	34.98
654.449	35.99
654.777	35.79
655.105	35.83
655.433	35.48
655.761	35.6
656.089	35.75
656.417	35.86
656.745	35.92
657.073	36.58
657.4	35.91
657.728	35.76
658.056	35.95
658.383	36.03
658.711	35.99
659.038	36.41
659.365	36.54
659.693	35.9
660.02	36.14
660.347	36.4
660.674	36.02
661.001	35.64
661.329	36.17
661.656	36.2
661.982	36.77
662.309	37.14
662.636	36.6
662.963	36.73
663.29	36.73
663.616	36.79
663.943	37.09
664.27	37.79
664.596	37.06
664.923	36.78
665.249	37.08
665.576	37.15
665.902	36.75
666.228	37.02
666.554	37.17
666.881	36.9
667.207	37.17
667.533	37.28
667.859	36.98
668.185	37.8
668.511	37.19
668.837	37.53
669.162	36.89
669.488	37.58
669.814	38.09
670.139	37.65
670.465	37.24
670.791	37.48
671.116	38.15
671.442	37.44
671.767	37.78
672.092	38.21
672.418	37.55
672.743	37.77
673.068	37.64
673.393	37.88
673.718	37.97
674.043	38.12
674.368	38.64
674.693	38.37
675.018	38.52
675.343	39.36
675.667	37.58
675.992	38.9
676.317	38.82
676.641	38.11
676.966	38.64
677.29	38.61
677.615	39.49
677.939	38.56
678.264	39.13
678.588	39.53
678.912	38.58
679.236	38.65
679.56	39.31
679.885	39.36
680.209	38.79
680.532	39.93
680.856	39.68
681.18	38.7
681.504	39.29
681.828	39.01
682.152	38.88
682.475	39.35
682.799	38.83
683.122	39.96
683.446	39.72
683.769	40.11
684.093	39.66
684.416	39.35
684.739	39.76
685.062	39.34
685.386	40.32
685.709	39.9
686.032	39.92
686.355	40.12
686.678	40.72
687.001	39.72
687.324	40.38
687.646	39.71
687.969	40.25
688.292	40.71
688.614	40
688.937	39.22
689.26	39.44
689.582	40.5
689.904	40.6
690.227	40.36
690.549	40.31
690.871	40.63
691.194	40.01
691.516	39.99
691.838	40.06
692.16	39.96
692.482	40.2
692.804	40.69
693.126	40.99
693.448	40.11
693.769	41.33
694.091	40.46
694.413	39.84
694.735	40.67
695.056	40.82
695.378	40.38
695.699	41.4
696.021	40.88
696.342	40.34
696.663	40.32
696.984	41.38
697.306	43.1
697.627	40.68
697.948	41.07
698.269	41.63
698.59	40.45
698.911	41.05
699.232	41.88
699.553	40.9
699.873	41.81
700.194	41.6
700.515	41.12
700.835	41.33
701.156	41.7
701.477	41
701.797	41.57
702.117	41.43
702.438	41.84
702.758	42.96
703.078	42.44
703.398	41.75
703.719	42.53
704.039	41.99
704.359	42.18
704.679	41.36
704.999	41.65
705.319	41.62
705.638	42.14
705.958	41.67
706.278	41.58
706.597	42.38
706.917	42.79
707.237	43.26
707.556	42.46
707.876	41.07
708.195	42.94
708.514	42.83
708.834	43.17
709.153	42.27
709.472	42.5
709.791	42.94
710.11	42.38
710.429	43.42
710.748	42.07
711.067	42.94
711.386	42.57
711.705	43.46
712.023	42.21
712.342	41.78
712.661	42.94
712.979	42.89
713.298	43.53
713.616	42.61
713.935	43.12
714.253	42.53
714.572	42.98
714.89	42.23
715.208	43.55
715.526	42.51
715.844	43.61
716.162	42.6
716.48	43.47
716.798	43.35
717.116	43.2
717.434	44.43
717.752	42.2
718.069	43.14
718.387	43.81
718.705	43.1
719.022	43.09
719.34	44.72
719.657	43.21
719.975	43.62
720.292	43.97
720.609	42.9
720.927	44.85
721.244	43.76
721.561	44.45
721.878	43.02
722.195	44.28
722.512	44.16
722.829	44
723.146	43.8
723.463	42.76
723.779	44.72
724.096	44.19
724.413	44.55
724.729	44.31
725.046	43.64
725.362	45.21
725.679	44.95
725.995	44.86
726.311	44.68
726.628	43.2
726.944	44.07
727.26	43.22
727.576	45.26
727.892	44.1
728.208	43.99
728.524	44.52
728.84	42.32
729.156	44.28
729.472	44.35
729.787	46.1
730.103	45.08
730.419	45.25
730.734	46.13
731.05	44.81
731.365	43.95
731.681	44.59
731.996	45.23
732.311	43.61
732.626	44.48
732.942	44.91
733.257	44.77
733.572	46.48
733.887	45.11
734.202	44.72
734.517	43.89
734.832	45.83
735.146	45.62
735.461	45.53
735.776	44.52
736.091	43.74
736.405	45.37
736.72	44.74
737.034	45.8
737.349	45.53
737.663	45.8
737.977	46.16
738.292	45.64
738.606	46.08
738.92	47.62
739.234	44.98
739.548	46
739.862	45.67
740.176	44.64
740.49	45.56
740.804	43.72
741.117	45.09
741.431	46.6
741.745	44.38
742.058	44.5
742.372	44.53
742.685	43.84
742.999	44.84
743.312	46.15
743.626	45.05
743.939	47.04
744.252	45
744.565	46.19
744.878	47.1
745.191	46.03
745.505	45.21
745.817	48.76
746.13	44.99
746.443	46.64
746.756	47.51
747.069	45.14
747.381	48.26
747.694	45.47
748.007	47.97
748.319	47.69
748.632	43.72
748.944	47.04
749.256	46.42
749.569	47.1
749.881	45.34
750.193	45.5
750.505	47.11
750.817	46.9
751.129	46.66
751.441	45.92
751.753	47.08
752.065	46.62
752.377	48.49
752.689	47.07
753	47.68
753.312	47.91
753.624	44.09
753.935	46.16
754.247	48.41
754.558	47.91
754.869	45.45
755.181	47.54
755.492	45.74
755.803	46.29
756.114	46.45
756.425	49.03
756.736	48.03
757.047	49.27
757.358	47.59
757.669	47.54
757.98	47.24
758.291	45.3
758.601	46.68
758.912	47.56
759.223	45.26
759.533	46.71
759.844	46.99
760.154	48.27
760.464	47.99
760.775	47.95
761.085	49.57
761.395	46.03
761.705	47.98
762.016	46.58
762.326	50.06
762.636	47.65
762.945	47.85
763.255	46.36
763.565	48.56
763.875	49.36
764.185	49.43
764.494	48.52
764.804	47
765.113	48.98
765.423	47.33
765.732	48.55
766.042	48.56
766.351	48.6
766.66	46.94
766.97	48.23
767.279	49.29
767.588	48.51
767.897	48.48
768.206	48.71
768.515	48.83
768.824	47.43
769.133	49.67
769.441	49.42
769.75	47.84
770.059	49.18
770.367	47.15
770.676	46.04
770.984	46.34
771.293	48.33
771.601	48.82
771.91	48.91
772.218	48.81
772.526	48.67
772.834	46.87
773.142	45.74
773.45	50.15
773.758	45.84
774.066	49.97
774.374	47.89
774.682	48.5
774.99	48.33
775.298	44.89
775.605	51.33
775.913	48.79
776.22	50.04
776.528	45.23
776.835	52.08
777.143	45.36
777.45	49.45
777.757	44.74
778.065	48.14
778.372	48.07
778.679	47.7
778.986	44.63
779.293	47.3
779.6	52.43
779.907	51.39
780.214	49.72
780.52	49.85
780.827	45.8
781.134	49.7
781.44	50.37
781.747	45.45
782.053	47.98
782.36	49.94
782.666	49.75
782.973	47.24
783.279	51.05
783.585	48.27
783.891	51.12
784.197	50.42
784.503	48.64
784.809	51.45
785.115	50.39
785.421	52.33
785.727	45.93
786.033	47.8
786.339	49.09
786.644	51.06
786.95	47.08
787.255	49.84
787.561	52.99
787.866	53.01
788.172	44.53
788.477	48.77
788.782	48.49
789.088	46.63
789.393	52.91
789.698	51.7
790.003	50.51
790.308	52.18
790.613	51.05
790.918	51.91
791.223	52.35
791.527	47.66
791.832	51.46
792.137	50.9
792.441	49.27
792.746	53.14
793.05	46.85
793.355	47.78
793.659	49.03
793.963	50.35
794.268	48.35
794.572	42.77
794.876	44.08
795.18	49.63
795.484	47.29
795.788	45.66
796.092	45.3
796.396	49.77
796.7	48.08
797.004	50.91
797.307	51.06
797.611	49.85
797.915	49.49
798.218	50.39
798.522	48.33
798.825	53.42
799.128	46.75
799.432	51.57
799.735	50.33
800.038	48.74
800.341	49.25
800.644	50.77
800.947	45.74
801.25	57.02
801.553	49.2
801.856	48.37
802.159	51.93
802.462	44.48
802.764	52.46
803.067	52.84
803.37	51.12
803.672	51.88
803.975	52.05
804.277	51.63
804.579	54.54
804.882	47.48
805.184	44.87
805.486	48.3
805.788	51.19
806.09	49.88
806.392	52.34
806.694	46.84
806.996	52.06
807.298	47.5
807.6	45.83
807.902	52.6
808.203	50.72
808.505	53.7
808.807	51.17
809.108	54.11
809.409	57.61
809.711	47.92
810.012	52.07
810.313	53.32
810.615	49.91
810.916	50.52
811.217	50.15
811.518	51.04
811.819	51.22
812.12	52.18
812.421	53.16
812.722	51.97
813.023	47.81
813.323	49.49
813.624	53.65
813.925	55.38
814.225	43.59
814.526	49.34
814.826	56.71
815.126	52.24
815.427	51.07
815.727	48.55
816.027	50.05
816.327	50.02
816.627	45.91
816.927	48.83
817.227	58.48
817.527	47.43
817.827	46.28
818.127	48.86
818.427	47.63
818.727	48.74
819.026	55.33
819.326	51.85
819.625	50.38
819.925	53.68
820.224	50.59
820.524	56.95
820.823	48.11
821.122	50.52
821.421	54.68
821.72	50.41
822.019	49.44
822.318	55.24
822.617	49.07
822.916	54.3
823.215	52.77
823.514	53.02
823.813	52.76
824.111	54.05
824.41	50.67
824.709	51.64
825.007	53.45
825.306	54.17
825.604	53.34
825.902	52.3
826.201	51.91
826.499	54.65
826.797	53.84
827.095	55.68
827.393	51.82
827.691	53.12
827.989	54.09
828.287	54.32
828.585	52.92
828.882	54.4
829.18	55.3
829.478	54.3
829.775	53.4
830.073	53.26
830.37	54.92
830.668	53.71
830.965	52.46
831.263	52.37
831.56	52.1
831.857	55.11
832.154	50.12
832.451	50
832.748	54.48
833.045	50.56
833.342	57.71
833.639	56.55
833.936	57.78
834.232	57.21
834.529	49.16
834.826	54.27
835.122	52.15
835.419	49.74
835.715	52.66
836.012	52.74
836.308	54.37
836.604	55.65
836.901	52.18
837.197	54.63
837.493	52.13
837.789	56.43
838.085	55.01
838.381	53.62
838.677	53.41
838.972	50.96
839.268	55.88
839.564	46.64
839.86	45.88
840.155	55.51
840.451	47.6
840.746	46.81
841.042	45.97
841.337	39.17
841.632	49.76
841.928	43.53
842.223	59.23
842.518	52.11
842.813	46.26
843.108	49.04
843.403	56.44
843.698	42.88
843.993	50.99
844.287	53.45
844.582	47.13
844.877	39.72
845.171	45.32
845.466	36.55
845.761	51.35
846.055	43.17
846.349	44.07
846.644	57.95
846.938	61.4
847.232	52.53
847.526	51.13
847.82	51.22
848.114	42.51
848.408	22.62
848.702	48.82
848.996	33.77
849.29	40.74
849.584	40.28
849.877	62.57
850.171	22.21
850.465	43.52
850.758	42.45
851.052	63.15
851.345	51.5
851.638	57.2
851.932	51.1
852.225	63.3
852.518	55.07
852.811	43.96
853.104	59.15
853.397	56.47
853.69	33.28
853.983	23.52
854.276	27.43
854.569	33.97
854.861	46.18
855.154	36.06
855.447	52.03
855.739	68.54
856.032	61.38
856.324	69.25
856.616	63.3
856.909	45.41
857.201	58.5
857.493	25.51
857.785	31.92
858.077	54.21
858.369	21.21
858.661	49.42
858.953	-1.62
859.245	29.64
859.537	64.56
859.829	5.09
860.12	76.62
860.412	59.77
860.703	52.09
860.995	74.49
861.286	27.63
861.578	69.99
861.869	73.08
862.16	25.41
862.452	10.89
862.743	34.36
863.034	35.49
863.325	38.76
863.616	68.4
863.907	72.1
864.198	88.54
864.488	50.94
864.779	36.78
865.07	30.28
865.36	32.1
865.651	82.48
865.941	25.66
866.232	48.07
866.522	40.7
866.813	70.38
867.103	40.03
867.393	44.7
867.683	62.83
867.973	52.95
868.263	63.75
868.553	56.32
868.843	67.57
869.133	80.85
869.423	53.06
869.713	29.59
870.002	37.93
870.292	51.98
870.582	76.94
870.871	61.75
871.161	32.45
871.45	82.23
871.739	64.96
872.029	60.36
872.318	50.89
872.607	67
872.896	49.3
873.185	5.57
873.474	44.29
873.763	36.37
874.052	35.24
874.341	-6.47
874.63	70.08
874.918	24.74
875.207	56.57
875.496	59.82
875.784	51.95
876.073	43.21
876.361	48.29
876.649	57.09
876.938	62.74
877.226	37.54
877.514	53.93
877.802	42.18
878.09	63.37
878.378	50.74
878.666	-19.25
878.954	25.2
879.242	60.25
879.53	76.37
879.817	32.62
880.105	29.57
880.392	41.31
880.68	63.55
880.967	86.87
881.255	30.05
881.542	22.19
881.83	70.71
882.117	46.75
882.404	57.26
882.691	55.43
882.978	20.96
883.265	36.81
883.552	46.86
883.839	49.68
884.126	49.03
884.413	49.58
884.699	62.24
884.986	51.87
885.273	56.1
885.559	56.1
885.846	56.1
