Data from 20-50_chest_Reflection__4__34.txt Node

Date: Thu Feb 29 22:08:20 CST 2024
User: ToomeyLab
Spectrometer: FLMS14357
Trigger mode: 0
Integration Time (sec): 1.000000E-2
Scans to average: 100
Electric dark correction enabled: true
Nonlinearity correction enabled: false
Boxcar width: 0
XAxis mode: Wavelengths
Number of Pixels in Spectrum: 2048
>>>>>Begin Spectral Data<<<<<
189.047	60.91
189.435	60.91
189.823	60.91
190.211	-606.72
190.599	35.7
190.987	18.56
191.375	71.3
191.763	59.82
192.151	196.53
192.538	-1431.08
192.926	150.78
193.314	139.84
193.702	144.95
194.089	41.76
194.477	-88.91
194.864	203.91
195.252	24.09
195.639	-561.11
196.027	215.96
196.414	94.58
196.801	122.26
197.189	141.63
197.576	34.69
197.963	-273.65
198.351	-134.65
198.738	0.5
199.125	-42.29
199.512	23.1
199.899	-27.64
200.286	-17.64
200.673	0.96
201.06	-26.28
201.447	-8.45
201.833	5.5
202.22	9.05
202.607	-79.99
202.994	-87.36
203.38	-20.88
203.767	7.21
204.154	24.71
204.54	13.45
204.927	26.16
205.313	11.5
205.699	-15.44
206.086	15.55
206.472	16.17
206.858	52.15
207.245	-15.01
207.631	5.36
208.017	8.17
208.403	-72.05
208.789	10.92
209.175	-49.33
209.561	7.01
209.947	5.43
210.333	24.08
210.719	15.89
211.105	18.17
211.491	-18.04
211.876	-16.61
212.262	9.51
212.648	-13.53
213.034	-4.93
213.419	13.27
213.805	5.62
214.19	-5.95
214.576	-23.96
214.961	-11.4
215.346	30.43
215.732	-0.87
216.117	-42.89
216.502	5.12
216.888	-40.9
217.273	0.28
217.658	20.56
218.043	14.68
218.428	-22.39
218.813	16.76
219.198	3.48
219.583	0.18
219.968	12.27
220.353	-0.06
220.738	23.11
221.122	-6.6
221.507	3.28
221.892	3.69
222.276	11.88
222.661	2.62
223.046	7.37
223.43	-2.37
223.815	-9.73
224.199	10.81
224.583	6.84
224.968	0.57
225.352	5.11
225.736	-1.31
226.121	0.54
226.505	4.95
226.889	4.96
227.273	-2.34
227.657	0.33
228.041	3.84
228.425	5.03
228.809	8.21
229.193	1.6
229.577	4.48
229.961	2.87
230.344	3.54
230.728	3.75
231.112	4.95
231.495	3.52
231.879	4.35
232.263	3.29
232.646	3.8
233.03	3.84
233.413	4.46
233.797	5.29
234.18	2.04
234.563	0.91
234.946	3.13
235.33	5.07
235.713	2.96
236.096	4.98
236.479	4.72
236.862	4.65
237.245	2.56
237.628	3.5
238.011	4.8
238.394	2.89
238.777	4.26
239.16	3
239.543	3.04
239.925	4.46
240.308	3.93
240.691	6.88
241.073	4.62
241.456	4.84
241.838	4.88
242.221	4.39
242.603	4.35
242.986	5.14
243.368	4.93
243.75	4.31
244.133	4.3
244.515	4.71
244.897	4.58
245.279	4.85
245.661	3.97
246.043	4.16
246.425	4.97
246.807	5.45
247.189	4.16
247.571	4.47
247.953	4.11
248.335	4.32
248.717	4.6
249.098	4.68
249.48	4.49
249.862	4.7
250.243	4.87
250.625	4.81
251.006	4.68
251.388	4.7
251.769	4.34
252.151	5.06
252.532	4.77
252.913	4.5
253.295	4.84
253.676	4.38
254.057	5.07
254.438	5.57
254.819	5.18
255.2	3.17
255.581	4.88
255.962	5.3
256.343	5.7
256.724	4.59
257.105	4.7
257.486	4.63
257.867	4.74
258.247	5.73
258.628	4.19
259.009	3.71
259.389	4.14
259.77	5.28
260.15	5.25
260.531	5.36
260.911	4.35
261.292	4.16
261.672	4.75
262.052	4.46
262.432	4.47
262.813	4.73
263.193	4.05
263.573	4.23
263.953	4.32
264.333	4.1
264.713	4.32
265.093	4.61
265.473	4.52
265.853	5.3
266.233	4.65
266.612	4.71
266.992	4.5
267.372	3.74
267.752	3.88
268.131	5.14
268.511	4.48
268.89	4.58
269.27	4.46
269.649	4.18
270.029	3.96
270.408	4.17
270.787	3.81
271.167	4.68
271.546	5.03
271.925	3.73
272.304	4.54
272.683	4.39
273.062	4.11
273.441	3.98
273.82	4.01
274.199	4.63
274.578	3.94
274.957	4.27
275.336	4.8
275.715	5.01
276.093	4.36
276.472	4.93
276.851	4.46
277.229	3.87
277.608	4.33
277.986	3.87
278.365	4.64
278.743	4.56
279.122	3.61
279.5	4.14
279.878	3.58
280.257	4.58
280.635	3.92
281.013	4.03
281.391	3.67
281.769	4.52
282.147	4.74
282.525	4.14
282.903	4.04
283.281	4.21
283.659	4.59
284.037	4.24
284.415	3.95
284.792	4.09
285.17	3.51
285.548	4.47
285.925	4.05
286.303	4.47
286.68	3.96
287.058	4.23
287.435	4.22
287.813	4.3
288.19	3.95
288.567	4.38
288.945	4.07
289.322	4.44
289.699	3.76
290.076	4.34
290.453	4.14
290.83	4.21
291.207	4.22
291.584	4.25
291.961	4.09
292.338	4.62
292.715	4.66
293.092	4.63
293.469	4.72
293.845	4.14
294.222	4.56
294.599	4.32
294.975	3.92
295.352	4.59
295.728	4.83
296.105	5.1
296.481	4.33
296.858	4.69
297.234	4.45
297.61	4.69
297.986	4.8
298.363	4.48
298.739	4.55
299.115	4.73
299.491	4.41
299.867	4.69
300.243	4.71
300.619	4.63
300.995	4.69
301.371	4.86
301.746	4.88
302.122	5.3
302.498	4.9
302.874	5.34
303.249	4.92
303.625	5.09
304	4.92
304.376	4.88
304.751	4.44
305.127	4.91
305.502	4.66
305.878	5.14
306.253	4.6
306.628	4.71
307.003	5.34
307.378	4.93
307.754	5.48
308.129	4.47
308.504	5.23
308.879	4.73
309.254	4.14
309.629	5.03
310.003	4.9
310.378	4.72
310.753	4.65
311.128	5
311.502	4.95
311.877	4.58
312.252	4.93
312.626	4.92
313.001	5.19
313.375	5.11
313.75	5.2
314.124	4.99
314.498	5.42
314.873	4.85
315.247	4.66
315.621	5.53
315.995	5.34
316.369	5.18
316.743	4.77
317.117	5.28
317.491	4.37
317.865	5.22
318.239	5.25
318.613	5.54
318.987	5.43
319.361	4.76
319.734	5.02
320.108	5.21
320.482	5.19
320.855	4.95
321.229	4.96
321.602	4.89
321.976	5.07
322.349	4.44
322.723	4.89
323.096	5.35
323.469	5.06
323.843	4.72
324.216	5.45
324.589	5.12
324.962	4.57
325.335	4.81
325.708	5.56
326.081	4.51
326.454	4.94
326.827	5.28
327.2	5.24
327.573	4.76
327.945	5.41
328.318	5.16
328.691	5.24
329.063	5.16
329.436	5.13
329.809	5.22
330.181	5.07
330.553	4.71
330.926	5.53
331.298	5.32
331.671	5.04
332.043	5.58
332.415	4.93
332.787	5.16
333.159	5.61
333.532	5.13
333.904	5.28
334.276	4.8
334.648	5.51
335.02	4.88
335.391	4.62
335.763	5.05
336.135	4.34
336.507	4.89
336.879	5.15
337.25	5.59
337.622	5.47
337.993	5.11
338.365	4.65
338.736	4.91
339.108	5.15
339.479	5.14
339.851	5.3
340.222	5.54
340.593	5.03
340.964	5.76
341.336	4.75
341.707	5.13
342.078	4.75
342.449	5.77
342.82	5.24
343.191	5.53
343.562	5.18
343.933	5.42
344.303	5.07
344.674	5.78
345.045	5.1
345.416	5.33
345.786	5.28
346.157	4.99
346.527	5.34
346.898	5.42
347.268	5.22
347.639	5.43
348.009	5.61
348.38	5.22
348.75	5.6
349.12	5.25
349.49	5.5
349.861	5.14
350.231	5.49
350.601	5.08
350.971	5.24
351.341	5.53
351.711	5.65
352.081	5.01
352.45	5.14
352.82	4.63
353.19	5.77
353.56	5.7
353.929	5.29
354.299	5.05
354.669	4.86
355.038	5.27
355.408	5.51
355.777	5.2
356.147	5.29
356.516	5.37
356.885	5.3
357.254	5.23
357.624	5.33
357.993	5.22
358.362	5.34
358.731	5.42
359.1	5.61
359.469	5.55
359.838	5.34
360.207	5.21
360.576	5.27
360.945	5.4
361.314	5.38
361.682	5.13
362.051	5.33
362.42	5.5
362.788	5.29
363.157	5.31
363.525	5.2
363.894	5.22
364.262	5.11
364.631	5.34
364.999	5
365.367	5.13
365.735	5.36
366.104	5.43
366.472	4.98
366.84	5.49
367.208	5.48
367.576	5.15
367.944	5.29
368.312	5.59
368.68	5.03
369.048	5.3
369.416	5.56
369.783	5.86
370.151	5.49
370.519	4.94
370.886	5.34
371.254	5.85
371.621	5.42
371.989	5.46
372.356	5.16
372.724	5.47
373.091	5.13
373.458	5.55
373.826	5.68
374.193	5.68
374.56	5.53
374.927	5.46
375.294	5.49
375.661	5.9
376.028	5.49
376.395	5.43
376.762	5.77
377.129	5.46
377.496	5.5
377.863	5.47
378.229	5.44
378.596	5.26
378.963	5.34
379.329	5.35
379.696	5.22
380.062	5.65
380.429	5.25
380.795	5.55
381.161	5.64
381.528	5.61
381.894	5.2
382.26	5.12
382.626	5.48
382.993	5.41
383.359	5.66
383.725	5.27
384.091	5.54
384.457	5.53
384.823	5.44
385.188	5.49
385.554	5.37
385.92	5.67
386.286	5.33
386.651	5.11
387.017	5.41
387.383	5.54
387.748	5.32
388.114	5.78
388.479	5.53
388.845	5.43
389.21	5.35
389.575	5.34
389.94	5.17
390.306	5.22
390.671	5.57
391.036	5.46
391.401	5.26
391.766	5.44
392.131	5.45
392.496	5.42
392.861	5.27
393.226	5.73
393.591	5.85
393.956	5.57
394.32	5.32
394.685	5.4
395.05	5.47
395.414	5.63
395.779	5.47
396.143	5.77
396.508	5.37
396.872	5.72
397.236	5.22
397.601	5.66
397.965	5.78
398.329	5.27
398.694	5.36
399.058	5.6
399.422	5.2
399.786	5.84
400.15	5.39
400.514	5.43
400.878	5.53
401.242	5.33
401.605	5.52
401.969	5.92
402.333	5.58
402.697	5.12
403.06	5.37
403.424	5.81
403.787	5.06
404.151	5.58
404.514	5.23
404.878	5.62
405.241	5.56
405.604	5.31
405.968	5.3
406.331	5.27
406.694	5.66
407.057	5.43
407.42	5.49
407.783	5.39
408.146	5.51
408.509	5.36
408.872	5.62
409.235	5.2
409.598	5.27
409.961	5.29
410.323	5.47
410.686	5.49
411.049	5.44
411.411	5.36
411.774	5.24
412.136	5.46
412.499	5.24
412.861	5.31
413.223	5.31
413.586	5.44
413.948	5.4
414.31	5.51
414.672	5.26
415.035	5.46
415.397	5.35
415.759	5.64
416.121	5.82
416.483	5.69
416.845	5.49
417.206	5.26
417.568	5.28
417.93	5.37
418.292	5.49
418.653	5.4
419.015	5.44
419.377	5.46
419.738	5.44
420.1	5.46
420.461	5.38
420.822	5.44
421.184	5.3
421.545	5.43
421.906	5.51
422.267	5.53
422.629	5.48
422.99	5.44
423.351	5.49
423.712	5.43
424.073	5.29
424.434	5.4
424.795	5.52
425.155	5.44
425.516	5.42
425.877	5.36
426.238	5.45
426.598	5.45
426.959	5.41
427.32	5.51
427.68	5.43
428.041	5.54
428.401	5.43
428.761	5.66
429.122	5.64
429.482	5.51
429.842	5.65
430.202	5.68
430.563	5.73
430.923	5.56
431.283	5.73
431.643	5.74
432.003	5.9
432.363	5.57
432.722	5.71
433.082	5.51
433.442	5.63
433.802	5.84
434.161	5.92
434.521	5.54
434.881	5.65
435.24	5.76
435.6	5.53
435.959	5.75
436.319	5.49
436.678	5.52
437.037	5.45
437.396	5.63
437.756	5.57
438.115	5.75
438.474	5.55
438.833	5.92
439.192	5.74
439.551	5.77
439.91	5.82
440.269	5.69
440.628	5.8
440.987	5.67
441.345	5.71
441.704	5.72
442.063	5.76
442.421	5.67
442.78	5.66
443.138	5.66
443.497	5.5
443.855	5.78
444.214	5.93
444.572	5.86
444.93	5.88
445.288	5.92
445.647	5.79
446.005	5.97
446.363	5.72
446.721	5.74
447.079	5.69
447.437	5.79
447.795	5.77
448.153	5.69
448.51	5.8
448.868	5.78
449.226	5.83
449.584	5.82
449.941	5.84
450.299	5.83
450.656	5.72
451.014	5.77
451.371	5.81
451.729	6.02
452.086	5.94
452.443	5.79
452.801	6
453.158	5.93
453.515	5.93
453.872	5.94
454.229	5.87
454.586	5.74
454.943	5.85
455.3	5.91
455.657	5.93
456.014	6.04
456.371	6.05
456.727	6.02
457.084	6.01
457.441	6.21
457.797	5.93
458.154	6.09
458.51	5.96
458.867	6.18
459.223	6.06
459.58	5.77
459.936	6.03
460.292	5.84
460.648	5.8
461.005	5.89
461.361	5.89
461.717	5.9
462.073	5.8
462.429	5.96
462.785	5.99
463.141	5.96
463.496	6.21
463.852	6.07
464.208	5.95
464.564	6.2
464.919	6.04
465.275	5.98
465.631	6.21
465.986	6.31
466.342	6.1
466.697	6.08
467.052	5.9
467.408	6.07
467.763	6.16
468.118	6.2
468.473	6.12
468.829	5.97
469.184	6.16
469.539	6.28
469.894	6.07
470.249	6.07
470.603	6.06
470.958	6.3
471.313	6.17
471.668	6.25
472.023	6.12
472.377	6.06
472.732	6.4
473.086	6.3
473.441	6.23
473.795	6.09
474.15	6.05
474.504	6.34
474.859	6.13
475.213	6.19
475.567	6.23
475.921	6.27
476.275	6.33
476.63	6.34
476.984	6.22
477.338	6.27
477.692	6.26
478.045	6.06
478.399	6.22
478.753	6.26
479.107	6.19
479.461	6.21
479.814	6.24
480.168	6.14
480.521	6.26
480.875	6.28
481.228	6.18
481.582	6.45
481.935	6.28
482.289	6.37
482.642	6.17
482.995	6.27
483.348	6.2
483.701	6.18
484.055	6.13
484.408	6.13
484.761	6.09
485.114	5.92
485.466	5.8
485.819	5.87
486.172	5.93
486.525	6.02
486.878	6.03
487.23	6.11
487.583	6.12
487.936	6.16
488.288	6.04
488.641	6.03
488.993	5.98
489.345	6
489.698	6
490.05	5.98
490.402	6.22
490.754	6.15
491.107	6.27
491.459	6.19
491.811	6.32
492.163	6.22
492.515	6.17
492.866	6.27
493.218	6.06
493.57	6.05
493.922	6.21
494.274	6.22
494.625	6.22
494.977	6.36
495.328	6.41
495.68	6.48
496.031	6.34
496.383	6.35
496.734	6.41
497.086	6.33
497.437	6.6
497.788	6.49
498.139	6.52
498.49	6.4
498.842	6.36
499.193	6.42
499.544	6.47
499.894	6.42
500.245	6.57
500.596	6.31
500.947	6.38
501.298	6.45
501.648	6.47
501.999	6.53
502.35	6.67
502.7	6.65
503.051	6.66
503.401	6.53
503.752	6.8
504.102	6.64
504.452	6.61
504.803	6.62
505.153	6.45
505.503	6.71
505.853	6.72
506.203	6.59
506.553	6.72
506.903	6.51
507.253	6.55
507.603	6.57
507.953	6.53
508.303	6.54
508.652	6.75
509.002	6.66
509.352	6.58
509.701	6.74
510.051	6.5
510.4	6.65
510.75	6.58
511.099	6.49
511.449	6.59
511.798	6.67
512.147	6.65
512.496	6.68
512.846	6.55
513.195	6.7
513.544	6.67
513.893	6.55
514.242	6.73
514.591	6.62
514.939	6.71
515.288	6.69
515.637	6.81
515.986	6.79
516.334	6.67
516.683	6.73
517.032	6.89
517.38	6.75
517.729	6.71
518.077	6.84
518.426	6.68
518.774	6.8
519.122	6.8
519.47	6.71
519.819	6.73
520.167	6.59
520.515	6.56
520.863	6.64
521.211	6.71
521.559	6.87
521.907	6.83
522.255	6.81
522.602	6.84
522.95	6.77
523.298	6.71
523.645	6.87
523.993	6.98
524.341	6.86
524.688	7.02
525.036	6.94
525.383	6.87
525.73	7.09
526.078	6.91
526.425	6.94
526.772	6.84
527.119	6.83
527.466	6.82
527.814	6.77
528.161	6.86
528.508	6.88
528.854	6.83
529.201	6.8
529.548	6.71
529.895	6.61
530.242	6.56
530.588	6.57
530.935	6.68
531.282	6.77
531.628	6.74
531.975	6.8
532.321	6.9
532.667	7.02
533.014	7.01
533.36	6.98
533.706	7.14
534.052	6.96
534.399	6.87
534.745	6.88
535.091	6.78
535.437	6.87
535.783	6.86
536.129	7.07
536.474	7
536.82	7.02
537.166	7.12
537.512	7.03
537.857	7.13
538.203	7.16
538.549	7
538.894	7.15
539.239	7.22
539.585	7.19
539.93	7.02
540.276	7.34
540.621	7.17
540.966	7.22
541.311	7.23
541.656	7.14
542.001	7.14
542.346	7.15
542.691	7.05
543.036	7.06
543.381	7
543.726	7.09
544.071	7.17
544.415	7.17
544.76	7.24
545.105	7.23
545.449	7.29
545.794	7.37
546.138	7.3
546.483	7.25
546.827	7.58
547.171	7.49
547.516	7.53
547.86	7.57
548.204	7.45
548.548	7.4
548.892	7.47
549.236	7.55
549.58	7.5
549.924	7.45
550.268	7.65
550.612	7.69
550.956	7.64
551.3	7.7
551.643	7.67
551.987	7.69
552.33	7.91
552.674	7.76
553.017	7.7
553.361	7.68
553.704	7.8
554.048	7.62
554.391	7.66
554.734	7.83
555.077	7.77
555.42	7.8
555.764	7.82
556.107	8.02
556.45	7.75
556.793	7.84
557.135	8.05
557.478	7.93
557.821	7.93
558.164	7.88
558.507	8.07
558.849	8.16
559.192	7.96
559.534	7.99
559.877	8.09
560.219	8.1
560.562	8.18
560.904	8.24
561.246	7.92
561.589	8.03
561.931	8.08
562.273	8.35
562.615	8.14
562.957	8.23
563.299	8.25
563.641	8.18
563.983	8.39
564.325	8.13
564.667	8.23
565.008	8.24
565.35	8.3
565.692	8.35
566.033	8.37
566.375	8.31
566.716	8.32
567.058	8.57
567.399	8.56
567.741	8.36
568.082	8.43
568.423	8.39
568.764	8.28
569.105	8.36
569.447	8.48
569.788	8.58
570.129	8.5
570.47	8.51
570.811	8.36
571.151	8.61
571.492	8.5
571.833	8.66
572.174	8.45
572.514	8.57
572.855	8.51
573.195	8.74
573.536	8.66
573.876	8.7
574.217	8.62
574.557	8.61
574.898	8.78
575.238	8.69
575.578	8.93
575.918	8.79
576.258	8.86
576.598	8.88
576.938	9.08
577.278	8.8
577.618	8.74
577.958	8.96
578.298	8.99
578.638	8.95
578.977	9.03
579.317	9.17
579.657	9.16
579.996	9.09
580.336	9.55
580.675	9.44
581.014	9.27
581.354	9.01
581.693	9.32
582.032	9.35
582.372	9.2
582.711	9.36
583.05	9.26
583.389	9.46
583.728	9.12
584.067	9.37
584.406	9.27
584.745	9.43
585.083	9.18
585.422	9.57
585.761	9.45
586.1	9.55
586.438	9.53
586.777	9.72
587.115	9.5
587.454	9.17
587.792	9.65
588.13	9.62
588.469	9.52
588.807	9.81
589.145	9.77
589.483	9.74
589.821	9.61
590.159	9.61
590.497	9.68
590.835	9.92
591.173	9.83
591.511	9.91
591.849	9.71
592.187	9.94
592.524	9.74
592.862	9.81
593.2	9.89
593.537	9.94
593.875	9.95
594.212	10.15
594.55	10.21
594.887	10.24
595.224	10.18
595.561	10.15
595.899	10.2
596.236	10.22
596.573	10.15
596.91	10.2
597.247	10.35
597.584	10.25
597.921	9.96
598.258	10.09
598.594	10.04
598.931	10.09
599.268	10.08
599.604	10.42
599.941	10.33
600.277	10.6
600.614	10.51
600.95	10.57
601.287	10.59
601.623	10.61
601.959	10.62
602.296	10.3
602.632	10.58
602.968	10.69
603.304	10.46
603.64	10.75
603.976	10.71
604.312	10.64
604.648	10.67
604.984	10.43
605.319	10.94
605.655	10.68
605.991	10.54
606.326	10.69
606.662	10.87
606.998	10.59
607.333	10.57
607.668	11.05
608.004	10.89
608.339	10.94
608.674	10.85
609.01	10.8
609.345	11.02
609.68	10.98
610.015	11.14
610.35	11.04
610.685	11.12
611.02	11.19
611.355	10.94
611.689	11.2
612.024	11
612.359	11.24
612.694	11.47
613.028	11.13
613.363	11.45
613.697	11.44
614.032	11.75
614.366	11.49
614.7	11.28
615.035	11.29
615.369	11.22
615.703	11.42
616.037	11.75
616.371	11.86
616.705	11.63
617.039	11.48
617.373	11.54
617.707	11.35
618.041	11.54
618.375	12.09
618.709	11.7
619.042	11.91
619.376	11.5
619.71	11.57
620.043	11.73
620.377	12.25
620.71	12.04
621.043	12.26
621.377	12.14
621.71	12.1
622.043	12.18
622.376	12.07
622.709	12.18
623.043	12
623.376	12.16
623.709	11.8
624.041	12.21
624.374	12.3
624.707	11.97
625.04	12.3
625.373	12.54
625.705	12.47
626.038	12.17
626.37	11.97
626.703	12.05
627.035	12.11
627.368	12.39
627.7	12.89
628.032	12.63
628.365	12.75
628.697	12.24
629.029	12.57
629.361	12.44
629.693	12.66
630.025	12.87
630.357	13.13
630.689	12.64
631.021	12.73
631.353	12.58
631.684	12.62
632.016	12.87
632.348	12.8
632.679	13.18
633.011	13.22
633.342	12.32
633.674	12.77
634.005	13.1
634.336	12.84
634.668	13.19
634.999	12.76
635.33	13.13
635.661	12.95
635.992	12.79
636.323	13.25
636.654	13.17
636.985	13.15
637.316	13.08
637.647	13.2
637.977	12.91
638.308	13.44
638.639	13.43
638.969	13.08
639.3	13.63
639.63	13.43
639.961	13.81
640.291	13.21
640.622	13.8
640.952	12.76
641.282	13.23
641.612	13.67
641.943	14.08
642.273	13.84
642.603	13.51
642.933	13.81
643.263	13.94
643.592	13.82
643.922	13.9
644.252	13.93
644.582	13.42
644.911	13.67
645.241	13.89
645.571	13.85
645.9	13.3
646.23	14.03
646.559	13.88
646.888	14.24
647.218	13.64
647.547	14.23
647.876	14.12
648.205	13.86
648.534	13.73
648.863	14.09
649.192	14.4
649.521	14.41
649.85	14.69
650.179	13.77
650.508	14.98
650.837	14.53
651.165	14.29
651.494	14.38
651.822	14.19
652.151	14.16
652.479	14.2
652.808	14.31
653.136	14.36
653.465	14.15
653.793	14.32
654.121	14.76
654.449	14.89
654.777	14.6
655.105	14.2
655.433	15.07
655.761	14.88
656.089	14.26
656.417	14.74
656.745	14.99
657.073	15.15
657.4	15.05
657.728	15.34
658.056	15.39
658.383	15.02
658.711	15.31
659.038	14.79
659.365	15.5
659.693	15.38
660.02	15.26
660.347	14.77
660.674	15.1
661.001	14.76
661.329	14.99
661.656	15.08
661.982	15.28
662.309	15.6
662.636	15.32
662.963	15.16
663.29	15.68
663.616	15.34
663.943	15.37
664.27	16
664.596	15.59
664.923	15.59
665.249	15.13
665.576	15.35
665.902	15.37
666.228	16.35
666.554	15.43
666.881	16.15
667.207	15.76
667.533	15.5
667.859	15.65
668.185	15.79
668.511	15.3
668.837	16.08
669.162	15.87
669.488	15.7
669.814	15.76
670.139	16.24
670.465	15.68
670.791	16.17
671.116	16
671.442	15.82
671.767	15.81
672.092	16.13
672.418	15.94
672.743	16.13
673.068	15.93
673.393	16.24
673.718	16.47
674.043	16.58
674.368	17.02
674.693	15.99
675.018	16.76
675.343	17.06
675.667	17.23
675.992	16.66
676.317	16.22
676.641	16.33
676.966	16.5
677.29	16.55
677.615	17.06
677.939	16.4
678.264	16.68
678.588	17.11
678.912	16.4
679.236	16.19
679.56	17.47
679.885	16.85
680.209	17.05
680.532	17.09
680.856	17.17
681.18	16.84
681.504	17.59
681.828	16.78
682.152	16.89
682.475	17.56
682.799	16.92
683.122	17.47
683.446	17.53
683.769	17.63
684.093	17.15
684.416	17.25
684.739	17.5
685.062	16.91
685.386	17.65
685.709	17.18
686.032	17.65
686.355	17.37
686.678	17.82
687.001	17.55
687.324	17.9
687.646	17.61
687.969	17.83
688.292	18.06
688.614	17.08
688.937	17.49
689.26	17.79
689.582	17.86
689.904	18.77
690.227	17.83
690.549	17.55
690.871	17.93
691.194	17.9
691.516	17.58
691.838	17.65
692.16	17.87
692.482	17.87
692.804	18.4
693.126	18.44
693.448	17.89
693.769	18.74
694.091	17.78
694.413	19.16
694.735	17.97
695.056	17.86
695.378	18.48
695.699	17.76
696.021	18.04
696.342	18.1
696.663	18.04
696.984	18.36
697.306	19.16
697.627	17.91
697.948	18.72
698.269	19.34
698.59	19.25
698.911	19.7
699.232	18.18
699.553	18.44
699.873	19.51
700.194	19
700.515	18.64
700.835	18.7
701.156	18.78
701.477	18.96
701.797	18.87
702.117	18.69
702.438	18.49
702.758	18.54
703.078	19.44
703.398	18.68
703.719	19.73
704.039	19.97
704.359	19.13
704.679	19.05
704.999	18.23
705.319	18.79
705.638	18.7
705.958	19.31
706.278	19.18
706.597	19.48
706.917	18.45
707.237	18.76
707.556	20.43
707.876	18.83
708.195	20.25
708.514	20.07
708.834	20.21
709.153	20.31
709.472	19.34
709.791	19.95
710.11	20.54
710.429	19.91
710.748	18.94
711.067	19.95
711.386	19.58
711.705	20.33
712.023	19.74
712.342	18.64
712.661	20.14
712.979	20.47
713.298	19.09
713.616	20.61
713.935	20.88
714.253	20.15
714.572	19.77
714.89	20.22
715.208	20.51
715.526	19.83
715.844	20.77
716.162	19.88
716.48	20.6
716.798	20.58
717.116	20.94
717.434	21.93
717.752	20.42
718.069	21.22
718.387	19.94
718.705	20.38
719.022	20.96
719.34	20.21
719.657	21.94
719.975	20.23
720.292	21.5
720.609	20.7
720.927	22.03
721.244	20.69
721.561	21.33
721.878	21.04
722.195	22.49
722.512	21.07
722.829	21.35
723.146	20.63
723.463	20.61
723.779	20.87
724.096	20.54
724.413	20.65
724.729	21.09
725.046	19.36
725.362	20.91
725.679	21.88
725.995	20.51
726.311	21.13
726.628	20.34
726.944	22.34
727.26	20.33
727.576	21.53
727.892	19.87
728.208	22.31
728.524	20.35
728.84	21.86
729.156	21.94
729.472	21.55
729.787	21.86
730.103	22.42
730.419	21.88
730.734	21.53
731.05	22.12
731.365	22.49
731.681	22.16
731.996	22.33
732.311	22.79
732.626	22.69
732.942	21.8
733.257	21.65
733.572	22.05
733.887	21.8
734.202	22.47
734.517	20.92
734.832	21.93
735.146	22.01
735.461	23.08
735.776	22.05
736.091	21.73
736.405	23.05
736.72	22.63
737.034	21.53
737.349	21.43
737.663	22.87
737.977	22.08
738.292	22.84
738.606	19.9
738.92	22.37
739.234	23.66
739.548	23.94
739.862	23.09
740.176	21.91
740.49	23.67
740.804	22.5
741.117	23.13
741.431	23.47
741.745	22.74
742.058	23.24
742.372	22.25
742.685	22.03
742.999	23.56
743.312	22.28
743.626	23.32
743.939	22.28
744.252	23.86
744.565	21.1
744.878	21.28
745.191	23.24
745.505	23.02
745.817	23.88
746.13	23.65
746.443	23.37
746.756	24.72
747.069	23.44
747.381	24.06
747.694	23.61
748.007	23.8
748.319	23.08
748.632	21.37
748.944	25.53
749.256	22.25
749.569	21.08
749.881	23.57
750.193	23.3
750.505	25.25
750.817	24.32
751.129	24.81
751.441	23.25
751.753	26.8
752.065	23.33
752.377	24.77
752.689	24.55
753	27.07
753.312	25.06
753.624	21.34
753.935	25.37
754.247	23.81
754.558	24.71
754.869	22.82
755.181	24.89
755.492	23.53
755.803	23.7
756.114	24.19
756.425	24.75
756.736	23.77
757.047	24.1
757.358	23.69
757.669	23.55
757.98	25.37
758.291	23.74
758.601	23.87
758.912	24.98
759.223	24.31
759.533	23.36
759.844	25.45
760.154	23.57
760.464	24.91
760.775	25.6
761.085	26.22
761.395	24.99
761.705	25.49
762.016	23.89
762.326	27.2
762.636	25.64
762.945	23.79
763.255	24.97
763.565	24.21
763.875	24.89
764.185	28.28
764.494	25.79
764.804	26.02
765.113	27.29
765.423	25.39
765.732	25.06
766.042	25.86
766.351	25.85
766.66	24.89
766.97	25.8
767.279	24.96
767.588	25.74
767.897	26.94
768.206	25.34
768.515	25.93
768.824	26.9
769.133	27.22
769.441	24.48
769.75	26.48
770.059	25.31
770.367	26.78
770.676	26.41
770.984	23.52
771.293	29.66
771.601	24.66
771.91	24.37
772.218	24.6
772.526	23.29
772.834	27.64
773.142	25.32
773.45	27.82
773.758	26.35
774.066	25.87
774.374	26.06
774.682	25.72
774.99	25.37
775.298	22.89
775.605	29.72
775.913	23.94
776.22	28.2
776.528	27.43
776.835	30.96
777.143	28.71
777.45	25.09
777.757	24.18
778.065	26.48
778.372	24.87
778.679	27.62
778.986	28.04
779.293	26.41
779.6	25.49
779.907	22.82
780.214	27.32
780.52	29.93
780.827	29.12
781.134	28.18
781.44	27.62
781.747	25.68
782.053	27.56
782.36	29.73
782.666	26.26
782.973	23.13
783.279	29.52
783.585	27.15
783.891	28.06
784.197	26.74
784.503	23.99
784.809	33.24
785.115	24.13
785.421	30.47
785.727	30.69
786.033	26.42
786.339	28.35
786.644	29.44
786.95	24.55
787.255	27.23
787.561	23.21
787.866	30.3
788.172	25.94
788.477	24.71
788.782	31.58
789.088	30.84
789.393	28.77
789.698	27.83
790.003	29.48
790.308	26.8
790.613	30.91
790.918	29.95
791.223	26.45
791.527	31.36
791.832	28.32
792.137	29.16
792.441	27.55
792.746	27.56
793.05	30.5
793.355	25.62
793.659	25.95
793.963	28.4
794.268	25.22
794.572	28.85
794.876	30.67
795.18	33.09
795.484	25.66
795.788	27.81
796.092	23.01
796.396	28.47
796.7	28.09
797.004	27.12
797.307	28.36
797.611	26.94
797.915	29.2
798.218	27.45
798.522	25.04
798.825	27.3
799.128	31.39
799.432	27.71
799.735	26.78
800.038	26.2
800.341	31.01
800.644	26.68
800.947	27.78
801.25	30.43
801.553	25.13
801.856	27.4
802.159	29.85
802.462	24.54
802.764	27.06
803.067	28.46
803.37	25.97
803.672	27.54
803.975	25.59
804.277	24.72
804.579	27.38
804.882	30.04
805.184	25.74
805.486	28.37
805.788	30.93
806.09	21.96
806.392	27.12
806.694	27.41
806.996	29.32
807.298	28.86
807.6	24.54
807.902	26.13
808.203	30.03
808.505	33.13
808.807	27.79
809.108	30.76
809.409	33.33
809.711	28.25
810.012	32.03
810.313	28.81
810.615	30.31
810.916	31.38
811.217	23.87
811.518	28.17
811.819	28.46
812.12	28.79
812.421	34.28
812.722	29.55
813.023	31.42
813.323	32.77
813.624	26.37
813.925	27.7
814.225	20.62
814.526	33.31
814.826	26.2
815.126	31.23
815.427	29.39
815.727	30.35
816.027	38.72
816.327	33.85
816.627	31.84
816.927	30.17
817.227	35.47
817.527	36.93
817.827	24.29
818.127	30.34
818.427	27.44
818.727	37.15
819.026	26.57
819.326	32.24
819.625	29.41
819.925	38.85
820.224	32.93
820.524	32.71
820.823	28.64
821.122	29.76
821.421	32.31
821.72	24.1
822.019	31.15
822.318	31.54
822.617	36.54
822.916	32.93
823.215	33.85
823.514	30.71
823.813	32.79
824.111	33.38
824.41	31.69
824.709	32.32
825.007	33.15
825.306	33.73
825.604	33.37
825.902	33.42
826.201	32.59
826.499	33.76
826.797	34.28
827.095	34.6
827.393	31.76
827.691	32.51
827.989	32.51
828.287	33.38
828.585	34.23
828.882	33.43
829.18	34.15
829.478	31.84
829.775	32.69
830.073	32.79
830.37	33.5
830.668	34.12
830.965	32.98
831.263	35.72
831.56	31.93
831.857	33.92
832.154	33.45
832.451	33.01
832.748	29.95
833.045	31.48
833.342	31.14
833.639	34.05
833.936	35.48
834.232	36.08
834.529	30.8
834.826	35.68
835.122	36.71
835.419	34.3
835.715	36.85
836.012	31.04
836.308	36.15
836.604	31.49
836.901	35.99
837.197	33.76
837.493	33.81
837.789	37.57
838.085	37.04
838.381	32.66
838.677	37.13
838.972	30.7
839.268	35.04
839.564	30.76
839.86	27.83
840.155	30.85
840.451	32.03
840.746	33.55
841.042	29.9
841.337	25.69
841.632	33.8
841.928	30.27
842.223	31.42
842.518	34.07
842.813	27.95
843.108	28.82
843.403	37.2
843.698	32.51
843.993	21.75
844.287	39
844.582	23.73
844.877	24.22
845.171	21.12
845.466	28.12
845.761	32.72
846.055	14.75
846.349	19.83
846.644	27.13
846.938	41.57
847.232	4
847.526	24.06
847.82	22.07
848.114	27.05
848.408	4.76
848.702	18.66
848.996	32.63
849.29	36.25
849.584	30.18
849.877	31.04
850.171	29.85
850.465	24.91
850.758	33.55
851.052	50
851.345	18.67
851.638	33.4
851.932	13.69
852.225	26.48
852.518	35.77
852.811	34.82
853.104	16.93
853.397	50.29
853.69	31.64
853.983	24.6
854.276	10.84
854.569	24.55
854.861	39.36
855.154	33.61
855.447	13.88
855.739	35.5
856.032	25.27
856.324	15.65
856.616	36
856.909	41.67
857.201	46.97
857.493	42.58
857.785	45.11
858.077	42.83
858.369	-36.64
858.661	35.94
858.953	-42.54
859.245	13.55
859.537	17.85
859.829	-6.59
860.12	9.54
860.412	60.08
860.703	23.01
860.995	28.06
861.286	34.63
861.578	22.98
861.869	56.95
862.16	25.33
862.452	8.85
862.743	9.39
863.034	12.04
863.325	26.13
863.616	40.73
863.907	34.69
864.198	18.16
864.488	38.11
864.779	36.95
865.07	12.61
865.36	10.08
865.651	30.75
865.941	24.88
866.232	36.91
866.522	23.71
866.813	20.56
867.103	5.45
867.393	16.1
867.683	18.91
867.973	42.92
868.263	40.6
868.553	34.95
868.843	37.54
869.133	29.21
869.423	8.33
869.713	25.53
870.002	39.59
870.292	-9
870.582	6.6
870.871	6.93
871.161	9.59
871.45	57.21
871.739	2.94
872.029	11.69
872.318	13.4
872.607	20.82
872.896	11.58
873.185	4.21
873.474	24.7
873.763	30.87
874.052	28.86
874.341	-16.81
874.63	21.01
874.918	19.85
875.207	-1.85
875.496	19.44
875.784	25.53
876.073	-3.67
876.361	6.44
876.649	19.64
876.938	37.41
877.226	18.94
877.514	41.03
877.802	5.44
878.09	35.74
878.378	25.86
878.666	18.99
878.954	16.08
879.242	-29.96
879.53	46.59
879.817	29.86
880.105	11.18
880.392	-8.55
880.68	34.56
880.967	56.78
881.255	52.81
881.542	12.93
881.83	54.66
882.117	31.89
882.404	45.86
882.691	58.33
882.978	8.73
883.265	23.07
883.552	21.29
883.839	24.65
884.126	41.39
884.413	34.46
884.699	39.9
884.986	36.31
885.273	38.8
885.559	38.8
885.846	38.8
