Data from 815652_chest_Reflection__3__43.txt Node

Date: Fri Sep 16 14:47:23 CDT 2022
User: ToomeyLab
Spectrometer: FLMS14357
Trigger mode: 0
Integration Time (sec): 1.000000E-2
Scans to average: 100
Electric dark correction enabled: true
Nonlinearity correction enabled: false
Boxcar width: 0
XAxis mode: Wavelengths
Number of Pixels in Spectrum: 2048
>>>>>Begin Spectral Data<<<<<
189.047	-190.04
189.435	-190.04
189.823	-190.04
190.211	-349.04
190.599	-170.38
190.987	88.71
191.375	96.9
191.763	-4.13
192.151	-104.3
192.538	-80.9
192.926	16.12
193.314	-141.48
193.702	259.43
194.089	67.1
194.477	32.76
194.864	5
195.252	1211
195.639	42.99
196.027	226.69
196.414	445.61
196.801	61.3
197.189	52.32
197.576	152.79
197.963	361.14
198.351	-52.72
198.738	40.38
199.125	48.79
199.512	-94.42
199.899	8.33
200.286	-8.03
200.673	21.96
201.06	29.91
201.447	39.25
201.833	48.22
202.22	37.34
202.607	-5.5
202.994	4.88
203.38	27.65
203.767	-3.25
204.154	39.61
204.54	-12.88
204.927	-77.61
205.313	25.06
205.699	23.74
206.086	6.4
206.472	-9.37
206.858	28.06
207.245	27.7
207.631	31.87
208.017	24.15
208.403	5.29
208.789	10
209.175	26.99
209.561	30.71
209.947	-2.25
210.333	15.57
210.719	11.48
211.105	-3.26
211.491	13.29
211.876	13.16
212.262	18.38
212.648	0.09
213.034	37.28
213.419	18.02
213.805	1.21
214.19	9.73
214.576	-6.94
214.961	12.34
215.346	-5.93
215.732	-66.64
216.117	22.42
216.502	7.65
216.888	-52.58
217.273	15.08
217.658	6.92
218.043	-60.57
218.428	1.92
218.813	14.18
219.198	10.82
219.583	18.07
219.968	8.57
220.353	-3.81
220.738	-2.6
221.122	-18.3
221.507	26.3
221.892	7.48
222.276	13.09
222.661	17.29
223.046	2.15
223.43	11.01
223.815	7.53
224.199	5.93
224.583	6.51
224.968	9.38
225.352	6.28
225.736	10.68
226.121	12.05
226.505	5.96
226.889	7.45
227.273	3.41
227.657	7.32
228.041	6.11
228.425	0.08
228.809	9.15
229.193	4.62
229.577	3.44
229.961	5.84
230.344	4.71
230.728	5.04
231.112	5.16
231.495	5.33
231.879	6.77
232.263	4.85
232.646	3.16
233.03	3.79
233.413	5.85
233.797	2.77
234.18	6.41
234.563	3.44
234.946	4.06
235.33	5.54
235.713	4.08
236.096	4.29
236.479	5.09
236.862	5.31
237.245	3.81
237.628	7.46
238.011	4.35
238.394	4.62
238.777	6.55
239.16	5.33
239.543	6.41
239.925	4.87
240.308	2.32
240.691	3.67
241.073	3.75
241.456	4.23
241.838	4.25
242.221	4.04
242.603	4.14
242.986	3.93
243.368	4.15
243.75	4.14
244.133	4.66
244.515	4.32
244.897	5.17
245.279	3.9
245.661	4.25
246.043	4.11
246.425	4.2
246.807	4.58
247.189	4.74
247.571	4.1
247.953	4.57
248.335	4.41
248.717	4.42
249.098	4.35
249.48	4.15
249.862	4.57
250.243	4.54
250.625	4.77
251.006	4.65
251.388	4.72
251.769	4.54
252.151	4.25
252.532	4.29
252.913	4.06
253.295	4.42
253.676	4.68
254.057	4.05
254.438	3.55
254.819	3.37
255.2	3.87
255.581	5.1
255.962	4.66
256.343	5.64
256.724	4.24
257.105	2.95
257.486	3.8
257.867	4.06
258.247	5.19
258.628	4.76
259.009	4.37
259.389	4.56
259.77	4.43
260.15	4.3
260.531	3.93
260.911	4.3
261.292	4.03
261.672	4.1
262.052	3.72
262.432	3.98
262.813	4.3
263.193	3.68
263.573	4.03
263.953	3.52
264.333	4.21
264.713	3.51
265.093	3.59
265.473	4.21
265.853	5.03
266.233	3.95
266.612	4.77
266.992	3.85
267.372	4.1
267.752	3.36
268.131	3.84
268.511	4.86
268.89	4.32
269.27	3.56
269.649	4.12
270.029	3.76
270.408	3.72
270.787	4.47
271.167	3.68
271.546	3.75
271.925	4.18
272.304	3.85
272.683	3.4
273.062	3.77
273.441	4.02
273.82	3.72
274.199	3.96
274.578	3.74
274.957	4.23
275.336	3.98
275.715	4.26
276.093	3.86
276.472	3.52
276.851	3.86
277.229	3.92
277.608	3.92
277.986	4.33
278.365	3.18
278.743	4.58
279.122	4.02
279.5	3.73
279.878	3.77
280.257	4.25
280.635	3.95
281.013	3.89
281.391	3.43
281.769	3.62
282.147	3.81
282.525	3.18
282.903	4.2
283.281	3.76
283.659	4
284.037	3.77
284.415	4.06
284.792	4.23
285.17	3.91
285.548	3.45
285.925	3.5
286.303	4.05
286.68	3.43
287.058	3.84
287.435	3.77
287.813	4.2
288.19	3.82
288.567	3.93
288.945	4.06
289.322	3.95
289.699	4.2
290.076	3.53
290.453	4.13
290.83	4.05
291.207	3.49
291.584	3.56
291.961	4.05
292.338	4.34
292.715	3.41
293.092	4.17
293.469	4.17
293.845	4.1
294.222	4.04
294.599	3.68
294.975	3.52
295.352	4.03
295.728	3.92
296.105	4.26
296.481	3.55
296.858	3.77
297.234	4.21
297.61	4.25
297.986	4.17
298.363	3.94
298.739	3.72
299.115	4.01
299.491	4.1
299.867	4.12
300.243	3.86
300.619	4.09
300.995	3.97
301.371	4.19
301.746	3.86
302.122	4.64
302.498	4.1
302.874	4.04
303.249	4.47
303.625	3.99
304	3.7
304.376	3.69
304.751	3.78
305.127	3.72
305.502	3.97
305.878	4.3
306.253	4.43
306.628	3.63
307.003	3.8
307.378	4.15
307.754	4.47
308.129	4.5
308.504	4.54
308.879	4.39
309.254	3.96
309.629	4.01
310.003	4.12
310.378	3.73
310.753	4.08
311.128	4.23
311.502	3.9
311.877	4.1
312.252	4.53
312.626	3.95
313.001	4.19
313.375	4.41
313.75	3.98
314.124	3.81
314.498	4.29
314.873	4.76
315.247	3.98
315.621	4.24
315.995	3.59
316.369	3.96
316.743	4.43
317.117	4.44
317.491	4.04
317.865	4.2
318.239	4.65
318.613	4.24
318.987	4.12
319.361	3.82
319.734	4.39
320.108	4.29
320.482	4.56
320.855	4.48
321.229	4.12
321.602	4.29
321.976	3.87
322.349	4.43
322.723	4.08
323.096	4.41
323.469	4.55
323.843	4.65
324.216	4.67
324.589	4.72
324.962	4.07
325.335	4.8
325.708	4.65
326.081	4.57
326.454	4.51
326.827	4.12
327.2	3.86
327.573	3.91
327.945	4.42
328.318	4.02
328.691	3.8
329.063	3.5
329.436	3.87
329.809	3.45
330.181	4.59
330.553	4.74
330.926	4.34
331.298	4.45
331.671	4.01
332.043	3.97
332.415	4.34
332.787	4.23
333.159	4.27
333.532	4.62
333.904	4.11
334.276	4.34
334.648	3.94
335.02	4.4
335.391	4.12
335.763	3.83
336.135	3.71
336.507	4.44
336.879	4.25
337.25	3.78
337.622	4.14
337.993	4.43
338.365	4.27
338.736	4.79
339.108	4.46
339.479	4.13
339.851	4.2
340.222	4.51
340.593	4.24
340.964	4.17
341.336	4.27
341.707	4.18
342.078	4.6
342.449	4.67
342.82	4.6
343.191	3.89
343.562	4.46
343.933	4.54
344.303	4.54
344.674	3.71
345.045	4.59
345.416	4.64
345.786	4.49
346.157	4.62
346.527	4.58
346.898	4.19
347.268	4.55
347.639	4.06
348.009	4.27
348.38	4.75
348.75	3.77
349.12	4.39
349.49	4.58
349.861	4.25
350.231	4.46
350.601	4.5
350.971	4.29
351.341	4.46
351.711	4.49
352.081	4.12
352.45	4.48
352.82	4.35
353.19	4.28
353.56	4.26
353.929	4.59
354.299	4.5
354.669	4.36
355.038	4.22
355.408	4.41
355.777	4.3
356.147	4.45
356.516	4.59
356.885	4.32
357.254	4.58
357.624	4.27
357.993	4.52
358.362	4.25
358.731	4.55
359.1	4.48
359.469	4.42
359.838	4.4
360.207	4.96
360.576	4.55
360.945	4.4
361.314	4.15
361.682	4.28
362.051	4.51
362.42	4.72
362.788	4.62
363.157	4.39
363.525	4.17
363.894	4.52
364.262	4.38
364.631	4.27
364.999	4.38
365.367	4.33
365.735	4.41
366.104	4.51
366.472	4.71
366.84	4.47
367.208	4.92
367.576	4.27
367.944	4.14
368.312	4.18
368.68	4.52
369.048	4.43
369.416	4.3
369.783	4.37
370.151	4.55
370.519	4.52
370.886	4.56
371.254	4.21
371.621	4.45
371.989	4.67
372.356	4.7
372.724	4.52
373.091	4.45
373.458	4.53
373.826	4.45
374.193	4.98
374.56	4.06
374.927	4.56
375.294	4.5
375.661	4.16
376.028	4.67
376.395	4.23
376.762	5.09
377.129	4.36
377.496	4.67
377.863	4.52
378.229	4.98
378.596	4.34
378.963	4.43
379.329	4.56
379.696	4.83
380.062	4.41
380.429	4.39
380.795	4.6
381.161	4.71
381.528	4.71
381.894	4.8
382.26	4.62
382.626	4.34
382.993	4.26
383.359	4.42
383.725	4.5
384.091	4.75
384.457	4.26
384.823	4.42
385.188	4.4
385.554	4.43
385.92	4.53
386.286	4.81
386.651	4.49
387.017	4.71
387.383	4.32
387.748	4.19
388.114	4.32
388.479	4.79
388.845	4.56
389.21	4.8
389.575	4.59
389.94	4.79
390.306	4.33
390.671	4.61
391.036	4.62
391.401	4.75
391.766	4.84
392.131	4.76
392.496	4.51
392.861	4.6
393.226	4.57
393.591	4.66
393.956	4.66
394.32	4.97
394.685	4.4
395.05	4.82
395.414	4.56
395.779	4.64
396.143	4.84
396.508	4.43
396.872	4.75
397.236	4.74
397.601	4.65
397.965	4.58
398.329	4.58
398.694	4.73
399.058	4.66
399.422	4.62
399.786	4.74
400.15	4.89
400.514	4.59
400.878	4.83
401.242	4.71
401.605	4.51
401.969	4.63
402.333	4.86
402.697	4.66
403.06	4.76
403.424	4.67
403.787	4.56
404.151	4.64
404.514	4.76
404.878	4.52
405.241	4.52
405.604	4.88
405.968	4.8
406.331	4.6
406.694	4.58
407.057	4.6
407.42	4.66
407.783	4.8
408.146	4.93
408.509	4.89
408.872	4.88
409.235	4.95
409.598	4.67
409.961	4.73
410.323	4.94
410.686	4.91
411.049	4.63
411.411	4.67
411.774	4.85
412.136	4.7
412.499	4.81
412.861	4.7
413.223	4.77
413.586	5.01
413.948	4.69
414.31	4.95
414.672	4.82
415.035	5.01
415.397	4.69
415.759	4.76
416.121	4.88
416.483	4.98
416.845	4.93
417.206	4.97
417.568	4.97
417.93	4.78
418.292	4.77
418.653	4.86
419.015	4.73
419.377	4.86
419.738	4.79
420.1	4.9
420.461	4.89
420.822	4.72
421.184	4.75
421.545	4.81
421.906	4.73
422.267	4.84
422.629	4.67
422.99	4.69
423.351	4.74
423.712	4.58
424.073	4.81
424.434	4.86
424.795	4.72
425.155	4.78
425.516	4.82
425.877	4.71
426.238	4.68
426.598	4.76
426.959	4.76
427.32	4.71
427.68	4.95
428.041	4.75
428.401	4.86
428.761	4.93
429.122	4.82
429.482	4.88
429.842	4.87
430.202	5.1
430.563	4.92
430.923	4.79
431.283	5.2
431.643	5.18
432.003	4.94
432.363	4.89
432.722	5.03
433.082	5.04
433.442	5.08
433.802	5.02
434.161	4.89
434.521	4.93
434.881	4.91
435.24	4.79
435.6	4.98
435.959	4.93
436.319	5.03
436.678	5
437.037	4.78
437.396	4.95
437.756	5.07
438.115	4.9
438.474	4.94
438.833	5.08
439.192	4.94
439.551	4.97
439.91	5
440.269	5.09
440.628	4.88
440.987	4.85
441.345	4.97
441.704	5.16
442.063	4.97
442.421	4.81
442.78	4.96
443.138	4.94
443.497	4.91
443.855	4.99
444.214	4.97
444.572	5.01
444.93	5.09
445.288	5.05
445.647	4.98
446.005	5.01
446.363	5.08
446.721	5.11
447.079	4.91
447.437	5.05
447.795	5.01
448.153	5.09
448.51	4.97
448.868	4.95
449.226	5.09
449.584	5.01
449.941	5.1
450.299	4.93
450.656	5.06
451.014	5.06
451.371	5.02
451.729	5.11
452.086	5.07
452.443	5.12
452.801	5.3
453.158	5.06
453.515	5.06
453.872	5.01
454.229	5.08
454.586	5.1
454.943	5.09
455.3	5.27
455.657	5.08
456.014	5.13
456.371	5.18
456.727	5.2
457.084	5.25
457.441	5.14
457.797	5.15
458.154	5.17
458.51	5.2
458.867	5.03
459.223	5.13
459.58	5.24
459.936	5.3
460.292	5.25
460.648	5.23
461.005	5.19
461.361	5.07
461.717	5.17
462.073	5.12
462.429	5.2
462.785	5.26
463.141	5.19
463.496	5.11
463.852	5.34
464.208	5.25
464.564	5.28
464.919	5.24
465.275	5.37
465.631	5.39
465.986	5.11
466.342	5.36
466.697	5.36
467.052	5.16
467.408	5.36
467.763	5.37
468.118	5.29
468.473	5.4
468.829	5.32
469.184	5.29
469.539	5.46
469.894	5.48
470.249	5.54
470.603	5.45
470.958	5.34
471.313	5.46
471.668	5.3
472.023	5.38
472.377	5.4
472.732	5.4
473.086	5.33
473.441	5.31
473.795	5.47
474.15	5.34
474.504	5.43
474.859	5.38
475.213	5.49
475.567	5.12
475.921	5.4
476.275	5.36
476.63	5.54
476.984	5.43
477.338	5.55
477.692	5.48
478.045	5.41
478.399	5.46
478.753	5.51
479.107	5.36
479.461	5.4
479.814	5.46
480.168	5.41
480.521	5.41
480.875	5.45
481.228	5.31
481.582	5.47
481.935	5.36
482.289	5.53
482.642	5.5
482.995	5.44
483.348	5.45
483.701	5.56
484.055	5.4
484.408	5.45
484.761	5.37
485.114	5.32
485.466	5.3
485.819	5.25
486.172	5.22
486.525	5.22
486.878	5.25
487.23	5.3
487.583	5.42
487.936	5.39
488.288	5.44
488.641	5.41
488.993	5.41
489.345	5.34
489.698	5.27
490.05	5.41
490.402	5.34
490.754	5.42
491.107	5.39
491.459	5.51
491.811	5.42
492.163	5.48
492.515	5.5
492.866	5.48
493.218	5.47
493.57	5.45
493.922	5.44
494.274	5.41
494.625	5.45
494.977	5.45
495.328	5.55
495.68	5.62
496.031	5.65
496.383	5.69
496.734	5.73
497.086	5.71
497.437	5.82
497.788	5.79
498.139	5.78
498.49	5.8
498.842	5.72
499.193	5.75
499.544	5.77
499.894	5.73
500.245	5.73
500.596	5.79
500.947	5.75
501.298	5.86
501.648	5.8
501.999	5.88
502.35	5.86
502.7	5.84
503.051	5.89
503.401	5.86
503.752	5.91
504.102	5.98
504.452	5.93
504.803	5.98
505.153	5.94
505.503	5.99
505.853	5.89
506.203	5.96
506.553	5.9
506.903	5.85
507.253	5.88
507.603	5.99
507.953	5.89
508.303	6.02
508.652	5.87
509.002	5.92
509.352	6.01
509.701	6.05
510.051	6.01
510.4	5.87
510.75	5.91
511.099	6
511.449	5.84
511.798	6
512.147	6.03
512.496	6.03
512.846	6.02
513.195	5.96
513.544	6
513.893	6.12
514.242	6.08
514.591	6.1
514.939	6.11
515.288	6.18
515.637	6.19
515.986	6.09
516.334	6.1
516.683	6.23
517.032	6.24
517.38	6.3
517.729	6.35
518.077	6.27
518.426	6.29
518.774	6.3
519.122	6.27
519.47	6.21
519.819	6.21
520.167	6.21
520.515	6.18
520.863	6.15
521.211	6.23
521.559	6.28
521.907	6.23
522.255	6.17
522.602	6.23
522.95	6.39
523.298	6.4
523.645	6.48
523.993	6.36
524.341	6.48
524.688	6.48
525.036	6.51
525.383	6.55
525.73	6.47
526.078	6.49
526.425	6.46
526.772	6.49
527.119	6.39
527.466	6.44
527.814	6.42
528.161	6.45
528.508	6.46
528.854	6.52
529.201	6.39
529.548	6.45
529.895	6.44
530.242	6.44
530.588	6.39
530.935	6.41
531.282	6.34
531.628	6.37
531.975	6.48
532.321	6.47
532.667	6.57
533.014	6.63
533.36	6.69
533.706	6.75
534.052	6.67
534.399	6.69
534.745	6.6
535.091	6.62
535.437	6.64
535.783	6.6
536.129	6.67
536.474	6.59
536.82	6.65
537.166	6.75
537.512	6.9
537.857	6.88
538.203	6.83
538.549	6.88
538.894	6.76
539.239	6.87
539.585	6.85
539.93	6.72
540.276	7.01
540.621	7.05
540.966	7.01
541.311	7.02
541.656	7.1
542.001	7.1
542.346	7.11
542.691	7.08
543.036	6.98
543.381	6.95
543.726	6.91
544.071	6.96
544.415	7.03
544.76	6.99
545.105	7.13
545.449	7.2
545.794	7.16
546.138	7.25
546.483	7.3
546.827	7.31
547.171	7.38
547.516	7.24
547.86	7.34
548.204	7.37
548.548	7.36
548.892	7.34
549.236	7.35
549.58	7.42
549.924	7.51
550.268	7.56
550.612	7.58
550.956	7.44
551.3	7.48
551.643	7.65
551.987	7.68
552.33	7.58
552.674	7.77
553.017	7.75
553.361	7.77
553.704	7.76
554.048	7.83
554.391	7.78
554.734	7.8
555.077	7.77
555.42	7.85
555.764	7.83
556.107	8
556.45	7.78
556.793	8.2
557.135	7.78
557.478	7.78
557.821	7.86
558.164	8.08
558.507	7.98
558.849	7.79
559.192	7.96
559.534	8.09
559.877	8
560.219	8.11
560.562	8.27
560.904	8.13
561.246	8.04
561.589	8.31
561.931	8.23
562.273	8.29
562.615	8.24
562.957	8.37
563.299	8.44
563.641	8.41
563.983	8.44
564.325	8.28
564.667	8.21
565.008	8.43
565.35	8.55
565.692	8.47
566.033	8.63
566.375	8.46
566.716	8.62
567.058	8.63
567.399	8.74
567.741	8.42
568.082	8.67
568.423	8.52
568.764	8.71
569.105	8.63
569.447	8.76
569.788	8.76
570.129	8.89
570.47	8.92
570.811	8.89
571.151	8.83
571.492	8.95
571.833	8.9
572.174	9.07
572.514	9.07
572.855	9.04
573.195	9.06
573.536	9.12
573.876	9.03
574.217	9.14
574.557	9.07
574.898	9.12
575.238	9.1
575.578	9.25
575.918	9.4
576.258	9.27
576.598	9.34
576.938	9.32
577.278	9.34
577.618	9.41
577.958	9.42
578.298	9.36
578.638	9.32
578.977	9.33
579.317	9.38
579.657	9.38
579.996	9.61
580.336	9.64
580.675	9.64
581.014	9.83
581.354	9.9
581.693	9.63
582.032	9.76
582.372	9.92
582.711	10.12
583.05	9.86
583.389	9.97
583.728	9.87
584.067	9.92
584.406	10.17
584.745	10.14
585.083	10.13
585.422	10.07
585.761	10.22
586.1	9.94
586.438	10.36
586.777	10.09
587.115	10.25
587.454	10.27
587.792	10.39
588.13	10.46
588.469	10.3
588.807	10.19
589.145	10.32
589.483	10.37
589.821	10.46
590.159	10.5
590.497	10.55
590.835	10.53
591.173	10.66
591.511	10.59
591.849	10.66
592.187	10.6
592.524	10.26
592.862	10.78
593.2	10.52
593.537	10.77
593.875	10.91
594.212	11.01
594.55	10.67
594.887	11.06
595.224	10.73
595.561	10.73
595.899	11.04
596.236	11.08
596.573	10.9
596.91	11.07
597.247	11.11
597.584	11.2
597.921	11.08
598.258	11.2
598.594	11.06
598.931	11.13
599.268	11.21
599.604	11.11
599.941	11.23
600.277	11.31
600.614	11.43
600.95	11.38
601.287	11.24
601.623	11.64
601.959	11.85
602.296	11.49
602.632	11.7
602.968	11.54
603.304	11.64
603.64	11.84
603.976	11.77
604.312	11.84
604.648	11.92
604.984	11.98
605.319	11.94
605.655	12.12
605.991	11.95
606.326	11.66
606.662	11.76
606.998	12.07
607.333	12.05
607.668	12.18
608.004	11.92
608.339	11.98
608.674	12.16
609.01	12.22
609.345	12.59
609.68	12.25
610.015	12.05
610.35	12.25
610.685	12.65
611.02	12.36
611.355	12.5
611.689	12.52
612.024	12.38
612.359	12.41
612.694	12.24
613.028	12.52
613.363	12.68
613.697	12.52
614.032	12.55
614.366	12.36
614.7	12.6
615.035	12.63
615.369	12.65
615.703	13.11
616.037	12.73
616.371	12.93
616.705	12.99
617.039	13.02
617.373	12.92
617.707	13.06
618.041	13.12
618.375	12.99
618.709	13.07
619.042	13.14
619.376	12.96
619.71	13.2
620.043	13.26
620.377	13.5
620.71	13.31
621.043	13.63
621.377	13.72
621.71	13.43
622.043	13.07
622.376	13.35
622.709	13.19
623.043	13.52
623.376	13.11
623.709	13.22
624.041	14.15
624.374	13.89
624.707	13.74
625.04	14
625.373	13.76
625.705	13.89
626.038	14.16
626.37	13.93
626.703	13.64
627.035	13.85
627.368	14.36
627.7	14.23
628.032	13.91
628.365	13.95
628.697	14.22
629.029	14.1
629.361	13.8
629.693	14.31
630.025	14.24
630.357	14.28
630.689	14.41
631.021	14.19
631.353	14.5
631.684	14.52
632.016	14.36
632.348	14.56
632.679	14.4
633.011	14.45
633.342	14.48
633.674	14.95
634.005	14.77
634.336	14.33
634.668	14.56
634.999	14.84
635.33	14.83
635.661	14.95
635.992	14.95
636.323	14.78
636.654	15.08
636.985	15.2
637.316	14.93
637.647	15.04
637.977	15.11
638.308	14.95
638.639	15.22
638.969	15.11
639.3	15.12
639.63	14.7
639.961	15.48
640.291	15.56
640.622	15.26
640.952	15.55
641.282	15.51
641.612	15.46
641.943	15.36
642.273	15.34
642.603	15.8
642.933	15.45
643.263	15.54
643.592	15.14
643.922	15.27
644.252	15.94
644.582	15.56
644.911	16
645.241	15.55
645.571	16.05
645.9	16.23
646.23	15.49
646.559	15.99
646.888	16.05
647.218	16.35
647.547	15.99
647.876	16.43
648.205	16.52
648.534	16.07
648.863	16.11
649.192	16.52
649.521	16.53
649.85	16.22
650.179	16.08
650.508	16.5
650.837	16.32
651.165	16.17
651.494	16.86
651.822	16.35
652.151	16.27
652.479	16.67
652.808	16.89
653.136	16.48
653.465	16.47
653.793	16.54
654.121	16.71
654.449	16.59
654.777	16.44
655.105	17.07
655.433	16.47
655.761	17.26
656.089	16.61
656.417	16.84
656.745	16.56
657.073	16.86
657.4	16.7
657.728	17.25
658.056	16.62
658.383	17.1
658.711	17.17
659.038	17.1
659.365	17.44
659.693	16.88
660.02	17.27
660.347	17.67
660.674	17.73
661.001	17.49
661.329	17.53
661.656	17.52
661.982	17.52
662.309	17.74
662.636	17.42
662.963	17.59
663.29	17.49
663.616	17.67
663.943	17.71
664.27	17.47
664.596	17.7
664.923	17.39
665.249	17.99
665.576	17.62
665.902	17.54
666.228	17.3
666.554	17.95
666.881	18.31
667.207	18.11
667.533	17.95
667.859	17.68
668.185	18.2
668.511	17.93
668.837	18.15
669.162	18.49
669.488	18.31
669.814	18.53
670.139	17.87
670.465	18.12
670.791	18.38
671.116	18.25
671.442	18.87
671.767	18.26
672.092	18.64
672.418	18.45
672.743	18.76
673.068	19.07
673.393	18.18
673.718	19.24
674.043	18.71
674.368	19.1
674.693	19.11
675.018	19.17
675.343	18.94
675.667	18.67
675.992	18.9
676.317	18.63
676.641	18.7
676.966	18.97
677.29	18.51
677.615	19.47
677.939	18.83
678.264	19
678.588	18.92
678.912	18.66
679.236	19.47
679.56	19.25
679.885	19.52
680.209	19.08
680.532	19.38
680.856	19.32
681.18	19.52
681.504	19.06
681.828	19.28
682.152	19.18
682.475	19.85
682.799	19.59
683.122	19.53
683.446	19.68
683.769	19.62
684.093	19.86
684.416	19.84
684.739	19.76
685.062	20.44
685.386	20.21
685.709	19.54
686.032	20.77
686.355	20.25
686.678	20.24
687.001	19.39
687.324	20.32
687.646	20.12
687.969	20.1
688.292	19.88
688.614	20.05
688.937	20.23
689.26	20.36
689.582	19.83
689.904	20
690.227	20.57
690.549	20.66
690.871	20.33
691.194	20.03
691.516	20.18
691.838	20.56
692.16	20.63
692.482	20.4
692.804	20.63
693.126	21.43
693.448	19.91
693.769	20.71
694.091	21.06
694.413	21.24
694.735	21.39
695.056	20.75
695.378	20.84
695.699	21.12
696.021	21.32
696.342	21.73
696.663	21.43
696.984	21.32
697.306	21.67
697.627	22.49
697.948	21.3
698.269	21.52
698.59	20.88
698.911	21.79
699.232	21.64
699.553	21.37
699.873	21.25
700.194	22.16
700.515	21.68
700.835	21.83
701.156	21.5
701.477	22.09
701.797	21.64
702.117	21.22
702.438	21.44
702.758	21.64
703.078	21.86
703.398	21.61
703.719	21.66
704.039	21.57
704.359	22.68
704.679	22.04
704.999	21.93
705.319	21.62
705.638	22.2
705.958	21.31
706.278	22.53
706.597	22.52
706.917	22.28
707.237	22.4
707.556	22
707.876	21.43
708.195	23.44
708.514	22.64
708.834	22.3
709.153	22.11
709.472	21.88
709.791	22.41
710.11	22.93
710.429	22.44
710.748	22.58
711.067	23.63
711.386	23.07
711.705	22.43
712.023	23.58
712.342	22.93
712.661	23.24
712.979	23.35
713.298	22.98
713.616	22.4
713.935	23.12
714.253	22.96
714.572	23.05
714.89	22.48
715.208	23.38
715.526	23.3
715.844	23.99
716.162	23.51
716.48	23.07
716.798	22.7
717.116	23.48
717.434	24.2
717.752	24.1
718.069	22.87
718.387	24.26
718.705	22.82
719.022	22.45
719.34	23.38
719.657	23.63
719.975	23.55
720.292	23.45
720.609	24.89
720.927	24.14
721.244	23.2
721.561	23.6
721.878	24.07
722.195	23.49
722.512	23.54
722.829	23.31
723.146	24.39
723.463	24.66
723.779	22.54
724.096	24.19
724.413	24.38
724.729	22.49
725.046	24.17
725.362	25.14
725.679	24.88
725.995	23.38
726.311	22.87
726.628	24
726.944	24.67
727.26	24.18
727.576	23.85
727.892	24.17
728.208	23.75
728.524	24.37
728.84	23.56
729.156	22.45
729.472	24.59
729.787	25.67
730.103	24.7
730.419	24.49
730.734	24.43
731.05	25.88
731.365	24.65
731.681	24.07
731.996	25.54
732.311	25.19
732.626	23.7
732.942	25.11
733.257	26.18
733.572	23.33
733.887	24.76
734.202	24.46
734.517	25.62
734.832	24.54
735.146	26.41
735.461	25.46
735.776	25.03
736.091	25.28
736.405	25.55
736.72	25.94
737.034	25.29
737.349	24.76
737.663	26.16
737.977	25.43
738.292	25.47
738.606	25.49
738.92	25.12
739.234	26.52
739.548	25.6
739.862	25.18
740.176	25.79
740.49	26.41
740.804	25.17
741.117	24.48
741.431	25.55
741.745	26.03
742.058	27.18
742.372	26
742.685	25.88
742.999	24.75
743.312	26.91
743.626	25.44
743.939	26.54
744.252	27.48
744.565	25.95
744.878	23.64
745.191	25.26
745.505	25.85
745.817	24.99
746.13	27.07
746.443	26.18
746.756	26.6
747.069	26.01
747.381	25.1
747.694	27.4
748.007	27.78
748.319	27.19
748.632	27.51
748.944	27.21
749.256	27.29
749.569	26.79
749.881	27.7
750.193	26.53
750.505	26.79
750.817	28.39
751.129	26.69
751.441	24.7
751.753	26.97
752.065	26.37
752.377	26.46
752.689	26.46
753	27.76
753.312	28.7
753.624	24.9
753.935	26.07
754.247	26.46
754.558	28.65
754.869	25.78
755.181	27.2
755.492	28.94
755.803	28.04
756.114	26.56
756.425	28.37
756.736	29.04
757.047	28.15
757.358	27.56
757.669	27.58
757.98	27.9
758.291	27.08
758.601	28.29
758.912	28.83
759.223	27.7
759.533	29.45
759.844	27.3
760.154	28.75
760.464	28.64
760.775	27.11
761.085	29.09
761.395	27.86
761.705	28.18
762.016	28.09
762.326	28.44
762.636	28.38
762.945	26.31
763.255	27.27
763.565	28.94
763.875	28.64
764.185	27.83
764.494	28.33
764.804	28.38
765.113	27.03
765.423	28.63
765.732	28.48
766.042	28.49
766.351	28.66
766.66	26.92
766.97	29.1
767.279	27.56
767.588	28.55
767.897	29.77
768.206	27.56
768.515	28.7
768.824	27.73
769.133	28.72
769.441	29.79
769.75	30.03
770.059	30.17
770.367	29.35
770.676	29.13
770.984	28.74
771.293	28.62
771.601	28.5
771.91	31.1
772.218	28.3
772.526	30.24
772.834	28.88
773.142	29.89
773.45	29.09
773.758	29.47
774.066	29.47
774.374	30.21
774.682	31.35
774.99	27.73
775.298	29.2
775.605	26.62
775.913	29.27
776.22	28.83
776.528	30.05
776.835	29.33
777.143	28.47
777.45	29.99
777.757	27.83
778.065	32.51
778.372	29.17
778.679	29
778.986	29.61
779.293	30.27
779.6	29.64
779.907	29.52
780.214	33.43
780.52	29.61
780.827	29.55
781.134	29.63
781.44	34.24
781.747	28.39
782.053	28.84
782.36	29.83
782.666	28.68
782.973	26.72
783.279	29.86
783.585	29.03
783.891	30.67
784.197	31.02
784.503	31.56
784.809	32.42
785.115	28.32
785.421	29.97
785.727	29.47
786.033	26.84
786.339	31.81
786.644	30.46
786.95	30.65
787.255	28.44
787.561	30.54
787.866	32.3
788.172	31.65
788.477	32.12
788.782	31.73
789.088	31.71
789.393	28.45
789.698	27.41
790.003	28.8
790.308	30.63
790.613	32.2
790.918	31.76
791.223	30.5
791.527	31
791.832	32.28
792.137	31.84
792.441	36.09
792.746	31.74
793.05	27.19
793.355	29.4
793.659	35.02
793.963	33.3
794.268	31.73
794.572	29.69
794.876	29
795.18	29.78
795.484	33.52
795.788	31.19
796.092	31.21
796.396	32.92
796.7	34
797.004	32.09
797.307	30.91
797.611	29.84
797.915	28.56
798.218	35.23
798.522	34.51
798.825	29.86
799.128	31.37
799.432	32.83
799.735	31.33
800.038	31.56
800.341	29.28
800.644	30.29
800.947	31.3
801.25	30.94
801.553	33.55
801.856	25.34
802.159	29.62
802.462	34.51
802.764	33.8
803.067	30.62
803.37	34.39
803.672	31.16
803.975	30.94
804.277	34.95
804.579	31.34
804.882	33.88
805.184	28.82
805.486	32.53
805.788	31.61
806.09	32.44
806.392	30.68
806.694	30.88
806.996	29.54
807.298	31.4
807.6	29.88
807.902	36.07
808.203	30.22
808.505	34.39
808.807	33.94
809.108	37.58
809.409	32.21
809.711	34.91
810.012	28.65
810.313	34.4
810.615	35.05
810.916	32.93
811.217	32.53
811.518	34.23
811.819	30.68
812.12	30.5
812.421	31.76
812.722	36.56
813.023	33.3
813.323	29.7
813.624	31.51
813.925	35.01
814.225	33.4
814.526	29.36
814.826	36.31
815.126	35.32
815.427	33.11
815.727	27.55
816.027	36.3
816.327	33.9
816.627	33.07
816.927	31.08
817.227	33.36
817.527	30.98
817.827	33.88
818.127	36.1
818.427	30.49
818.727	31.45
819.026	39.52
819.326	34.84
819.625	30.23
819.925	31.1
820.224	38.81
820.524	36.87
820.823	30.44
821.122	34.8
821.421	33.44
821.72	37.26
822.019	33.37
822.318	38.95
822.617	34.64
822.916	34.46
823.215	33.71
823.514	31.21
823.813	33.68
824.111	35.65
824.41	34.91
824.709	34.84
825.007	34.99
825.306	34.16
825.604	34.95
825.902	34.98
826.201	34.29
826.499	34.49
826.797	33.07
827.095	34.73
827.393	34.37
827.691	33.87
827.989	34.73
828.287	36.16
828.585	34.06
828.882	31.25
829.18	35.81
829.478	34.9
829.775	36.06
830.073	35.08
830.37	33.63
830.668	35.81
830.965	34.81
831.263	33.46
831.56	35.34
831.857	35.32
832.154	32.57
832.451	37.65
832.748	31.34
833.045	33.6
833.342	33.67
833.639	37.74
833.936	36.02
834.232	38.41
834.529	33
834.826	36.02
835.122	36.59
835.419	35.49
835.715	35.53
836.012	34.66
836.308	35.93
836.604	33.61
836.901	36.8
837.197	38.45
837.493	34.75
837.789	35.72
838.085	34.94
838.381	31.92
838.677	36.11
838.972	32.55
839.268	36.6
839.564	36.2
839.86	37.11
840.155	38.08
840.451	33.73
840.746	35.7
841.042	34.57
841.337	33.48
841.632	43.45
841.928	39.42
842.223	30.37
842.518	35.44
842.813	34.71
843.108	35.26
843.403	39.5
843.698	32.12
843.993	35.2
844.287	34.2
844.582	28.77
844.877	34.79
845.171	39.09
845.466	30.84
845.761	35.24
846.055	33.17
846.349	26.58
846.644	32.1
846.938	38.28
847.232	40.93
847.526	33.65
847.82	36.66
848.114	41.23
848.408	30.92
848.702	19.61
848.996	32.85
849.29	29.92
849.584	44.81
849.877	36.57
850.171	31.94
850.465	37.43
850.758	25.46
851.052	37.38
851.345	26.15
851.638	23.95
851.932	20.36
852.225	33.64
852.518	53.8
852.811	35.11
853.104	34.86
853.397	27.69
853.69	19.86
853.983	26.43
854.276	46.27
854.569	18.93
854.861	30.29
855.154	38.82
855.447	24.97
855.739	41.25
856.032	44.71
856.324	47.9
856.616	15.57
856.909	32.67
857.201	5.25
857.493	3.62
857.785	37.62
858.077	-3.16
858.369	36.87
858.661	32.98
858.953	26.57
859.245	26.39
859.537	62.42
859.829	37.33
860.12	31.63
860.412	24.69
860.703	50.03
860.995	36.81
861.286	50.48
861.578	33.92
861.869	29.68
862.16	40.72
862.452	50.98
862.743	29.4
863.034	42.31
863.325	40.43
863.616	31.88
863.907	44.84
864.198	44.68
864.488	41.66
864.779	36.51
865.07	44.9
865.36	33.58
865.651	43.42
865.941	9.56
866.232	47.64
866.522	14.03
866.813	27.45
867.103	32.73
867.393	48.07
867.683	23.13
867.973	20.21
868.263	21.16
868.553	64.22
868.843	30.72
869.133	36.97
869.423	36.08
869.713	31.7
870.002	10.38
870.292	34.74
870.582	36.26
870.871	48.11
871.161	33.88
871.45	2.97
871.739	47.94
872.029	23.92
872.318	24.78
872.607	11.92
872.896	58.69
873.185	33.93
873.474	24.97
873.763	42.52
874.052	40.51
874.341	29.38
874.63	15.83
874.918	14.39
875.207	51.41
875.496	33.39
875.784	37
876.073	45.21
876.361	37.36
876.649	17.78
876.938	30.98
877.226	55.34
877.514	24.11
877.802	17.38
878.09	39.28
878.378	46.51
878.666	19.38
878.954	37.65
879.242	22.55
879.53	16.56
879.817	44.72
880.105	51.12
880.392	31.6
880.68	22.59
880.967	69.66
881.255	35.19
881.542	34.14
881.83	18.25
882.117	53.47
882.404	45.16
882.691	20.65
882.978	36.73
883.265	29.58
883.552	40.02
883.839	32.76
884.126	25.23
884.413	35.27
884.699	38.87
884.986	34.41
885.273	42.12
885.559	42.12
885.846	42.12
