Data from 815655_forehead_Reflection__3__148.txt Node

Date: Fri Sep 16 15:53:41 CDT 2022
User: ToomeyLab
Spectrometer: FLMS14357
Trigger mode: 0
Integration Time (sec): 1.000000E-2
Scans to average: 100
Electric dark correction enabled: true
Nonlinearity correction enabled: false
Boxcar width: 0
XAxis mode: Wavelengths
Number of Pixels in Spectrum: 2048
>>>>>Begin Spectral Data<<<<<
189.047	-139.95
189.435	-139.95
189.823	-139.95
190.211	2676.07
190.599	152.28
190.987	255.06
191.375	172.07
191.763	1373.68
192.151	44.19
192.538	-88.79
192.926	-28.12
193.314	18.86
193.702	-0.28
194.089	63.38
194.477	-107.19
194.864	44.44
195.252	-4
195.639	45.93
196.027	541.98
196.414	179.48
196.801	-4.22
197.189	460.17
197.576	-2.58
197.963	-49.85
198.351	11.75
198.738	5.18
199.125	62.62
199.512	-75.86
199.899	55.57
200.286	-1.62
200.673	42.08
201.06	10
201.447	0.2
201.833	23.21
202.22	-5.17
202.607	-106.56
202.994	76.39
203.38	43.44
203.767	32.19
204.154	7.26
204.54	16.83
204.927	-12.43
205.313	28.29
205.699	70.92
206.086	14.69
206.472	40.43
206.858	21.18
207.245	10.4
207.631	39.05
208.017	53.73
208.403	12.79
208.789	8.4
209.175	13
209.561	20.23
209.947	-25.62
210.333	20.78
210.719	-20.94
211.105	34.7
211.491	52.69
211.876	59.16
212.262	-2.95
212.648	-0.6
213.034	9.5
213.419	-7.39
213.805	-21.65
214.19	32.02
214.576	1.01
214.961	9.37
215.346	-28.06
215.732	-53.67
216.117	-4.33
216.502	-39.5
216.888	-9.64
217.273	-19.07
217.658	30.6
218.043	-53.87
218.428	8.36
218.813	11.51
219.198	1.75
219.583	8.91
219.968	-0.22
220.353	-4.54
220.738	-3.13
221.122	-18.91
221.507	27.52
221.892	9.5
222.276	21.13
222.661	18.05
223.046	-5.63
223.43	6.2
223.815	1.77
224.199	0.89
224.583	7.71
224.968	-0.3
225.352	-0.79
225.736	5.66
226.121	8.48
226.505	6.37
226.889	2.7
227.273	0.22
227.657	4.65
228.041	1.56
228.425	-6.21
228.809	6.13
229.193	2.91
229.577	3.78
229.961	2.85
230.344	3.93
230.728	2.88
231.112	3.3
231.495	1.93
231.879	3.28
232.263	1.48
232.646	2.46
233.03	2.61
233.413	3.04
233.797	2.46
234.18	2.96
234.563	4.7
234.946	3
235.33	4.79
235.713	3.95
236.096	3.89
236.479	3.03
236.862	0.61
237.245	5.34
237.628	4.31
238.011	3.24
238.394	3.02
238.777	4.16
239.16	2.48
239.543	4.17
239.925	6.3
240.308	2.13
240.691	4.79
241.073	1.84
241.456	1.64
241.838	2.49
242.221	3.07
242.603	3.06
242.986	2.5
243.368	2.77
243.75	2.72
244.133	3.04
244.515	3
244.897	3.12
245.279	2.4
245.661	3.29
246.043	3.08
246.425	2.4
246.807	3.08
247.189	3.07
247.571	2.69
247.953	2.97
248.335	2.99
248.717	3.21
249.098	2.94
249.48	3
249.862	3.27
250.243	3.42
250.625	3.16
251.006	3.06
251.388	3.09
251.769	1.87
252.151	3.04
252.532	2.64
252.913	3.63
253.295	3.58
253.676	3.13
254.057	3.1
254.438	2.63
254.819	2.37
255.2	2.25
255.581	3.46
255.962	3.59
256.343	3.59
256.724	2.66
257.105	2.09
257.486	3.27
257.867	3.12
258.247	3.21
258.628	3.03
259.009	3.23
259.389	3.23
259.77	2.7
260.15	3.29
260.531	2.66
260.911	2.66
261.292	2.99
261.672	2.89
262.052	2.8
262.432	3.22
262.813	3.57
263.193	2.75
263.573	3.67
263.953	2.97
264.333	3.3
264.713	2.33
265.093	2.51
265.473	3.14
265.853	3.47
266.233	2.23
266.612	3.52
266.992	2.59
267.372	3.15
267.752	2.37
268.131	3.08
268.511	3.3
268.89	3.67
269.27	2.92
269.649	2.76
270.029	2.66
270.408	3.09
270.787	2.59
271.167	2.92
271.546	3.01
271.925	3.28
272.304	3.1
272.683	2.91
273.062	3.12
273.441	3.03
273.82	2.99
274.199	3.05
274.578	3.09
274.957	3.2
275.336	3.39
275.715	3.67
276.093	3.01
276.472	2.43
276.851	2.69
277.229	3.06
277.608	3.13
277.986	3.08
278.365	2.59
278.743	3.07
279.122	2.58
279.5	2.52
279.878	3.42
280.257	3.61
280.635	3.27
281.013	3.23
281.391	3.16
281.769	3.57
282.147	3.08
282.525	2.87
282.903	3.17
283.281	2.65
283.659	3.82
284.037	2.86
284.415	3.33
284.792	2.99
285.17	3.78
285.548	2.78
285.925	2.57
286.303	3.31
286.68	2.51
287.058	2.83
287.435	3.18
287.813	3.59
288.19	2.8
288.567	2.94
288.945	3.14
289.322	3.15
289.699	3.07
290.076	2.55
290.453	3.55
290.83	3.56
291.207	3.53
291.584	2.95
291.961	3.26
292.338	3.39
292.715	3.17
293.092	2.89
293.469	3.07
293.845	3.74
294.222	3.31
294.599	3.37
294.975	2.88
295.352	3.35
295.728	3.45
296.105	3.72
296.481	3.36
296.858	3.68
297.234	3.35
297.61	3.88
297.986	3.73
298.363	3.22
298.739	3.3
299.115	3.82
299.491	3.6
299.867	3.63
300.243	3.35
300.619	4.05
300.995	3.46
301.371	3.84
301.746	4.19
302.122	3.76
302.498	3.76
302.874	3.46
303.249	4
303.625	3.77
304	3.79
304.376	3.52
304.751	4.44
305.127	3.8
305.502	3.51
305.878	4.24
306.253	4.26
306.628	3.82
307.003	4.3
307.378	4.42
307.754	4.29
308.129	4.85
308.504	4.3
308.879	4.48
309.254	4.5
309.629	3.77
310.003	4.44
310.378	4.34
310.753	4.5
311.128	4.55
311.502	4.22
311.877	4.61
312.252	4.61
312.626	4.47
313.001	4.45
313.375	5
313.75	4.55
314.124	4.43
314.498	4.49
314.873	5.35
315.247	4.94
315.621	5.25
315.995	4.56
316.369	4.9
316.743	4.82
317.117	4.89
317.491	4.47
317.865	4.99
318.239	4.98
318.613	5.4
318.987	4.74
319.361	4.95
319.734	5.69
320.108	5.11
320.482	6.07
320.855	5.24
321.229	4.86
321.602	5.67
321.976	5.35
322.349	5.46
322.723	5.44
323.096	5.72
323.469	5.24
323.843	6.06
324.216	5.73
324.589	5.83
324.962	5.44
325.335	5.95
325.708	6.14
326.081	6.13
326.454	5.45
326.827	5.77
327.2	6.33
327.573	5.92
327.945	5.89
328.318	5.67
328.691	6.27
329.063	5.78
329.436	6
329.809	5.8
330.181	6.43
330.553	6.32
330.926	6.15
331.298	6.47
331.671	5.69
332.043	5.83
332.415	6.31
332.787	6.56
333.159	5.77
333.532	6.84
333.904	6.4
334.276	6.6
334.648	6.48
335.02	6.53
335.391	6.65
335.763	6.25
336.135	6.21
336.507	6.87
336.879	7.41
337.25	6.58
337.622	6.84
337.993	6.71
338.365	6.44
338.736	7.42
339.108	6.59
339.479	6.83
339.851	6.86
340.222	6.9
340.593	7.01
340.964	7.43
341.336	7.18
341.707	7.18
342.078	7.42
342.449	7.17
342.82	7.02
343.191	7.39
343.562	7.35
343.933	7.44
344.303	7.62
344.674	7.17
345.045	7.93
345.416	7.25
345.786	7.76
346.157	7.65
346.527	7.55
346.898	7.52
347.268	7.7
347.639	7.48
348.009	7.67
348.38	8.15
348.75	7.51
349.12	7.95
349.49	7.68
349.861	7.97
350.231	7.55
350.601	7.89
350.971	8.33
351.341	7.97
351.711	7.82
352.081	7.9
352.45	8.3
352.82	8.41
353.19	8.01
353.56	8.57
353.929	8.43
354.299	8.36
354.669	8.44
355.038	8.32
355.408	8.63
355.777	8.33
356.147	8.43
356.516	8.69
356.885	8.6
357.254	8.68
357.624	8.18
357.993	8.55
358.362	8.56
358.731	8.97
359.1	8.71
359.469	8.64
359.838	8.69
360.207	8.94
360.576	8.71
360.945	9.04
361.314	8.71
361.682	8.45
362.051	9.08
362.42	9.18
362.788	9.33
363.157	9.19
363.525	9.11
363.894	9.39
364.262	9.16
364.631	9.06
364.999	9.22
365.367	9.09
365.735	9.45
366.104	9.69
366.472	10.01
366.84	9.26
367.208	9.65
367.576	9.42
367.944	9.4
368.312	9.54
368.68	9.48
369.048	10.14
369.416	9.66
369.783	9.52
370.151	9.79
370.519	9.83
370.886	9.8
371.254	9.61
371.621	10.11
371.989	9.86
372.356	10.25
372.724	10.05
373.091	9.89
373.458	9.71
373.826	9.9
374.193	10.29
374.56	9.68
374.927	10.05
375.294	10.31
375.661	10.17
376.028	10.5
376.395	9.98
376.762	11.05
377.129	10.43
377.496	10.38
377.863	10.61
378.229	10.83
378.596	10.31
378.963	10.61
379.329	10.53
379.696	10.97
380.062	10.42
380.429	10.86
380.795	10.52
381.161	11.13
381.528	11.29
381.894	11.08
382.26	10.83
382.626	11.19
382.993	11.16
383.359	11.19
383.725	11.16
384.091	11.34
384.457	10.76
384.823	11.29
385.188	11.37
385.554	11.12
385.92	11.22
386.286	11.36
386.651	11.23
387.017	11.53
387.383	11.22
387.748	11.5
388.114	11.56
388.479	11.55
388.845	11.64
389.21	11.77
389.575	11.79
389.94	12.03
390.306	11.74
390.671	11.69
391.036	11.9
391.401	11.72
391.766	11.73
392.131	11.85
392.496	11.85
392.861	12.19
393.226	12.18
393.591	12
393.956	12.23
394.32	12.26
394.685	12
395.05	12.48
395.414	12.15
395.779	12.2
396.143	12.29
396.508	12.23
396.872	12.27
397.236	12.53
397.601	12.4
397.965	12.3
398.329	12.44
398.694	12.54
399.058	12.71
399.422	12.64
399.786	12.66
400.15	12.77
400.514	12.81
400.878	12.98
401.242	12.73
401.605	12.76
401.969	12.91
402.333	12.88
402.697	12.76
403.06	12.91
403.424	12.84
403.787	12.76
404.151	13.02
404.514	12.98
404.878	13.07
405.241	13.14
405.604	13.18
405.968	13.28
406.331	13.13
406.694	13.08
407.057	13.36
407.42	13.23
407.783	13.57
408.146	13.52
408.509	13.45
408.872	13.63
409.235	13.73
409.598	13.36
409.961	13.51
410.323	13.75
410.686	13.59
411.049	13.63
411.411	13.69
411.774	13.93
412.136	13.55
412.499	13.7
412.861	13.89
413.223	13.84
413.586	14.09
413.948	13.89
414.31	14.24
414.672	14.17
415.035	14.17
415.397	14.1
415.759	14.41
416.121	14.1
416.483	14.26
416.845	14.22
417.206	14.35
417.568	14.27
417.93	14.35
418.292	14.33
418.653	14.3
419.015	14.35
419.377	14.36
419.738	14.45
420.1	14.46
420.461	14.43
420.822	14.34
421.184	14.41
421.545	14.31
421.906	14.6
422.267	14.49
422.629	14.41
422.99	14.39
423.351	14.45
423.712	14.38
424.073	14.7
424.434	14.6
424.795	14.67
425.155	14.85
425.516	14.73
425.877	14.69
426.238	14.77
426.598	14.76
426.959	14.92
427.32	14.89
427.68	14.95
428.041	14.94
428.401	14.94
428.761	15.25
429.122	15.22
429.482	15.18
429.842	15.35
430.202	15.41
430.563	15.44
430.923	15.5
431.283	15.74
431.643	15.63
432.003	15.53
432.363	15.48
432.722	15.81
433.082	15.63
433.442	15.72
433.802	15.55
434.161	15.57
434.521	15.79
434.881	15.62
435.24	15.66
435.6	15.9
435.959	15.9
436.319	15.95
436.678	15.77
437.037	15.94
437.396	15.96
437.756	16.02
438.115	16.14
438.474	15.9
438.833	15.97
439.192	16.08
439.551	16.3
439.91	16.16
440.269	16.34
440.628	16.2
440.987	16.26
441.345	16.22
441.704	16.32
442.063	16.29
442.421	16.28
442.78	16.33
443.138	16.28
443.497	16.34
443.855	16.48
444.214	16.44
444.572	16.54
444.93	16.66
445.288	16.61
445.647	16.59
446.005	16.58
446.363	16.89
446.721	16.7
447.079	16.7
447.437	16.78
447.795	16.81
448.153	16.7
448.51	16.63
448.868	16.64
449.226	16.79
449.584	16.84
449.941	16.86
450.299	16.89
450.656	17.04
451.014	17.06
451.371	16.97
451.729	17.12
452.086	17.14
452.443	17.3
452.801	17.51
453.158	17.35
453.515	17.43
453.872	17.36
454.229	17.21
454.586	17.52
454.943	17.35
455.3	17.58
455.657	17.51
456.014	17.68
456.371	17.59
456.727	17.75
457.084	17.83
457.441	17.66
457.797	17.82
458.154	17.88
458.51	18
458.867	17.84
459.223	17.83
459.58	17.76
459.936	17.98
460.292	18.21
460.648	18.06
461.005	18.08
461.361	17.84
461.717	17.88
462.073	17.82
462.429	17.81
462.785	17.9
463.141	18.1
463.496	18.21
463.852	18.32
464.208	18.34
464.564	18.47
464.919	18.55
465.275	18.47
465.631	18.55
465.986	18.44
466.342	18.54
466.697	18.53
467.052	18.58
467.408	18.91
467.763	18.71
468.118	18.67
468.473	18.85
468.829	18.68
469.184	18.6
469.539	18.76
469.894	18.85
470.249	18.94
470.603	19.05
470.958	18.77
471.313	19.06
471.668	19.12
472.023	18.86
472.377	19.07
472.732	19.12
473.086	19.14
473.441	18.96
473.795	19.24
474.15	19.1
474.504	19.39
474.859	19.27
475.213	19.22
475.567	19.07
475.921	19.42
476.275	19.4
476.63	19.5
476.984	19.6
477.338	19.64
477.692	19.54
478.045	19.63
478.399	19.65
478.753	19.64
479.107	19.67
479.461	19.63
479.814	19.54
480.168	19.63
480.521	19.71
480.875	19.86
481.228	19.79
481.582	19.8
481.935	19.88
482.289	19.8
482.642	20.03
482.995	19.75
483.348	19.86
483.701	19.82
484.055	19.77
484.408	19.84
484.761	19.58
485.114	19.47
485.466	19.5
485.819	19.36
486.172	19.29
486.525	19.23
486.878	19.24
487.23	19.43
487.583	19.62
487.936	19.83
488.288	19.89
488.641	19.81
488.993	19.82
489.345	19.77
489.698	19.68
490.05	19.68
490.402	19.7
490.754	19.87
491.107	19.99
491.459	20.05
491.811	20.23
492.163	20.4
492.515	20.36
492.866	20.37
493.218	20.26
493.57	20.1
493.922	20.06
494.274	20.16
494.625	20.22
494.977	20.33
495.328	20.64
495.68	20.76
496.031	20.81
496.383	20.93
496.734	21.05
497.086	21.04
497.437	21.29
497.788	21.3
498.139	21.26
498.49	21.22
498.842	21.12
499.193	21.21
499.544	21.1
499.894	21.2
500.245	21.27
500.596	21.37
500.947	21.24
501.298	21.36
501.648	21.48
501.999	21.44
502.35	21.47
502.7	21.65
503.051	21.87
503.401	21.59
503.752	21.86
504.102	21.9
504.452	21.67
504.803	21.64
505.153	21.78
505.503	21.95
505.853	21.9
506.203	21.98
506.553	22
506.903	21.96
507.253	22
507.603	22.06
507.953	21.98
508.303	22.26
508.652	22.08
509.002	22.18
509.352	22.18
509.701	22.26
510.051	22.28
510.4	22.28
510.75	22.34
511.099	22.14
511.449	22.29
511.798	22.24
512.147	22.3
512.496	22.4
512.846	22.31
513.195	22.38
513.544	22.31
513.893	22.43
514.242	22.45
514.591	22.59
514.939	22.55
515.288	22.69
515.637	22.68
515.986	22.72
516.334	22.77
516.683	22.78
517.032	22.96
517.38	22.94
517.729	23.08
518.077	22.91
518.426	22.95
518.774	23.09
519.122	22.98
519.47	22.91
519.819	22.85
520.167	22.84
520.515	22.7
520.863	22.9
521.211	22.99
521.559	22.93
521.907	23.02
522.255	22.99
522.602	23.18
522.95	23.19
523.298	23.27
523.645	23.31
523.993	23.44
524.341	23.4
524.688	23.51
525.036	23.71
525.383	23.47
525.73	23.48
526.078	23.51
526.425	23.69
526.772	23.54
527.119	23.45
527.466	23.54
527.814	23.57
528.161	23.41
528.508	23.5
528.854	23.55
529.201	23.47
529.548	23.61
529.895	23.33
530.242	23.38
530.588	23.34
530.935	23.26
531.282	23.17
531.628	23.16
531.975	23.28
532.321	23.54
532.667	23.69
533.014	23.85
533.36	23.94
533.706	23.9
534.052	23.97
534.399	24.04
534.745	24.05
535.091	23.89
535.437	23.87
535.783	23.74
536.129	23.94
536.474	23.91
536.82	24.09
537.166	24.21
537.512	24.4
537.857	24.44
538.203	24.47
538.549	24.52
538.894	24.36
539.239	24.34
539.585	24.43
539.93	24.47
540.276	24.88
540.621	24.95
540.966	24.91
541.311	24.97
541.656	24.92
542.001	24.96
542.346	24.99
542.691	24.82
543.036	24.61
543.381	24.48
543.726	24.45
544.071	24.46
544.415	24.55
544.76	24.57
545.105	24.79
545.449	24.91
545.794	24.88
546.138	25.07
546.483	25.21
546.827	25.26
547.171	25.38
547.516	25.22
547.86	25.46
548.204	25.49
548.548	25.25
548.892	25.4
549.236	25.56
549.58	25.64
549.924	25.61
550.268	25.73
550.612	25.92
550.956	25.88
551.3	25.78
551.643	26.12
551.987	26.18
552.33	26.01
552.674	26.07
553.017	26.18
553.361	26.25
553.704	26.17
554.048	26.37
554.391	26.5
554.734	26.22
555.077	26.23
555.42	26.27
555.764	26.53
556.107	26.46
556.45	26.48
556.793	26.42
557.135	26.67
557.478	26.5
557.821	26.63
558.164	26.9
558.507	26.82
558.849	26.68
559.192	26.71
559.534	26.65
559.877	26.51
560.219	26.65
560.562	26.88
560.904	26.88
561.246	26.92
561.589	27.02
561.931	26.97
562.273	27.14
562.615	27.15
562.957	27.18
563.299	27.21
563.641	27.23
563.983	27.36
564.325	27.24
564.667	27.03
565.008	27.34
565.35	27.55
565.692	27.41
566.033	27.56
566.375	27.26
566.716	27.38
567.058	27.6
567.399	27.6
567.741	27.49
568.082	27.55
568.423	27.37
568.764	27.13
569.105	27.71
569.447	27.65
569.788	27.65
570.129	27.67
570.47	27.8
570.811	27.88
571.151	28.02
571.492	28
571.833	28.01
572.174	27.97
572.514	28.05
572.855	28.15
573.195	28.07
573.536	28.01
573.876	27.97
574.217	27.75
574.557	27.95
574.898	28.02
575.238	27.99
575.578	28.04
575.918	28.25
576.258	28.23
576.598	28.37
576.938	28.37
577.278	28.25
577.618	28.21
577.958	28.27
578.298	28.45
578.638	28.48
578.977	28.4
579.317	28.55
579.657	28.67
579.996	28.6
580.336	28.9
580.675	28.76
581.014	28.87
581.354	28.85
581.693	28.69
582.032	29.07
582.372	28.86
582.711	28.9
583.05	29.35
583.389	29.11
583.728	29.59
584.067	29.2
584.406	29.29
584.745	29.01
585.083	29.2
585.422	29.37
585.761	29.38
586.1	29.16
586.438	29.59
586.777	29
587.115	29.37
587.454	29.63
587.792	29.68
588.13	29.59
588.469	29.63
588.807	29.32
589.145	29.64
589.483	29.71
589.821	29.56
590.159	29.62
590.497	29.72
590.835	29.9
591.173	29.82
591.511	29.6
591.849	30
592.187	29.99
592.524	29.7
592.862	29.85
593.2	29.67
593.537	29.97
593.875	29.83
594.212	29.93
594.55	29.85
594.887	30.13
595.224	30.09
595.561	30.07
595.899	30.4
596.236	30.45
596.573	29.99
596.91	30.25
597.247	30.17
597.584	30.37
597.921	30.37
598.258	30.24
598.594	30.26
598.931	30.23
599.268	30.4
599.604	29.94
599.941	29.98
600.277	30.11
600.614	30.65
600.95	30.43
601.287	30.41
601.623	31.02
601.959	30.89
602.296	31.01
602.632	30.82
602.968	30.99
603.304	30.47
603.64	30.79
603.976	30.58
604.312	30.77
604.648	31.14
604.984	31.02
605.319	31.08
605.655	30.74
605.991	31.09
606.326	30.86
606.662	30.96
606.998	30.83
607.333	30.87
607.668	30.85
608.004	30.9
608.339	31.07
608.674	31.06
609.01	31.25
609.345	31.21
609.68	31.25
610.015	31.49
610.35	31.36
610.685	31.51
611.02	31.61
611.355	31.35
611.689	31.73
612.024	31.44
612.359	31.43
612.694	31.26
613.028	31.55
613.363	31.71
613.697	31.52
614.032	31.62
614.366	31.42
614.7	31.53
615.035	31.77
615.369	31.51
615.703	31.77
616.037	31.94
616.371	31.95
616.705	31.45
617.039	31.8
617.373	31.7
617.707	31.81
618.041	32.01
618.375	32.08
618.709	31.81
619.042	31.77
619.376	32.21
619.71	32.17
620.043	32.32
620.377	32.31
620.71	32.49
621.043	32.03
621.377	32.85
621.71	32.08
622.043	31.92
622.376	32.19
622.709	32.16
623.043	32.6
623.376	32.45
623.709	32.65
624.041	32.49
624.374	32.55
624.707	32.47
625.04	32.68
625.373	32.17
625.705	32.97
626.038	32.81
626.37	32.29
626.703	32.76
627.035	32.66
627.368	32.8
627.7	33
628.032	32.72
628.365	33.1
628.697	33.01
629.029	33.45
629.361	32.83
629.693	32.44
630.025	33.07
630.357	32.78
630.689	33.24
631.021	33.13
631.353	33.05
631.684	32.77
632.016	33.04
632.348	33.51
632.679	32.93
633.011	32.81
633.342	32.72
633.674	33.3
634.005	33
634.336	33.12
634.668	33.23
634.999	33.28
635.33	33.47
635.661	33.22
635.992	32.99
636.323	33.33
636.654	33.2
636.985	33.71
637.316	33.33
637.647	33.37
637.977	33.19
638.308	33.65
638.639	33.64
638.969	33.59
639.3	33.86
639.63	33.65
639.961	33.6
640.291	33.65
640.622	34.01
640.952	33.84
641.282	34.34
641.612	33.76
641.943	33.84
642.273	33.88
642.603	34.08
642.933	33.77
643.263	33.84
643.592	33.98
643.922	33.61
644.252	34.24
644.582	33.94
644.911	34.06
645.241	34.02
645.571	34.15
645.9	34
646.23	33.68
646.559	34.23
646.888	34.59
647.218	34.86
647.547	34.02
647.876	33.96
648.205	34.5
648.534	34.09
648.863	34.68
649.192	34.34
649.521	34.38
649.85	34.42
650.179	34.09
650.508	34.72
650.837	34.71
651.165	34.73
651.494	35.15
651.822	34.3
652.151	34.55
652.479	34.97
652.808	34.63
653.136	34.23
653.465	34.99
653.793	34.6
654.121	34.47
654.449	35.15
654.777	35.2
655.105	34.59
655.433	34.45
655.761	34.97
656.089	34.69
656.417	34.98
656.745	34.81
657.073	34.85
657.4	35.17
657.728	35.17
658.056	34.78
658.383	34.85
658.711	35.1
659.038	35.12
659.365	35.21
659.693	34.68
660.02	35.11
660.347	35.33
660.674	35.44
661.001	35.29
661.329	35.26
661.656	35.31
661.982	35.35
662.309	35.48
662.636	35.18
662.963	35.58
663.29	35.29
663.616	35.42
663.943	36.01
664.27	35.53
664.596	35.78
664.923	35.77
665.249	35.51
665.576	35.64
665.902	35.67
666.228	35.49
666.554	36.11
666.881	35.99
667.207	35.63
667.533	35.79
667.859	35.77
668.185	35.81
668.511	35.97
668.837	35.95
669.162	36.03
669.488	36.26
669.814	35.9
670.139	35.93
670.465	36.17
670.791	35.95
671.116	36.02
671.442	36.55
671.767	36.19
672.092	36.23
672.418	36.04
672.743	35.81
673.068	36.49
673.393	35.71
673.718	36.32
674.043	36.49
674.368	36.28
674.693	36.82
675.018	36.15
675.343	35.7
675.667	36.36
675.992	36.49
676.317	36.18
676.641	35.83
676.966	36.65
677.29	37.04
677.615	36.69
677.939	36.36
678.264	36.63
678.588	36.85
678.912	36.23
679.236	36.73
679.56	37.03
679.885	37.13
680.209	36.44
680.532	37.48
680.856	37.09
681.18	36.84
681.504	37.27
681.828	37.06
682.152	36.94
682.475	36.98
682.799	36.57
683.122	36.83
683.446	36.78
683.769	36.89
684.093	36.92
684.416	36.83
684.739	36.94
685.062	37.2
685.386	37.1
685.709	37.32
686.032	37.3
686.355	37.08
686.678	36.83
687.001	37.11
687.324	36.86
687.646	36.91
687.969	37.56
688.292	37.07
688.614	37.1
688.937	37.49
689.26	37.82
689.582	36.62
689.904	36.81
690.227	37.35
690.549	37.62
690.871	36.66
691.194	36.43
691.516	36.77
691.838	36.9
692.16	38.2
692.482	36.23
692.804	37.39
693.126	37.47
693.448	37.45
693.769	37.07
694.091	37.61
694.413	38.08
694.735	38.66
695.056	37.15
695.378	37.81
695.699	37.98
696.021	38.06
696.342	37.66
696.663	38.2
696.984	37.44
697.306	37.36
697.627	37.96
697.948	38.19
698.269	38.35
698.59	38.11
698.911	38.45
699.232	38.6
699.553	37.99
699.873	38.08
700.194	38.29
700.515	38.12
700.835	38.55
701.156	38.01
701.477	38.23
701.797	38.05
702.117	37.85
702.438	38.02
702.758	38.08
703.078	36.9
703.398	38.34
703.719	37.81
704.039	38.07
704.359	38.69
704.679	39.3
704.999	37.56
705.319	38
705.638	37.76
705.958	37.91
706.278	37.96
706.597	37.58
706.917	38.85
707.237	38.3
707.556	37.91
707.876	38.47
708.195	37.48
708.514	38.3
708.834	38.99
709.153	38.28
709.472	39.16
709.791	38.81
710.11	38.22
710.429	37.72
710.748	38.03
711.067	39.76
711.386	38.39
711.705	38.22
712.023	39.02
712.342	39.04
712.661	39.25
712.979	38.14
713.298	38.52
713.616	38.72
713.935	39.02
714.253	38.84
714.572	38.41
714.89	38.48
715.208	39.6
715.526	38.23
715.844	39.83
716.162	39.79
716.48	38.41
716.798	38.77
717.116	38.1
717.434	39.97
717.752	38.57
718.069	39.56
718.387	39.25
718.705	39.55
719.022	38.37
719.34	39.37
719.657	39.98
719.975	38.42
720.292	39.03
720.609	39.37
720.927	38.12
721.244	39.2
721.561	39.75
721.878	38.59
722.195	39.62
722.512	39.47
722.829	39.16
723.146	39.32
723.463	39.14
723.779	38.77
724.096	39.11
724.413	39.19
724.729	38.54
725.046	40.8
725.362	38.86
725.679	39.45
725.995	41.11
726.311	38.6
726.628	39
726.944	40.31
727.26	39.33
727.576	39.27
727.892	38.93
728.208	39.03
728.524	38.95
728.84	39.03
729.156	40.14
729.472	39.25
729.787	39.84
730.103	39.6
730.419	39.42
730.734	38.7
731.05	40.49
731.365	39.43
731.681	39.03
731.996	41.11
732.311	39.55
732.626	39.16
732.942	39.06
733.257	40.9
733.572	39.06
733.887	39.03
734.202	39.78
734.517	39.28
734.832	40.14
735.146	39.85
735.461	38.99
735.776	40
736.091	39.32
736.405	40.04
736.72	40.03
737.034	40.71
737.349	39.53
737.663	40.68
737.977	39.22
738.292	39.35
738.606	39.67
738.92	39.78
739.234	40.41
739.548	39.95
739.862	39.15
740.176	39.93
740.49	39.54
740.804	39.92
741.117	40.37
741.431	39.3
741.745	42.07
742.058	41.35
742.372	39.38
742.685	38.74
742.999	39.01
743.312	41.49
743.626	40.8
743.939	40.33
744.252	39.52
744.565	39.97
744.878	39.26
745.191	40.39
745.505	39.33
745.817	39.68
746.13	40.18
746.443	39.82
746.756	40.74
747.069	40.83
747.381	39.87
747.694	40.27
748.007	40.38
748.319	40.1
748.632	41.67
748.944	39.7
749.256	40.7
749.569	39.7
749.881	40.23
750.193	41.35
750.505	40.92
750.817	40.42
751.129	42.02
751.441	41.25
751.753	42.6
752.065	40.25
752.377	40.82
752.689	40.12
753	40.32
753.312	40.15
753.624	40.72
753.935	39.74
754.247	40.57
754.558	40.36
754.869	41.26
755.181	40.16
755.492	40.87
755.803	42.1
756.114	41.98
756.425	41.87
756.736	42.2
757.047	42.36
757.358	39.05
757.669	40.45
757.98	41.55
758.291	40.19
758.601	40.75
758.912	41.26
759.223	40.62
759.533	41.6
759.844	39.88
760.154	41.38
760.464	40.78
760.775	39.19
761.085	41.2
761.395	41.54
761.705	41.15
762.016	40.38
762.326	40.63
762.636	40.05
762.945	39.43
763.255	40.97
763.565	41.31
763.875	41.34
764.185	40.96
764.494	41.53
764.804	41.43
765.113	40.65
765.423	42.55
765.732	41.1
766.042	42.14
766.351	41.96
766.66	40.89
766.97	42.02
767.279	41.7
767.588	40.96
767.897	39.59
768.206	40.7
768.515	42.26
768.824	41.68
769.133	40.77
769.441	42.2
769.75	41.93
770.059	44.04
770.367	41.76
770.676	40.52
770.984	41.53
771.293	40.26
771.601	39.48
771.91	42.53
772.218	41.66
772.526	43.62
772.834	41.28
773.142	42.96
773.45	39.75
773.758	41.09
774.066	41.57
774.374	40.73
774.682	43.93
774.99	42.05
775.298	40.31
775.605	41.48
775.913	40.76
776.22	42.49
776.528	41.72
776.835	41.83
777.143	38.9
777.45	39.5
777.757	42.05
778.065	43.51
778.372	40.83
778.679	43.27
778.986	41.19
779.293	41.58
779.6	42.75
779.907	41.7
780.214	41.9
780.52	42.61
780.827	40.76
781.134	43.51
781.44	43.99
781.747	41.76
782.053	43.5
782.36	38.98
782.666	41.14
782.973	39.4
783.279	40.36
783.585	43
783.891	39.5
784.197	44.94
784.503	42.33
784.809	46.36
785.115	42.85
785.421	42.41
785.727	46.5
786.033	38.58
786.339	43.6
786.644	41.46
786.95	44.35
787.255	37.56
787.561	39.43
787.866	38.92
788.172	42.04
788.477	41.24
788.782	45.21
789.088	43.82
789.393	41.29
789.698	41.47
790.003	43.22
790.308	42.05
790.613	42.7
790.918	41.21
791.223	39.19
791.527	40.17
791.832	42.44
792.137	41.44
792.441	45.37
792.746	45.25
793.05	40.81
793.355	40.16
793.659	40.07
793.963	39.13
794.268	41.28
794.572	42.8
794.876	43.44
795.18	44.69
795.484	41.87
795.788	43.48
796.092	42.63
796.396	43.43
796.7	43.72
797.004	41.6
797.307	43.52
797.611	40.2
797.915	43.95
798.218	39.64
798.522	42.12
798.825	39.54
799.128	38.14
799.432	39.52
799.735	40.91
800.038	40.91
800.341	39.01
800.644	42.21
800.947	43.58
801.25	40.29
801.553	43.6
801.856	42.26
802.159	42.9
802.462	42.66
802.764	41.17
803.067	38.06
803.37	41.35
803.672	39.92
803.975	40.64
804.277	37.83
804.579	40.81
804.882	45.53
805.184	46.82
805.486	39.74
805.788	43.19
806.09	39.39
806.392	41.31
806.694	43.85
806.996	41.21
807.298	43.67
807.6	44.06
807.902	43.61
808.203	39.76
808.505	43.98
808.807	41.16
809.108	41.54
809.409	41.45
809.711	43.24
810.012	38.74
810.313	47.48
810.615	41.73
810.916	41.63
811.217	37.6
811.518	39.95
811.819	41.99
812.12	41.37
812.421	41.28
812.722	36.98
813.023	36.47
813.323	40.94
813.624	41.23
813.925	43.5
814.225	44.49
814.526	40.93
814.826	42.08
815.126	40.13
815.427	43.99
815.727	42.49
816.027	44.27
816.327	38.04
816.627	36.45
816.927	43.82
817.227	41.57
817.527	38.04
817.827	43
818.127	47.22
818.427	43.23
818.727	43.2
819.026	38.24
819.326	42.33
819.625	39.34
819.925	45.43
820.224	43.69
820.524	45.98
820.823	39.82
821.122	43.27
821.421	41.64
821.72	41.45
822.019	40.34
822.318	43.7
822.617	40.62
822.916	44.69
823.215	41.63
823.514	42.39
823.813	43.66
824.111	43.96
824.41	45.07
824.709	43.72
825.007	42.79
825.306	42.59
825.604	43.45
825.902	43.19
826.201	44.29
826.499	44.06
826.797	44.83
827.095	43.91
827.393	42.81
827.691	42.01
827.989	42.67
828.287	44.36
828.585	43.56
828.882	42.78
829.18	42.23
829.478	45.03
829.775	44.01
830.073	44.19
830.37	44.54
830.668	43.07
830.965	43.44
831.263	42.42
831.56	40.85
831.857	46.23
832.154	42.68
832.451	43.12
832.748	38.29
833.045	39.22
833.342	40.01
833.639	41.25
833.936	38.55
834.232	42.51
834.529	42.32
834.826	43.65
835.122	40.58
835.419	43.79
835.715	46.52
836.012	46.74
836.308	41.42
836.604	40.87
836.901	43.52
837.197	44.58
837.493	42.09
837.789	44.78
838.085	41.54
838.381	42.73
838.677	47.43
838.972	41.94
839.268	43.17
839.564	41.77
839.86	42.23
840.155	42.08
840.451	44.72
840.746	33.18
841.042	50.3
841.337	42
841.632	44.7
841.928	44.46
842.223	40.65
842.518	44.13
842.813	33.83
843.108	51.41
843.403	50.42
843.698	44.93
843.993	41.24
844.287	38.56
844.582	34.75
844.877	39.73
845.171	44.39
845.466	41.87
845.761	45.74
846.055	41.41
846.349	38.87
846.644	21.41
846.938	42.89
847.232	45.48
847.526	42.94
847.82	35
848.114	36.41
848.408	25.17
848.702	26.52
848.996	37.3
849.29	43.8
849.584	35.34
849.877	28.2
850.171	33.6
850.465	30.64
850.758	25
851.052	38.24
851.345	19.89
851.638	40.66
851.932	33.43
852.225	48.04
852.518	36.34
852.811	21.91
853.104	65.44
853.397	45.22
853.69	55.19
853.983	28.22
854.276	32.49
854.569	31.01
854.861	49.15
855.154	35.98
855.447	35.7
855.739	46.51
856.032	39.52
856.324	44.59
856.616	19.19
856.909	26.53
857.201	56.96
857.493	29.64
857.785	36.94
858.077	29.16
858.369	28.47
858.661	58.9
858.953	26.4
859.245	43.04
859.537	46.13
859.829	25.1
860.12	44.67
860.412	36.59
860.703	50.59
860.995	40.64
861.286	47.34
861.578	52.61
861.869	64.78
862.16	53.78
862.452	36.87
862.743	54.76
863.034	56.93
863.325	23.6
863.616	37.86
863.907	52.84
864.198	47.74
864.488	37.88
864.779	40.1
865.07	27.31
865.36	46.77
865.651	35.11
865.941	1.51
866.232	43.84
866.522	29.9
866.813	29.32
867.103	27.87
867.393	33.98
867.683	67.49
867.973	30.69
868.263	7.41
868.553	49.6
868.843	25.8
869.133	30.17
869.423	22.12
869.713	30.6
870.002	32.28
870.292	45.64
870.582	46.52
870.871	51.8
871.161	44.75
871.45	8.9
871.739	75.23
872.029	15.96
872.318	41.56
872.607	14.89
872.896	54.72
873.185	37.96
873.474	25.78
873.763	34.67
874.052	33.15
874.341	25.38
874.63	25.48
874.918	32.09
875.207	18.68
875.496	51.71
875.784	52.12
876.073	1.96
876.361	39
876.649	45
876.938	28.31
877.226	49.73
877.514	34.71
877.802	3.14
878.09	29.37
878.378	45.58
878.666	30.15
878.954	66.27
879.242	43.57
879.53	29.3
879.817	58.13
880.105	36.67
880.392	34.23
880.68	23.95
880.967	56.05
881.255	32.12
881.542	32.55
881.83	15.55
882.117	42.4
882.404	24.14
882.691	33.2
882.978	31.23
883.265	22.27
883.552	44.36
883.839	30.36
884.126	29.37
884.413	37.97
884.699	50.5
884.986	40.75
885.273	43.59
885.559	43.59
885.846	43.59
