Data from 0041_crown_Reflection__3__113.txt Node

Date: Fri Nov 04 15:44:21 CDT 2022
User: ToomeyLab
Spectrometer: FLMS14357
Trigger mode: 0
Integration Time (sec): 1.000000E-2
Scans to average: 100
Electric dark correction enabled: true
Nonlinearity correction enabled: false
Boxcar width: 0
XAxis mode: Wavelengths
Number of Pixels in Spectrum: 2048
>>>>>Begin Spectral Data<<<<<
189.047	62.22
189.435	62.22
189.823	62.22
190.211	-118.12
190.599	-284.52
190.987	-65.76
191.375	10.17
191.763	91.91
192.151	-231.32
192.538	-171.46
192.926	-45.45
193.314	100.79
193.702	140.11
194.089	62.63
194.477	-153.5
194.864	21.16
195.252	3.53
195.639	128.16
196.027	308.18
196.414	-184.71
196.801	78.9
197.189	616.67
197.576	71.94
197.963	122.24
198.351	-8.13
198.738	41.73
199.125	-12.33
199.512	-22.41
199.899	3.41
200.286	-19.08
200.673	-0.96
201.06	-9.9
201.447	-47.21
201.833	0.81
202.22	1.18
202.607	20.29
202.994	35.6
203.38	47.35
203.767	3.28
204.154	45.51
204.54	-16.07
204.927	3.29
205.313	49.23
205.699	13.82
206.086	-41.88
206.472	16.25
206.858	-22.1
207.245	3.69
207.631	-7.19
208.017	4.9
208.403	20.56
208.789	36.39
209.175	11.87
209.561	-117.27
209.947	-62.57
210.333	-19.4
210.719	27.35
211.105	-55.96
211.491	21.83
211.876	9.88
212.262	-51.26
212.648	-8.03
213.034	37.78
213.419	-29.26
213.805	1.02
214.19	-61.58
214.576	-6.94
214.961	23.67
215.346	25.42
215.732	-1.47
216.117	-0.6
216.502	-4.79
216.888	-50.16
217.273	21.53
217.658	-0.84
218.043	0.61
218.428	41.28
218.813	19.8
219.198	11.47
219.583	-32.39
219.968	-4.72
220.353	-26.62
220.738	-19.3
221.122	19.64
221.507	11.83
221.892	0.77
222.276	2
222.661	14.54
223.046	0.93
223.43	4.12
223.815	2.69
224.199	10.28
224.583	7.52
224.968	-4.27
225.352	9.8
225.736	-1.28
226.121	-15.33
226.505	6.56
226.889	7.44
227.273	0.68
227.657	-1.9
228.041	6.72
228.425	8.37
228.809	5.72
229.193	4.31
229.577	3.37
229.961	5.04
230.344	4.2
230.728	4.73
231.112	4.55
231.495	5.02
231.879	5.53
232.263	3.94
232.646	5.92
233.03	4.08
233.413	4.09
233.797	4.19
234.18	5.4
234.563	6.7
234.946	5.72
235.33	7.97
235.713	3.72
236.096	4.88
236.479	4.17
236.862	3.76
237.245	4.78
237.628	4.43
238.011	3.66
238.394	5.68
238.777	5.52
239.16	4.91
239.543	4.46
239.925	5.63
240.308	5.85
240.691	5.6
241.073	4.8
241.456	4.74
241.838	4.83
242.221	5.48
242.603	4.85
242.986	4.77
243.368	5.34
243.75	5.44
244.133	4.96
244.515	5.29
244.897	5
245.279	4.85
245.661	4.93
246.043	5.75
246.425	4.69
246.807	5.65
247.189	4.8
247.571	6.23
247.953	4.71
248.335	4.8
248.717	5.05
249.098	5.09
249.48	4.98
249.862	5.62
250.243	5.09
250.625	4.74
251.006	4.97
251.388	4.73
251.769	5.8
252.151	5.46
252.532	5.18
252.913	4.52
253.295	5.55
253.676	4.46
254.057	4.83
254.438	4.77
254.819	5.04
255.2	4.31
255.581	5.32
255.962	5.09
256.343	4.25
256.724	4.88
257.105	5.64
257.486	5.03
257.867	5.68
258.247	5.64
258.628	4.28
259.009	4.11
259.389	5.16
259.77	4.8
260.15	5.08
260.531	4.78
260.911	4.43
261.292	4.51
261.672	4.49
262.052	4.55
262.432	4.77
262.813	4.42
263.193	4
263.573	4.86
263.953	4.95
264.333	4.89
264.713	4.81
265.093	5
265.473	5.6
265.853	4.35
266.233	4.77
266.612	4.73
266.992	4.97
267.372	3.71
267.752	4.56
268.131	4.84
268.511	5
268.89	4.71
269.27	4.51
269.649	4.89
270.029	4.11
270.408	4.2
270.787	5.18
271.167	4.04
271.546	5.4
271.925	4.48
272.304	4.66
272.683	4.23
273.062	4.62
273.441	4.78
273.82	4.27
274.199	4.75
274.578	4.11
274.957	4.79
275.336	4.02
275.715	4.29
276.093	4.69
276.472	3.87
276.851	4.24
277.229	4.43
277.608	4.19
277.986	4.58
278.365	4.35
278.743	4.4
279.122	4.71
279.5	3.98
279.878	4.88
280.257	4.3
280.635	4.05
281.013	4.02
281.391	5.06
281.769	4.26
282.147	4.24
282.525	3.83
282.903	4.61
283.281	4.89
283.659	4.4
284.037	4.07
284.415	4.3
284.792	4.75
285.17	4.07
285.548	4.48
285.925	4.62
286.303	4.57
286.68	4.28
287.058	4.38
287.435	4.31
287.813	4.28
288.19	4.42
288.567	4.14
288.945	4.32
289.322	4.28
289.699	4.54
290.076	4.12
290.453	4.33
290.83	3.68
291.207	4.01
291.584	4.05
291.961	4.66
292.338	4.58
292.715	4.28
293.092	4.2
293.469	4.39
293.845	4.1
294.222	4.06
294.599	3.65
294.975	3.89
295.352	4.02
295.728	4.49
296.105	3.75
296.481	4.45
296.858	4.27
297.234	4.6
297.61	4.15
297.986	4.28
298.363	3.81
298.739	4.12
299.115	4.13
299.491	4.17
299.867	4.16
300.243	4.2
300.619	4.28
300.995	4.64
301.371	4.62
301.746	3.79
302.122	4.16
302.498	3.96
302.874	4.24
303.249	3.62
303.625	3.86
304	4.53
304.376	3.33
304.751	3.73
305.127	3.58
305.502	4.1
305.878	3.78
306.253	4.55
306.628	3.66
307.003	4.12
307.378	4.27
307.754	3.68
308.129	3.54
308.504	3.98
308.879	4.01
309.254	4.45
309.629	4.27
310.003	4.17
310.378	3.82
310.753	4.27
311.128	3.78
311.502	3.54
311.877	3.86
312.252	3.91
312.626	4.16
313.001	3.9
313.375	3.66
313.75	3.62
314.124	4.24
314.498	3.84
314.873	3.85
315.247	4.31
315.621	4.44
315.995	3.83
316.369	3.75
316.743	4.2
317.117	4.3
317.491	4.33
317.865	3.69
318.239	3.62
318.613	4.47
318.987	3.63
319.361	3.89
319.734	3.91
320.108	3.94
320.482	3.25
320.855	3.75
321.229	4.04
321.602	3.4
321.976	3.75
322.349	4.23
322.723	4.09
323.096	3.83
323.469	3.56
323.843	3.47
324.216	4.27
324.589	3.66
324.962	4.39
325.335	3.83
325.708	3.7
326.081	3.71
326.454	3.7
326.827	4.03
327.2	3.59
327.573	3.61
327.945	3.56
328.318	3.38
328.691	3.76
329.063	3.92
329.436	4.02
329.809	3.49
330.181	4.27
330.553	3.93
330.926	3.84
331.298	4.21
331.671	3.25
332.043	3.86
332.415	4
332.787	3.39
333.159	3.61
333.532	3.21
333.904	4.15
334.276	3.58
334.648	4.53
335.02	2.93
335.391	3.72
335.763	3.96
336.135	3.78
336.507	3.53
336.879	3.89
337.25	3.74
337.622	4.12
337.993	4.34
338.365	3.89
338.736	4.1
339.108	4.63
339.479	3.8
339.851	3.64
340.222	3.66
340.593	3.87
340.964	4.02
341.336	3.64
341.707	3.27
342.078	3.72
342.449	4.29
342.82	3.77
343.191	3.71
343.562	3.74
343.933	4.06
344.303	3.67
344.674	3.86
345.045	3.21
345.416	3.62
345.786	4.15
346.157	3.94
346.527	3.88
346.898	3.92
347.268	3.77
347.639	3.65
348.009	4.17
348.38	3.61
348.75	4.09
349.12	3.64
349.49	3.85
349.861	3.94
350.231	4.24
350.601	3.88
350.971	3.63
351.341	3.8
351.711	3.83
352.081	3.81
352.45	3.85
352.82	3.91
353.19	4.1
353.56	3.8
353.929	3.54
354.299	4.17
354.669	3.87
355.038	4.07
355.408	3.86
355.777	4.05
356.147	3.87
356.516	3.92
356.885	3.61
357.254	3.88
357.624	3.96
357.993	4.1
358.362	4.14
358.731	3.72
359.1	3.87
359.469	3.74
359.838	3.84
360.207	3.75
360.576	3.77
360.945	4.06
361.314	4.2
361.682	3.98
362.051	3.69
362.42	3.93
362.788	4.05
363.157	4.01
363.525	3.92
363.894	3.99
364.262	4.16
364.631	4.25
364.999	4.01
365.367	3.96
365.735	4.47
366.104	3.89
366.472	4.1
366.84	3.69
367.208	4.31
367.576	3.93
367.944	4.26
368.312	4.25
368.68	4.03
369.048	3.83
369.416	4.14
369.783	4.05
370.151	3.79
370.519	4.63
370.886	4.23
371.254	4.32
371.621	4.15
371.989	4.03
372.356	4.39
372.724	4.37
373.091	4.13
373.458	3.99
373.826	4.39
374.193	4.02
374.56	3.89
374.927	4.38
375.294	3.97
375.661	4.27
376.028	4.03
376.395	4.24
376.762	4.34
377.129	4.12
377.496	4.27
377.863	4.08
378.229	4.17
378.596	4.18
378.963	3.85
379.329	4
379.696	4.26
380.062	4.25
380.429	4.4
380.795	4.24
381.161	4.38
381.528	4.41
381.894	4.19
382.26	4.47
382.626	4.11
382.993	4.31
383.359	4.3
383.725	4.13
384.091	4.09
384.457	4.43
384.823	4.48
385.188	4.53
385.554	4.17
385.92	4.34
386.286	4.33
386.651	4.2
387.017	4.09
387.383	4.22
387.748	4.05
388.114	4.04
388.479	4.99
388.845	4.37
389.21	4.47
389.575	4.64
389.94	4.3
390.306	4.39
390.671	4.5
391.036	4.05
391.401	4.5
391.766	4.09
392.131	4.3
392.496	4.3
392.861	4.29
393.226	4.22
393.591	4.41
393.956	4.6
394.32	4.36
394.685	4.34
395.05	4.4
395.414	4.49
395.779	4.52
396.143	4.46
396.508	4.66
396.872	4.21
397.236	4.65
397.601	4.42
397.965	4.62
398.329	4.59
398.694	4.39
399.058	4.74
399.422	4.56
399.786	4.36
400.15	4.33
400.514	4.43
400.878	4.54
401.242	4.64
401.605	4.53
401.969	4.65
402.333	4.6
402.697	4.57
403.06	4.65
403.424	4.76
403.787	4.65
404.151	4.65
404.514	4.58
404.878	4.43
405.241	4.65
405.604	4.66
405.968	4.49
406.331	4.59
406.694	4.6
407.057	4.61
407.42	4.61
407.783	4.36
408.146	4.76
408.509	4.7
408.872	4.51
409.235	4.61
409.598	4.77
409.961	4.82
410.323	4.38
410.686	4.65
411.049	4.49
411.411	4.54
411.774	4.77
412.136	4.85
412.499	4.77
412.861	4.69
413.223	4.52
413.586	4.65
413.948	4.9
414.31	4.65
414.672	4.7
415.035	4.93
415.397	4.77
415.759	4.84
416.121	4.69
416.483	4.81
416.845	4.82
417.206	4.56
417.568	4.85
417.93	4.78
418.292	4.75
418.653	4.97
419.015	4.76
419.377	4.88
419.738	4.59
420.1	4.68
420.461	4.82
420.822	4.64
421.184	4.74
421.545	4.53
421.906	4.67
422.267	4.67
422.629	4.71
422.99	4.64
423.351	4.58
423.712	4.66
424.073	4.78
424.434	4.75
424.795	4.7
425.155	4.88
425.516	4.9
425.877	4.57
426.238	4.76
426.598	4.71
426.959	4.66
427.32	4.7
427.68	4.8
428.041	4.75
428.401	4.9
428.761	4.99
429.122	4.81
429.482	4.92
429.842	4.72
430.202	5.11
430.563	4.86
430.923	5.11
431.283	4.79
431.643	5.11
432.003	5.08
432.363	4.87
432.722	4.95
433.082	5.07
433.442	4.91
433.802	4.89
434.161	4.87
434.521	4.8
434.881	5
435.24	4.88
435.6	4.98
435.959	4.86
436.319	5.02
436.678	5.04
437.037	4.97
437.396	5.17
437.756	5.15
438.115	4.84
438.474	5.09
438.833	5.22
439.192	4.99
439.551	4.89
439.91	5.1
440.269	5.1
440.628	5.05
440.987	5.27
441.345	4.98
441.704	4.86
442.063	4.95
442.421	4.98
442.78	4.93
443.138	4.94
443.497	4.95
443.855	4.86
444.214	5.03
444.572	5.05
444.93	4.99
445.288	5.13
445.647	5.02
446.005	4.97
446.363	5.09
446.721	5.01
447.079	4.95
447.437	4.91
447.795	5.04
448.153	4.88
448.51	4.98
448.868	4.87
449.226	4.86
449.584	4.93
449.941	4.98
450.299	5.09
450.656	4.91
451.014	5.13
451.371	5.12
451.729	5.28
452.086	5.04
452.443	5.18
452.801	5.14
453.158	5.08
453.515	5.12
453.872	5.04
454.229	5.12
454.586	5.18
454.943	5.22
455.3	5.18
455.657	5.04
456.014	5.09
456.371	5.14
456.727	5.21
457.084	5.32
457.441	5.12
457.797	5.16
458.154	5.19
458.51	5.4
458.867	5.15
459.223	5.09
459.58	5.4
459.936	5.2
460.292	5.05
460.648	5.19
461.005	5.09
461.361	5.04
461.717	5.06
462.073	5.09
462.429	5.19
462.785	5.08
463.141	5.2
463.496	5.2
463.852	5.43
464.208	5.24
464.564	5.11
464.919	5.37
465.275	5.2
465.631	5.38
465.986	5.31
466.342	5.33
466.697	5.34
467.052	5.22
467.408	5.27
467.763	5.15
468.118	5.39
468.473	5.36
468.829	5.06
469.184	5.33
469.539	5.12
469.894	5.42
470.249	5.26
470.603	5.31
470.958	5.27
471.313	5.3
471.668	5.27
472.023	5.24
472.377	5.3
472.732	5.34
473.086	5.24
473.441	5.26
473.795	5.28
474.15	5.3
474.504	5.5
474.859	5.25
475.213	5.06
475.567	5.11
475.921	5.19
476.275	5.33
476.63	5.21
476.984	5.23
477.338	5.49
477.692	5.55
478.045	5.3
478.399	5.26
478.753	5.36
479.107	5.44
479.461	5.44
479.814	5.5
480.168	5.38
480.521	5.33
480.875	5.35
481.228	5.5
481.582	5.49
481.935	5.33
482.289	5.26
482.642	5.31
482.995	5.5
483.348	5.34
483.701	5.36
484.055	5.25
484.408	5.29
484.761	5.16
485.114	5.13
485.466	5
485.819	4.94
486.172	4.98
486.525	5.04
486.878	5.17
487.23	5.25
487.583	5.26
487.936	5.3
488.288	5.31
488.641	5.21
488.993	5.17
489.345	5.09
489.698	5.1
490.05	5.15
490.402	5.13
490.754	5.26
491.107	5.3
491.459	5.35
491.811	5.27
492.163	5.47
492.515	5.4
492.866	5.27
493.218	5.26
493.57	5.18
493.922	5.25
494.274	5.25
494.625	5.34
494.977	5.38
495.328	5.57
495.68	5.4
496.031	5.5
496.383	5.5
496.734	5.52
497.086	5.56
497.437	5.59
497.788	5.62
498.139	5.39
498.49	5.38
498.842	5.57
499.193	5.44
499.544	5.41
499.894	5.44
500.245	5.46
500.596	5.41
500.947	5.48
501.298	5.51
501.648	5.5
501.999	5.68
502.35	5.49
502.7	5.6
503.051	5.65
503.401	5.55
503.752	5.61
504.102	5.53
504.452	5.5
504.803	5.5
505.153	5.54
505.503	5.54
505.853	5.71
506.203	5.47
506.553	5.7
506.903	5.6
507.253	5.62
507.603	5.52
507.953	5.56
508.303	5.52
508.652	5.62
509.002	5.77
509.352	5.7
509.701	5.61
510.051	5.62
510.4	5.57
510.75	5.54
511.099	5.56
511.449	5.47
511.798	5.52
512.147	5.52
512.496	5.55
512.846	5.39
513.195	5.59
513.544	5.54
513.893	5.68
514.242	5.56
514.591	5.55
514.939	5.62
515.288	5.7
515.637	5.7
515.986	5.66
516.334	5.71
516.683	5.73
517.032	5.76
517.38	5.65
517.729	5.69
518.077	5.7
518.426	5.67
518.774	5.68
519.122	5.58
519.47	5.58
519.819	5.61
520.167	5.58
520.515	5.55
520.863	5.52
521.211	5.52
521.559	5.58
521.907	5.52
522.255	5.69
522.602	5.77
522.95	5.68
523.298	5.72
523.645	5.68
523.993	5.76
524.341	5.77
524.688	5.65
525.036	5.62
525.383	5.85
525.73	5.72
526.078	5.81
526.425	5.75
526.772	5.66
527.119	5.61
527.466	5.58
527.814	5.58
528.161	5.62
528.508	5.62
528.854	5.63
529.201	5.58
529.548	5.49
529.895	5.53
530.242	5.37
530.588	5.37
530.935	5.38
531.282	5.41
531.628	5.48
531.975	5.53
532.321	5.68
532.667	5.58
533.014	5.63
533.36	5.72
533.706	5.77
534.052	5.71
534.399	5.62
534.745	5.66
535.091	5.54
535.437	5.51
535.783	5.47
536.129	5.62
536.474	5.68
536.82	5.74
537.166	5.76
537.512	5.8
537.857	5.68
538.203	5.63
538.549	5.58
538.894	5.72
539.239	5.74
539.585	5.75
539.93	5.59
540.276	5.73
540.621	5.8
540.966	5.85
541.311	5.72
541.656	5.76
542.001	5.75
542.346	5.69
542.691	5.6
543.036	5.47
543.381	5.54
543.726	5.64
544.071	5.56
544.415	5.68
544.76	5.62
545.105	5.68
545.449	5.76
545.794	5.82
546.138	5.71
546.483	5.78
546.827	5.76
547.171	5.84
547.516	5.83
547.86	5.82
548.204	5.91
548.548	5.75
548.892	5.81
549.236	5.77
549.58	5.77
549.924	5.91
550.268	6.1
550.612	5.92
550.956	6.06
551.3	5.8
551.643	5.96
551.987	5.94
552.33	5.88
552.674	5.88
553.017	5.96
553.361	6.19
553.704	5.91
554.048	5.86
554.391	5.8
554.734	5.92
555.077	5.91
555.42	5.9
555.764	6.15
556.107	6.11
556.45	5.92
556.793	6.16
557.135	6.02
557.478	5.87
557.821	6.06
558.164	6.09
558.507	6.06
558.849	6.22
559.192	6.23
559.534	5.9
559.877	5.93
560.219	6.01
560.562	5.98
560.904	6.05
561.246	6.05
561.589	6.03
561.931	6.01
562.273	6.11
562.615	5.91
562.957	6.13
563.299	6.01
563.641	6.15
563.983	6.05
564.325	6.03
564.667	5.78
565.008	6.03
565.35	5.82
565.692	6.13
566.033	6.01
566.375	6.18
566.716	6.07
567.058	6.1
567.399	6.06
567.741	6.07
568.082	6.11
568.423	6.03
568.764	5.88
569.105	6.04
569.447	6.17
569.788	6.12
570.129	6.34
570.47	6.03
570.811	6.13
571.151	6.12
571.492	6.09
571.833	6.06
572.174	6.25
572.514	6.02
572.855	5.97
573.195	6.2
573.536	6.06
573.876	5.95
574.217	5.97
574.557	6.11
574.898	6.14
575.238	6.06
575.578	6.19
575.918	5.96
576.258	6.02
576.598	6.04
576.938	6.11
577.278	6.05
577.618	6.07
577.958	6.05
578.298	5.99
578.638	6.08
578.977	6.21
579.317	6.21
579.657	6.28
579.996	6.08
580.336	6.24
580.675	6.03
581.014	6.22
581.354	6.35
581.693	6.44
582.032	6.1
582.372	6.32
582.711	6.33
583.05	6.42
583.389	6.26
583.728	6.28
584.067	6.47
584.406	6.21
584.745	6.51
585.083	6.12
585.422	6.43
585.761	6.2
586.1	6.21
586.438	6.02
586.777	6.29
587.115	6.14
587.454	6.51
587.792	6.32
588.13	6.11
588.469	6.49
588.807	6.5
589.145	6.52
589.483	5.84
589.821	6.3
590.159	6.11
590.497	6.56
590.835	6.23
591.173	5.97
591.511	6.35
591.849	6.31
592.187	6.21
592.524	6.37
592.862	6.11
593.2	6.32
593.537	6.19
593.875	6.37
594.212	6
594.55	6.09
594.887	6.37
595.224	6.52
595.561	5.97
595.899	6.1
596.236	6.35
596.573	6.33
596.91	6.19
597.247	6.17
597.584	6.24
597.921	6.41
598.258	6.13
598.594	5.91
598.931	6.14
599.268	6.35
599.604	6.29
599.941	6.13
600.277	6.15
600.614	6.31
600.95	6.39
601.287	6.38
601.623	6.23
601.959	6.43
602.296	6.38
602.632	6.42
602.968	6.14
603.304	6.11
603.64	6.16
603.976	6.11
604.312	6.32
604.648	6.12
604.984	6.07
605.319	6.27
605.655	6.17
605.991	6.47
606.326	6.22
606.662	6.13
606.998	6.1
607.333	5.93
607.668	6.39
608.004	6.14
608.339	6.15
608.674	6.29
609.01	6.11
609.345	6.3
609.68	6.48
610.015	6.45
610.35	6.43
610.685	6.55
611.02	6.26
611.355	6.3
611.689	6.21
612.024	6.2
612.359	6.32
612.694	6.32
613.028	6.55
613.363	6.59
613.697	6.17
614.032	6.29
614.366	6.52
614.7	6.2
615.035	6.39
615.369	6.3
615.703	6.52
616.037	6.25
616.371	6.55
616.705	6.63
617.039	6.38
617.373	6.42
617.707	6.55
618.041	6.06
618.375	6.26
618.709	6.53
619.042	6.52
619.376	6.49
619.71	6.2
620.043	6.75
620.377	6.62
620.71	6.58
621.043	6.14
621.377	6.75
621.71	6.59
622.043	6.51
622.376	6.45
622.709	6.7
623.043	5.82
623.376	6.63
623.709	5.99
624.041	6.64
624.374	6.75
624.707	6.26
625.04	6.5
625.373	6.84
625.705	6.53
626.038	6.4
626.37	6.62
626.703	7.03
627.035	6.34
627.368	6.35
627.7	6.18
628.032	6.04
628.365	6.56
628.697	6.21
629.029	6.28
629.361	6.54
629.693	6.49
630.025	6.69
630.357	6.37
630.689	6.94
631.021	6.43
631.353	6.62
631.684	6.51
632.016	6.57
632.348	6.57
632.679	6.27
633.011	6.69
633.342	6.34
633.674	6.25
634.005	6.71
634.336	6.73
634.668	6.54
634.999	6.8
635.33	6.44
635.661	6.48
635.992	6.44
636.323	6.34
636.654	6.02
636.985	6.69
637.316	6.54
637.647	6.13
637.977	6.56
638.308	6.95
638.639	6.64
638.969	6.43
639.3	6.79
639.63	6.73
639.961	6.61
640.291	6.75
640.622	6.71
640.952	6.66
641.282	6.42
641.612	6.62
641.943	6.1
642.273	5.96
642.603	6.64
642.933	6.34
643.263	5.85
643.592	6.29
643.922	6.99
644.252	6.59
644.582	6.21
644.911	6.53
645.241	6.03
645.571	6.21
645.9	6.26
646.23	6.56
646.559	6.84
646.888	6.36
647.218	6.46
647.547	6.7
647.876	6.58
648.205	6.34
648.534	6.64
648.863	6.96
649.192	6.45
649.521	6.33
649.85	6.8
650.179	6.78
650.508	6.3
650.837	6.68
651.165	7.01
651.494	6.48
651.822	6.35
652.151	6.69
652.479	6.39
652.808	6.36
653.136	6.09
653.465	6.66
653.793	7
654.121	6.19
654.449	6.19
654.777	6.75
655.105	6.71
655.433	6.62
655.761	6.49
656.089	6.6
656.417	6.54
656.745	6.13
657.073	6.36
657.4	6.35
657.728	6.63
658.056	6.33
658.383	6.46
658.711	6.11
659.038	6.99
659.365	7.23
659.693	6.65
660.02	6.66
660.347	6.36
660.674	6.52
661.001	6.32
661.329	6.69
661.656	6.35
661.982	6.23
662.309	6.51
662.636	6.36
662.963	6.06
663.29	6.41
663.616	6.73
663.943	6.78
664.27	7.15
664.596	6.81
664.923	6.36
665.249	7.11
665.576	6.35
665.902	6.02
666.228	6.14
666.554	7.11
666.881	6.63
667.207	6.71
667.533	6.76
667.859	7
668.185	6.9
668.511	6.77
668.837	5.91
669.162	7.03
669.488	6.33
669.814	6.27
670.139	6.38
670.465	6.78
670.791	7.07
671.116	6.94
671.442	7.02
671.767	6.94
672.092	6.83
672.418	6.94
672.743	7.39
673.068	6.92
673.393	6.55
673.718	6.75
674.043	6.14
674.368	6.12
674.693	6.75
675.018	6.46
675.343	6.91
675.667	6.83
675.992	6.02
676.317	6.61
676.641	7.1
676.966	6.33
677.29	6.12
677.615	7.17
677.939	7.24
678.264	6.86
678.588	6.23
678.912	6.89
679.236	6.88
679.56	6.83
679.885	7.02
680.209	6.9
680.532	6.48
680.856	7.08
681.18	6.33
681.504	7.26
681.828	6.44
682.152	7.06
682.475	6.97
682.799	7
683.122	7.09
683.446	6.81
683.769	6.34
684.093	6.68
684.416	6.72
684.739	6.89
685.062	7.69
685.386	6.26
685.709	6.5
686.032	7.06
686.355	8.43
686.678	6.37
687.001	7.08
687.324	6.54
687.646	7.12
687.969	6.45
688.292	7.46
688.614	7.53
688.937	6.76
689.26	7.25
689.582	7.39
689.904	6.67
690.227	7.48
690.549	7.19
690.871	7.3
691.194	6.72
691.516	6.74
691.838	7.08
692.16	7.72
692.482	6.83
692.804	6.82
693.126	7.02
693.448	6.68
693.769	7.21
694.091	8.01
694.413	6.39
694.735	7.23
695.056	7.22
695.378	6.35
695.699	8.12
696.021	7.92
696.342	8.05
696.663	6.6
696.984	7.19
697.306	7.22
697.627	7.11
697.948	6.35
698.269	7.17
698.59	6.77
698.911	7.15
699.232	6.56
699.553	7.65
699.873	6.23
700.194	7.19
700.515	6.36
700.835	7.1
701.156	6.92
701.477	6.55
701.797	6.93
702.117	6.93
702.438	7.03
702.758	6.77
703.078	7.73
703.398	6.76
703.719	6.73
704.039	7.6
704.359	7.9
704.679	6.52
704.999	6.61
705.319	7.47
705.638	6.91
705.958	6.3
706.278	7.44
706.597	6.34
706.917	6.48
707.237	6.62
707.556	6.98
707.876	6.73
708.195	6.84
708.514	8.27
708.834	8.13
709.153	7.35
709.472	7.96
709.791	6.65
710.11	7.32
710.429	7.42
710.748	7.12
711.067	7.19
711.386	6.66
711.705	6.73
712.023	8.04
712.342	7.02
712.661	7.34
712.979	7.02
713.298	7.13
713.616	6.67
713.935	7.35
714.253	7.73
714.572	7.38
714.89	6.52
715.208	7.69
715.526	8.07
715.844	7.22
716.162	7.48
716.48	7.55
716.798	7.1
717.116	7.56
717.434	7.16
717.752	6.59
718.069	7.92
718.387	6.15
718.705	7.28
719.022	7.97
719.34	7.95
719.657	7.42
719.975	6.61
720.292	8.36
720.609	7.62
720.927	6.92
721.244	6.94
721.561	7
721.878	7.29
722.195	8.9
722.512	6.58
722.829	9
723.146	5.8
723.463	7.9
723.779	8.91
724.096	8.19
724.413	7.69
724.729	7.91
725.046	7.21
725.362	7
725.679	7.63
725.995	7.67
726.311	8.25
726.628	7.58
726.944	6.91
727.26	7.9
727.576	8.27
727.892	9.23
728.208	8.35
728.524	6.72
728.84	6.17
729.156	8.16
729.472	7.83
729.787	7.76
730.103	7.25
730.419	8.2
730.734	7.02
731.05	7.5
731.365	7.13
731.681	6.77
731.996	9.39
732.311	7.35
732.626	7.03
732.942	7.76
733.257	6.72
733.572	8.01
733.887	8.31
734.202	7.42
734.517	7.77
734.832	9.84
735.146	8.02
735.461	7.72
735.776	6.23
736.091	7.39
736.405	7.51
736.72	7.08
737.034	7.2
737.349	7.92
737.663	8.34
737.977	8.66
738.292	8.42
738.606	6.42
738.92	8.19
739.234	7.02
739.548	9.67
739.862	7.88
740.176	5.9
740.49	6.7
740.804	7.1
741.117	8.51
741.431	7.89
741.745	8.43
742.058	7.16
742.372	6.62
742.685	7.81
742.999	8.26
743.312	8.03
743.626	8.18
743.939	10.33
744.252	7.02
744.565	6.18
744.878	8.02
745.191	8.04
745.505	5.5
745.817	7.32
746.13	8.21
746.443	8.24
746.756	8.61
747.069	8.4
747.381	8.63
747.694	10.07
748.007	7.32
748.319	8.51
748.632	7.58
748.944	8.17
749.256	8.2
749.569	7.38
749.881	5.32
750.193	7.62
750.505	6.91
750.817	7.9
751.129	7.44
751.441	6.76
751.753	7.29
752.065	6.07
752.377	6.54
752.689	6.6
753	6.02
753.312	8.35
753.624	8.37
753.935	10.29
754.247	9.59
754.558	6.95
754.869	6.87
755.181	8.69
755.492	9.87
755.803	7.9
756.114	9.06
756.425	9.1
756.736	10.14
757.047	7.21
757.358	7.96
757.669	8.03
757.98	7.86
758.291	9.47
758.601	8.58
758.912	8.07
759.223	10.5
759.533	7.13
759.844	5.94
760.154	8.47
760.464	9.16
760.775	8.47
761.085	7.35
761.395	5.91
761.705	6.68
762.016	7.62
762.326	9.79
762.636	8.68
762.945	8.25
763.255	8.27
763.565	10.08
763.875	9.74
764.185	8.71
764.494	9.04
764.804	9.2
765.113	8.46
765.423	9.49
765.732	8.78
766.042	8.85
766.351	8.97
766.66	8.43
766.97	8.05
767.279	8.74
767.588	9.85
767.897	7.79
768.206	10.17
768.515	6.85
768.824	8.36
769.133	8.14
769.441	8.95
769.75	9.15
770.059	9.39
770.367	8.2
770.676	7.58
770.984	9.77
771.293	8.96
771.601	8.81
771.91	9.51
772.218	6.61
772.526	13.39
772.834	7.31
773.142	8.89
773.45	9.6
773.758	9.64
774.066	9.56
774.374	9.33
774.682	8.91
774.99	6.15
775.298	12.82
775.605	7.05
775.913	6.59
776.22	8.22
776.528	11.55
776.835	8.84
777.143	8.14
777.45	7.66
777.757	8.32
778.065	8.23
778.372	8.68
778.679	11.36
778.986	8.13
779.293	11.06
779.6	14.31
779.907	10.57
780.214	9.36
780.52	11.29
780.827	9.39
781.134	10.05
781.44	5.64
781.747	7.48
782.053	8.59
782.36	10.12
782.666	6.25
782.973	11.96
783.279	8.88
783.585	6.45
783.891	10.18
784.197	8.02
784.503	4.79
784.809	11.42
785.115	12.13
785.421	6.53
785.727	7.86
786.033	5.93
786.339	7.69
786.644	6.02
786.95	6.95
787.255	6.52
787.561	7.18
787.866	9.3
788.172	6.58
788.477	12.56
788.782	9.95
789.088	10.64
789.393	9.06
789.698	8.15
790.003	8.65
790.308	9.91
790.613	3.89
790.918	8.18
791.223	12.21
791.527	10.22
791.832	10.24
792.137	7.54
792.441	10.18
792.746	6.92
793.05	9.28
793.355	11.75
793.659	9.04
793.963	9.23
794.268	9.93
794.572	10.25
794.876	15.49
795.18	13.7
795.484	3.83
795.788	9.61
796.092	9.12
796.396	8.87
796.7	15.38
797.004	11.91
797.307	11.67
797.611	9.68
797.915	11.78
798.218	5.11
798.522	10.59
798.825	8.71
799.128	6.16
799.432	6.93
799.735	13.71
800.038	9.01
800.341	7.31
800.644	9.37
800.947	9.82
801.25	7.7
801.553	10.58
801.856	12.66
802.159	8.45
802.462	11.45
802.764	7.13
803.067	4.71
803.37	3.67
803.672	7.47
803.975	12.42
804.277	15.23
804.579	8.54
804.882	8.68
805.184	7.04
805.486	10.57
805.788	12.27
806.09	6.88
806.392	9.77
806.694	5.16
806.996	11.74
807.298	7.02
807.6	9.17
807.902	13.19
808.203	7.12
808.505	10.62
808.807	11.02
809.108	10
809.409	13.68
809.711	5.15
810.012	12.35
810.313	8.2
810.615	11.39
810.916	11.67
811.217	10.7
811.518	14.77
811.819	7.65
812.12	7.55
812.421	11.36
812.722	9.53
813.023	7.38
813.323	13.04
813.624	8.95
813.925	6.46
814.225	14.81
814.526	12.59
814.826	3.35
815.126	14.43
815.427	4.69
815.727	2.16
816.027	3.32
816.327	8.04
816.627	10.24
816.927	5.32
817.227	12.46
817.527	11.32
817.827	8.61
818.127	16.03
818.427	12.4
818.727	12.92
819.026	10.63
819.326	6.71
819.625	7.29
819.925	9.39
820.224	12.6
820.524	11.49
820.823	11.06
821.122	10.96
821.421	9.57
821.72	13.09
822.019	12.57
822.318	11.23
822.617	3.96
822.916	10.09
823.215	13.77
823.514	11.51
823.813	8.33
824.111	12.86
824.41	7.59
824.709	9.96
825.007	10.96
825.306	10.55
825.604	10.63
825.902	10.19
826.201	11.29
826.499	10.76
826.797	11.14
827.095	10.88
827.393	8.98
827.691	11.18
827.989	10.81
828.287	12.31
828.585	10.53
828.882	9.73
829.18	6.73
829.478	7.16
829.775	9.02
830.073	9.5
830.37	10.25
830.668	8.91
830.965	10.59
831.263	12.53
831.56	9.17
831.857	8.02
832.154	14.04
832.451	10.5
832.748	7.19
833.045	14.07
833.342	13.73
833.639	14.09
833.936	9.13
834.232	8.63
834.529	16.34
834.826	3.07
835.122	18.1
835.419	10.6
835.715	3.74
836.012	9.62
836.308	5.73
836.604	11.36
836.901	9.82
837.197	10.25
837.493	7.21
837.789	8.84
838.085	8.53
838.381	13.18
838.677	11.86
838.972	11.13
839.268	11.84
839.564	7.25
839.86	11.14
840.155	11.16
840.451	14.49
840.746	15.2
841.042	16.59
841.337	15.41
841.632	9.55
841.928	1.38
842.223	5.64
842.518	15.04
842.813	10.42
843.108	12.67
843.403	12.4
843.698	12.85
843.993	7.07
844.287	14.78
844.582	13.61
844.877	14.4
845.171	5.36
845.466	6.36
845.761	16.35
846.055	19.34
846.349	14.65
846.644	19.08
846.938	-8.29
847.232	-10.84
847.526	17.73
847.82	9.22
848.114	23.62
848.408	21.04
848.702	3.44
848.996	3.41
849.29	15.43
849.584	9.56
849.877	19.08
850.171	33.95
850.465	13.9
850.758	9.21
851.052	14.04
851.345	16.91
851.638	-1.53
851.932	23.89
852.225	8.82
852.518	10.25
852.811	1.06
853.104	22.87
853.397	1.74
853.69	10.02
853.983	1.19
854.276	15.86
854.569	17.04
854.861	2.24
855.154	7.4
855.447	-19.53
855.739	19.05
856.032	20.23
856.324	20.52
856.616	7.33
856.909	6.71
857.201	20.45
857.493	14.73
857.785	13.61
858.077	2.9
858.369	19.15
858.661	18.05
858.953	-19.94
859.245	-1.59
859.537	-1.91
859.829	33.73
860.12	18.88
860.412	-10.81
860.703	-17.27
860.995	-27.25
861.286	13.18
861.578	44.22
861.869	31.89
862.16	19.73
862.452	3.61
862.743	17.61
863.034	20.48
863.325	-17.25
863.616	28.16
863.907	-5.22
864.198	8.95
864.488	-37.84
864.779	-0.44
865.07	18.88
865.36	9.6
865.651	-3.65
865.941	15.91
866.232	-14.05
866.522	28.18
866.813	16.57
867.103	8.35
867.393	27.33
867.683	10.91
867.973	-7.86
868.263	27.47
868.553	28.9
868.843	23.84
869.133	8.6
869.423	15.59
869.713	12.69
870.002	14.68
870.292	7.42
870.582	20.07
870.871	-1.02
871.161	4.35
871.45	42.56
871.739	12.99
872.029	15.58
872.318	15.66
872.607	-1.26
872.896	20.52
873.185	18.17
873.474	14.14
873.763	17.86
874.052	-3.39
874.341	2.19
874.63	9.5
874.918	-3.67
875.207	19.34
875.496	-0.48
875.784	11.46
876.073	3.33
876.361	22.38
876.649	7.39
876.938	4.98
877.226	19.36
877.514	24.73
877.802	2.19
878.09	-33.22
878.378	24.57
878.666	-3.32
878.954	7.12
879.242	4.48
879.53	-4.84
879.817	1.68
880.105	-22.62
880.392	4.12
880.68	-19.99
880.967	45.28
881.255	21.69
881.542	4.38
881.83	6.92
882.117	-1.89
882.404	40.15
882.691	13.68
882.978	-2.22
883.265	-11.75
883.552	11.27
883.839	14.26
884.126	17.53
884.413	16.2
884.699	7.99
884.986	24.32
885.273	4.36
885.559	4.36
885.846	4.36
