Data from 0066_forehead_Reflection__0__148.txt Node

Date: Fri Dec 16 15:04:53 CST 2022
User: ToomeyLab
Spectrometer: FLMS14357
Trigger mode: 0
Integration Time (sec): 1.000000E-2
Scans to average: 100
Electric dark correction enabled: true
Nonlinearity correction enabled: false
Boxcar width: 0
XAxis mode: Wavelengths
Number of Pixels in Spectrum: 2048
>>>>>Begin Spectral Data<<<<<
189.047	44.77
189.435	44.77
189.823	44.77
190.211	88.09
190.599	-1743.18
190.987	-251.05
191.375	-41.5
191.763	1173.28
192.151	77.09
192.538	48.76
192.926	-349.19
193.314	109.29
193.702	-51.8
194.089	28.19
194.477	212.03
194.864	-177.17
195.252	8.11
195.639	65.58
196.027	229.11
196.414	85.1
196.801	507.47
197.189	182.39
197.576	46.85
197.963	-9.51
198.351	40.82
198.738	-3.29
199.125	80.53
199.512	13.11
199.899	-31.95
200.286	-27.9
200.673	22.72
201.06	40.11
201.447	13.32
201.833	25.6
202.22	11.02
202.607	-12.81
202.994	27.19
203.38	-40.46
203.767	17.52
204.154	-60.89
204.54	56.94
204.927	-8.26
205.313	18.08
205.699	2.23
206.086	-15.61
206.472	-24.3
206.858	-21.04
207.245	3.89
207.631	-35.31
208.017	21.37
208.403	-1.49
208.789	25.58
209.175	51.48
209.561	8.94
209.947	20.42
210.333	11.89
210.719	22.78
211.105	-54.74
211.491	-10.47
211.876	1.57
212.262	-49.19
212.648	-86.94
213.034	6.63
213.419	15.93
213.805	14.51
214.19	-27.09
214.576	11.79
214.961	-0.39
215.346	-7.86
215.732	-9
216.117	20.91
216.502	17.16
216.888	-22.04
217.273	16.04
217.658	-4.4
218.043	0.55
218.428	12.1
218.813	-11.62
219.198	-21.64
219.583	20.14
219.968	-0.99
220.353	24.94
220.738	-12.11
221.122	-5.45
221.507	-2.43
221.892	18.83
222.276	15.79
222.661	18.15
223.046	20.12
223.43	-1.43
223.815	14.76
224.199	1.87
224.583	0.99
224.968	17.86
225.352	7.19
225.736	9.85
226.121	-7.85
226.505	6.82
226.889	-1.75
227.273	0.96
227.657	5.03
228.041	4.27
228.425	4.54
228.809	7.82
229.193	1.98
229.577	2.04
229.961	4.86
230.344	2.75
230.728	3.62
231.112	3.32
231.495	1.81
231.879	2.58
232.263	3.24
232.646	3.79
233.03	0.99
233.413	2.87
233.797	4.95
234.18	0.7
234.563	3.81
234.946	2.49
235.33	4.59
235.713	4.01
236.096	2.93
236.479	5.41
236.862	4.82
237.245	5.06
237.628	4.82
238.011	2.36
238.394	5.22
238.777	1.98
239.16	2.44
239.543	3.38
239.925	3.39
240.308	3.01
240.691	3.5
241.073	4.42
241.456	3.55
241.838	2.48
242.221	3.87
242.603	3.43
242.986	4.32
243.368	3.83
243.75	3.21
244.133	3.51
244.515	3.26
244.897	3.67
245.279	3.35
245.661	4.66
246.043	2.95
246.425	2.64
246.807	3.11
247.189	2.93
247.571	3.74
247.953	3.65
248.335	3.7
248.717	3.52
249.098	3.73
249.48	3.67
249.862	4.05
250.243	3.5
250.625	3.54
251.006	3.99
251.388	4.3
251.769	3.02
252.151	3.87
252.532	4.13
252.913	3.11
253.295	3.99
253.676	4.17
254.057	3.46
254.438	3.03
254.819	3.84
255.2	3.48
255.581	4.49
255.962	4.92
256.343	3.98
256.724	3.7
257.105	4
257.486	3.54
257.867	2.46
258.247	3.31
258.628	4.36
259.009	3.93
259.389	4.02
259.77	3.72
260.15	4.01
260.531	3.89
260.911	3.5
261.292	3.4
261.672	3.52
262.052	3.69
262.432	3.52
262.813	3.74
263.193	3.96
263.573	4.29
263.953	4
264.333	3.28
264.713	3.3
265.093	3.22
265.473	4.15
265.853	3.55
266.233	2.83
266.612	3.9
266.992	3.68
267.372	4.05
267.752	3.33
268.131	3.33
268.511	3.7
268.89	3.9
269.27	3.75
269.649	3.39
270.029	3.28
270.408	3.38
270.787	3.46
271.167	3.35
271.546	3.1
271.925	4.15
272.304	3.73
272.683	3.58
273.062	4.13
273.441	3.75
273.82	3.83
274.199	3.77
274.578	3.33
274.957	3.67
275.336	3.63
275.715	3.6
276.093	4.27
276.472	3.72
276.851	3.81
277.229	4.16
277.608	3.42
277.986	4.01
278.365	3.04
278.743	3.04
279.122	2.76
279.5	3.08
279.878	3.2
280.257	3.98
280.635	3.58
281.013	3.71
281.391	3.59
281.769	3.79
282.147	3.86
282.525	3.67
282.903	3.84
283.281	3.38
283.659	3.63
284.037	3.34
284.415	3.45
284.792	3.34
285.17	3.72
285.548	2.95
285.925	3.45
286.303	3.52
286.68	3.53
287.058	3.42
287.435	3.25
287.813	3.57
288.19	4.2
288.567	3.36
288.945	3.76
289.322	3.89
289.699	3.48
290.076	4.04
290.453	3.54
290.83	4.2
291.207	3.95
291.584	3.53
291.961	3.92
292.338	3.71
292.715	3.94
293.092	3.98
293.469	4.63
293.845	4.43
294.222	4.37
294.599	4.74
294.975	4.73
295.352	4.19
295.728	4.58
296.105	4.38
296.481	5.11
296.858	4.7
297.234	4.41
297.61	4.21
297.986	4.47
298.363	4.03
298.739	4.85
299.115	4.46
299.491	4.68
299.867	4.58
300.243	4.73
300.619	4.48
300.995	4.53
301.371	4.71
301.746	4.45
302.122	4.88
302.498	4.89
302.874	4.99
303.249	5.02
303.625	5.04
304	4.42
304.376	5
304.751	5.09
305.127	4.7
305.502	5.53
305.878	5.23
306.253	4.88
306.628	5.76
307.003	5.54
307.378	4.88
307.754	5.47
308.129	5.05
308.504	5.64
308.879	5.51
309.254	5.55
309.629	5.53
310.003	5.59
310.378	5.74
310.753	5.86
311.128	5.37
311.502	5.32
311.877	5.59
312.252	5.56
312.626	5.52
313.001	5.39
313.375	5.73
313.75	5.55
314.124	6.26
314.498	5.73
314.873	5.89
315.247	5.45
315.621	6.19
315.995	5.91
316.369	6.17
316.743	6.48
317.117	6.17
317.491	6.4
317.865	5.65
318.239	6.38
318.613	6.12
318.987	6.57
319.361	6.59
319.734	5.95
320.108	5.95
320.482	6.28
320.855	6.34
321.229	6.79
321.602	6.65
321.976	6.68
322.349	6.05
322.723	6.18
323.096	6.23
323.469	6.49
323.843	6.86
324.216	6.22
324.589	6.74
324.962	6.82
325.335	6.64
325.708	6.82
326.081	7.13
326.454	7.21
326.827	6.87
327.2	7.19
327.573	6.87
327.945	7.09
328.318	7.05
328.691	6.91
329.063	7.15
329.436	6.7
329.809	6.89
330.181	7.44
330.553	7.08
330.926	7.33
331.298	6.61
331.671	7.51
332.043	7.54
332.415	7.33
332.787	8.05
333.159	7.55
333.532	7.43
333.904	7.51
334.276	7.38
334.648	7.21
335.02	7.37
335.391	7.93
335.763	7.65
336.135	7.64
336.507	7.8
336.879	7.12
337.25	7.58
337.622	7.55
337.993	7.8
338.365	7.96
338.736	7.42
339.108	7.46
339.479	7.43
339.851	7.82
340.222	7.8
340.593	7.81
340.964	7.92
341.336	7.58
341.707	7.82
342.078	7.72
342.449	8.68
342.82	7.92
343.191	7.6
343.562	8.08
343.933	7.85
344.303	8.03
344.674	8.1
345.045	8.34
345.416	8.22
345.786	7.9
346.157	8.44
346.527	8.11
346.898	8.44
347.268	8.11
347.639	8.14
348.009	8.27
348.38	8.5
348.75	8.72
349.12	8.73
349.49	8
349.861	9.42
350.231	8.54
350.601	8.46
350.971	8.56
351.341	8.75
351.711	8.69
352.081	8.9
352.45	9.14
352.82	9.11
353.19	8.76
353.56	8.57
353.929	8.91
354.299	9.12
354.669	8.63
355.038	8.79
355.408	9.8
355.777	8.9
356.147	9.37
356.516	9.24
356.885	9.21
357.254	9.2
357.624	9.47
357.993	9.13
358.362	9.28
358.731	9.18
359.1	9.55
359.469	9.41
359.838	9.54
360.207	9.35
360.576	9.43
360.945	9.42
361.314	9.76
361.682	9.34
362.051	9.34
362.42	9.5
362.788	9.86
363.157	9.22
363.525	9.6
363.894	9.45
364.262	9.81
364.631	10.36
364.999	9.69
365.367	10.03
365.735	9.67
366.104	9.66
366.472	9.84
366.84	9.72
367.208	9.69
367.576	9.93
367.944	10.31
368.312	10.08
368.68	10.42
369.048	10.36
369.416	10.28
369.783	10.26
370.151	10.25
370.519	10.44
370.886	10.19
371.254	10.54
371.621	10.28
371.989	10.6
372.356	10.57
372.724	10.11
373.091	10.34
373.458	10.49
373.826	10.41
374.193	10.93
374.56	10.61
374.927	10.75
375.294	10.99
375.661	10.7
376.028	10.94
376.395	10.98
376.762	11.09
377.129	11.33
377.496	11.15
377.863	10.71
378.229	10.81
378.596	10.85
378.963	10.73
379.329	11.14
379.696	11.06
380.062	11.08
380.429	11.12
380.795	10.84
381.161	11.28
381.528	10.92
381.894	11.03
382.26	11.09
382.626	11.6
382.993	11.08
383.359	11.31
383.725	11.51
384.091	11.32
384.457	11.41
384.823	11.61
385.188	11.69
385.554	11.47
385.92	11.78
386.286	11.49
386.651	11.63
387.017	11.9
387.383	11.82
387.748	11.79
388.114	11.98
388.479	11.91
388.845	11.88
389.21	12.07
389.575	12.06
389.94	12.3
390.306	11.91
390.671	11.79
391.036	12.45
391.401	12.37
391.766	11.95
392.131	12.19
392.496	12.05
392.861	11.99
393.226	12.19
393.591	12.33
393.956	12.32
394.32	12.42
394.685	12.47
395.05	12.53
395.414	12.4
395.779	12.41
396.143	12.68
396.508	12.55
396.872	12.66
397.236	12.71
397.601	12.83
397.965	12.61
398.329	12.87
398.694	12.83
399.058	12.9
399.422	13.1
399.786	12.85
400.15	12.97
400.514	13.01
400.878	13.08
401.242	13.25
401.605	13.18
401.969	13.02
402.333	13.11
402.697	13.41
403.06	13.4
403.424	13.13
403.787	13.48
404.151	13.19
404.514	13.47
404.878	13.5
405.241	13.29
405.604	13.42
405.968	13.44
406.331	13.42
406.694	13.42
407.057	13.75
407.42	13.68
407.783	13.51
408.146	13.6
408.509	13.54
408.872	13.65
409.235	13.74
409.598	14.11
409.961	13.94
410.323	13.74
410.686	13.93
411.049	13.74
411.411	13.83
411.774	13.63
412.136	14
412.499	13.75
412.861	13.75
413.223	14.14
413.586	13.97
413.948	14.34
414.31	14.15
414.672	14.24
415.035	14.58
415.397	14.47
415.759	14.2
416.121	14.49
416.483	14.43
416.845	14.36
417.206	14.54
417.568	14.39
417.93	14.42
418.292	14.49
418.653	14.41
419.015	14.41
419.377	14.42
419.738	14.44
420.1	14.49
420.461	14.29
420.822	14.46
421.184	14.41
421.545	14.55
421.906	14.34
422.267	14.33
422.629	14.37
422.99	14.53
423.351	14.55
423.712	14.66
424.073	14.78
424.434	14.84
424.795	14.57
425.155	14.66
425.516	14.73
425.877	14.78
426.238	14.79
426.598	14.81
426.959	14.91
427.32	15.12
427.68	15.06
428.041	15.32
428.401	15.15
428.761	15.33
429.122	15.5
429.482	15.42
429.842	15.41
430.202	15.45
430.563	15.52
430.923	15.5
431.283	15.76
431.643	15.75
432.003	15.62
432.363	15.84
432.722	15.8
433.082	15.65
433.442	15.71
433.802	15.72
434.161	15.71
434.521	15.71
434.881	15.82
435.24	15.61
435.6	15.93
435.959	15.85
436.319	15.98
436.678	16.18
437.037	16.15
437.396	16.05
437.756	16.05
438.115	16.18
438.474	16.18
438.833	16.14
439.192	16.44
439.551	16.28
439.91	16.3
440.269	16.29
440.628	16.24
440.987	16.28
441.345	16.17
441.704	16.28
442.063	16.2
442.421	16.24
442.78	16.35
443.138	16.44
443.497	16.59
443.855	16.58
444.214	16.67
444.572	16.75
444.93	16.84
445.288	16.78
445.647	16.87
446.005	16.78
446.363	16.74
446.721	16.57
447.079	16.55
447.437	16.68
447.795	16.64
448.153	16.59
448.51	16.69
448.868	16.84
449.226	16.98
449.584	17.04
449.941	17.13
450.299	17.07
450.656	17.18
451.014	17.42
451.371	17.32
451.729	17.46
452.086	17.54
452.443	17.47
452.801	17.59
453.158	17.46
453.515	17.5
453.872	17.5
454.229	17.46
454.586	17.53
454.943	17.54
455.3	17.69
455.657	17.79
456.014	17.79
456.371	18.01
456.727	17.87
457.084	17.8
457.441	17.82
457.797	18.02
458.154	18.15
458.51	18.01
458.867	17.92
459.223	18.04
459.58	17.98
459.936	17.82
460.292	18.07
460.648	17.63
461.005	17.61
461.361	17.61
461.717	17.91
462.073	18.16
462.429	18.24
462.785	18.26
463.141	18.39
463.496	18.46
463.852	18.49
464.208	18.71
464.564	18.6
464.919	18.38
465.275	18.73
465.631	18.54
465.986	18.68
466.342	18.83
466.697	18.9
467.052	18.77
467.408	18.8
467.763	18.71
468.118	18.88
468.473	18.92
468.829	19.05
469.184	18.99
469.539	19.03
469.894	19.18
470.249	19.24
470.603	19.24
470.958	19.28
471.313	19.25
471.668	19.27
472.023	19.48
472.377	19.47
472.732	19.32
473.086	19.35
473.441	19.46
473.795	19.6
474.15	19.31
474.504	19.31
474.859	19.61
475.213	19.65
475.567	19.48
475.921	19.88
476.275	19.94
476.63	19.61
476.984	19.79
477.338	19.95
477.692	19.82
478.045	19.8
478.399	19.9
478.753	19.61
479.107	19.82
479.461	19.81
479.814	19.79
480.168	19.89
480.521	19.98
480.875	20.2
481.228	20.23
481.582	19.98
481.935	20.05
482.289	20.03
482.642	20.05
482.995	19.84
483.348	19.88
483.701	19.88
484.055	19.68
484.408	19.45
484.761	19.07
485.114	18.9
485.466	18.94
485.819	19.32
486.172	19.67
486.525	19.78
486.878	19.97
487.23	19.99
487.583	20.02
487.936	19.97
488.288	19.7
488.641	19.57
488.993	19.53
489.345	19.76
489.698	19.83
490.05	20.01
490.402	20.31
490.754	20.52
491.107	20.61
491.459	20.64
491.811	20.71
492.163	20.51
492.515	20.21
492.866	19.91
493.218	20
493.57	20.33
493.922	20.69
494.274	20.97
494.625	21.04
494.977	21.16
495.328	21.32
495.68	21.38
496.031	21.51
496.383	21.45
496.734	21.68
497.086	21.59
497.437	21.53
497.788	21.29
498.139	21.24
498.49	21.33
498.842	21.5
499.193	21.54
499.544	21.74
499.894	21.7
500.245	21.7
500.596	21.75
500.947	21.95
501.298	21.9
501.648	21.94
501.999	22.19
502.35	22.2
502.7	22.09
503.051	22.23
503.401	22.43
503.752	22.31
504.102	22.37
504.452	22.32
504.803	22.2
505.153	22.15
505.503	22.37
505.853	22.41
506.203	22.35
506.553	22.48
506.903	22.45
507.253	22.6
507.603	22.49
507.953	22.65
508.303	22.71
508.652	22.58
509.002	22.58
509.352	22.58
509.701	22.55
510.051	22.61
510.4	22.63
510.75	22.65
511.099	22.63
511.449	22.66
511.798	22.85
512.147	22.8
512.496	22.97
512.846	22.88
513.195	22.96
513.544	22.83
513.893	22.91
514.242	22.98
514.591	23.19
514.939	23.17
515.288	23.13
515.637	23.48
515.986	23.19
516.334	23.41
516.683	23.51
517.032	23.43
517.38	23.58
517.729	23.51
518.077	23.6
518.426	23.52
518.774	23.37
519.122	23.32
519.47	23.13
519.819	23.14
520.167	23.17
520.515	23.24
520.863	23.35
521.211	23.49
521.559	23.6
521.907	23.8
522.255	23.86
522.602	24.02
522.95	24.02
523.298	23.99
523.645	23.98
523.993	24.01
524.341	24.13
524.688	24.16
525.036	24.11
525.383	24.17
525.73	24.09
526.078	24.14
526.425	23.92
526.772	23.81
527.119	23.72
527.466	23.69
527.814	23.91
528.161	24.01
528.508	23.88
528.854	23.82
529.201	23.66
529.548	23.29
529.895	23.15
530.242	23.27
530.588	23.58
530.935	23.93
531.282	24.05
531.628	24.24
531.975	24.27
532.321	24.43
532.667	24.58
533.014	24.59
533.36	24.61
533.706	24.55
534.052	24.29
534.399	23.97
534.745	23.9
535.091	24.25
535.437	24.46
535.783	24.68
536.129	24.93
536.474	25.04
536.82	24.98
537.166	25.05
537.512	24.86
537.857	24.67
538.203	24.62
538.549	24.86
538.894	25.17
539.239	25.44
539.585	25.45
539.93	25.66
540.276	25.68
540.621	25.76
540.966	25.58
541.311	25.61
541.656	25.45
542.001	25.25
542.346	24.72
542.691	24.59
543.036	24.66
543.381	24.96
543.726	25.26
544.071	25.34
544.415	25.39
544.76	25.48
545.105	25.69
545.449	25.76
545.794	25.93
546.138	26.14
546.483	26.04
546.827	26.09
547.171	26.06
547.516	26.12
547.86	26.09
548.204	25.89
548.548	26.08
548.892	26.23
549.236	26.54
549.58	26.63
549.924	26.79
550.268	26.93
550.612	26.91
550.956	27.06
551.3	26.87
551.643	27.12
551.987	27.09
552.33	27.12
552.674	26.94
553.017	27.19
553.361	27.04
553.704	27.07
554.048	27.07
554.391	27.09
554.734	27.09
555.077	27.23
555.42	27.32
555.764	27.37
556.107	27.32
556.45	27.53
556.793	27.79
557.135	27.69
557.478	27.79
557.821	27.68
558.164	27.87
558.507	27.79
558.849	27.83
559.192	27.85
559.534	27.89
559.877	27.89
560.219	28.29
560.562	28.04
560.904	28.21
561.246	28.17
561.589	28.05
561.931	28.27
562.273	28.22
562.615	28.26
562.957	28.28
563.299	28.25
563.641	28.43
563.983	28.44
564.325	28.34
564.667	28.3
565.008	28.31
565.35	28.52
565.692	28.51
566.033	28.54
566.375	28.28
566.716	28.49
567.058	28.44
567.399	28.22
567.741	28.35
568.082	28.28
568.423	28.4
568.764	28.63
569.105	28.75
569.447	28.89
569.788	28.94
570.129	28.6
570.47	28.7
570.811	28.79
571.151	29.02
571.492	29.07
571.833	29.05
572.174	28.95
572.514	28.88
572.855	28.81
573.195	28.82
573.536	28.82
573.876	28.77
574.217	28.93
574.557	29.06
574.898	29.24
575.238	29.17
575.578	29.38
575.918	29.22
576.258	29.34
576.598	29.4
576.938	29.28
577.278	29.6
577.618	29.6
577.958	29.49
578.298	29.75
578.638	29.59
578.977	29.87
579.317	29.92
579.657	29.95
579.996	29.99
580.336	29.86
580.675	30.1
581.014	30
581.354	30.3
581.693	30.26
582.032	30.2
582.372	30.27
582.711	30.13
583.05	30.26
583.389	30.4
583.728	30.47
584.067	30.4
584.406	30.48
584.745	30.63
585.083	30.89
585.422	30.48
585.761	30.77
586.1	30.81
586.438	30.86
586.777	30.88
587.115	30.6
587.454	30.69
587.792	30.77
588.13	31.16
588.469	30.85
588.807	30.92
589.145	31.03
589.483	30.98
589.821	30.8
590.159	31.08
590.497	30.8
590.835	31.22
591.173	31.15
591.511	31.17
591.849	31
592.187	31.22
592.524	31.25
592.862	31.46
593.2	31.42
593.537	31.41
593.875	31.42
594.212	31.44
594.55	31.26
594.887	31.52
595.224	31.54
595.561	31.18
595.899	31.26
596.236	31.31
596.573	31.66
596.91	31.61
597.247	31.3
597.584	31.25
597.921	31.47
598.258	31.14
598.594	31.07
598.931	31.26
599.268	31.29
599.604	31.69
599.941	31.67
600.277	31.84
600.614	32.38
600.95	32.12
601.287	31.95
601.623	32.37
601.959	32.05
602.296	32.24
602.632	32.15
602.968	32.18
603.304	31.79
603.64	32.16
603.976	31.98
604.312	32.02
604.648	32.15
604.984	31.96
605.319	32.18
605.655	32.11
605.991	31.74
606.326	31.89
606.662	31.8
606.998	31.98
607.333	32.46
607.668	32.58
608.004	32.7
608.339	32.71
608.674	32.68
609.01	33
609.345	32.74
609.68	32.55
610.015	32.89
610.35	32.74
610.685	32.44
611.02	32.63
611.355	32.57
611.689	32.45
612.024	32.96
612.359	32.92
612.694	32.84
613.028	33.22
613.363	33.25
613.697	33.23
614.032	33.37
614.366	33.31
614.7	33.43
615.035	33.55
615.369	33.69
615.703	33.23
616.037	33.41
616.371	33.81
616.705	33.37
617.039	33.6
617.373	33.47
617.707	33.57
618.041	33.52
618.375	33.5
618.709	33.25
619.042	33.79
619.376	33.48
619.71	34.01
620.043	33.54
620.377	34.07
620.71	33.91
621.043	33.62
621.377	33.87
621.71	34.1
622.043	34.05
622.376	34.02
622.709	33.83
623.043	34.14
623.376	33.91
623.709	34.38
624.041	34.22
624.374	33.84
624.707	33.88
625.04	34.26
625.373	34.16
625.705	34.4
626.038	33.55
626.37	34.47
626.703	33.98
627.035	34.17
627.368	34.26
627.7	34.15
628.032	33.99
628.365	34.11
628.697	34.1
629.029	34.25
629.361	34.34
629.693	34.61
630.025	34.5
630.357	34.58
630.689	34.99
631.021	34.53
631.353	34.8
631.684	34.68
632.016	34.5
632.348	34.99
632.679	34.75
633.011	34.98
633.342	34.68
633.674	34.9
634.005	35.29
634.336	34.71
634.668	34.9
634.999	34.57
635.33	34.96
635.661	34.67
635.992	34.56
636.323	35.06
636.654	35.11
636.985	35.35
637.316	35.35
637.647	35.54
637.977	34.76
638.308	35.22
638.639	35.49
638.969	35.29
639.3	35.41
639.63	35.15
639.961	34.88
640.291	35.53
640.622	35.42
640.952	35.51
641.282	34.97
641.612	35.82
641.943	35.64
642.273	35.6
642.603	35.65
642.933	35.58
643.263	35.86
643.592	35.46
643.922	36.07
644.252	36.01
644.582	35.72
644.911	35.6
645.241	36.52
645.571	35.92
645.9	36.31
646.23	35.6
646.559	35.9
646.888	35.37
647.218	36.31
647.547	36.33
647.876	36.21
648.205	35.69
648.534	35.83
648.863	36.68
649.192	35.71
649.521	35.85
649.85	36.84
650.179	36.24
650.508	36.05
650.837	36.5
651.165	36.43
651.494	36.58
651.822	36.57
652.151	36.82
652.479	37.11
652.808	35.81
653.136	36.63
653.465	36.74
653.793	36.84
654.121	36.36
654.449	36.19
654.777	36.91
655.105	36.93
655.433	36.79
655.761	36.79
656.089	37.25
656.417	36.47
656.745	37.4
657.073	36.95
657.4	36.67
657.728	37.06
658.056	36.85
658.383	36.92
658.711	36.8
659.038	37.19
659.365	37.05
659.693	36.65
660.02	36.66
660.347	37.01
660.674	36.73
661.001	36.43
661.329	36.63
661.656	36.56
661.982	36.95
662.309	36.92
662.636	37.24
662.963	37.52
663.29	37.92
663.616	37.47
663.943	37.5
664.27	37.77
664.596	37.55
664.923	37.85
665.249	37.27
665.576	37.84
665.902	37.52
666.228	38.03
666.554	37.42
666.881	37.77
667.207	37.86
667.533	37.85
667.859	37.64
668.185	37.95
668.511	37.1
668.837	37.25
669.162	38.06
669.488	37.38
669.814	37.88
670.139	38.55
670.465	37.86
670.791	37.95
671.116	37.61
671.442	37.92
671.767	38.36
672.092	37.8
672.418	38.21
672.743	38.24
673.068	37.91
673.393	38.09
673.718	38.4
674.043	38.16
674.368	38.46
674.693	37.72
675.018	38.39
675.343	38.36
675.667	37.78
675.992	38.03
676.317	38.01
676.641	38.25
676.966	38.55
677.29	38.32
677.615	38.44
677.939	38.11
678.264	37.77
678.588	38.18
678.912	38.26
679.236	38.27
679.56	38.4
679.885	38.48
680.209	38.24
680.532	38.17
680.856	38.5
681.18	38.47
681.504	38.29
681.828	38.13
682.152	39.05
682.475	38.27
682.799	38.5
683.122	38.42
683.446	38.42
683.769	38.9
684.093	38.48
684.416	38.99
684.739	39.02
685.062	39.32
685.386	38.5
685.709	38.69
686.032	39.01
686.355	38.66
686.678	38.8
687.001	38.19
687.324	38.75
687.646	39.01
687.969	39.65
688.292	39.02
688.614	40.07
688.937	39.15
689.26	38.36
689.582	38.8
689.904	39.27
690.227	39.34
690.549	39.53
690.871	38.77
691.194	39.49
691.516	38.95
691.838	38.75
692.16	39.41
692.482	39
692.804	39.28
693.126	39.84
693.448	38.48
693.769	39.64
694.091	40.44
694.413	39.25
694.735	39.16
695.056	39.9
695.378	39.81
695.699	40.33
696.021	39.07
696.342	40.02
696.663	39.47
696.984	39.77
697.306	39.77
697.627	40.08
697.948	38.96
698.269	39.29
698.59	39.96
698.911	39.26
699.232	39.21
699.553	39.29
699.873	39.2
700.194	39.07
700.515	39.4
700.835	39.62
701.156	39.36
701.477	39.51
701.797	39.59
702.117	39.86
702.438	40.39
702.758	40.41
703.078	39.73
703.398	39.82
703.719	40.55
704.039	40.89
704.359	39.9
704.679	39.72
704.999	38.77
705.319	39.81
705.638	40.64
705.958	39.49
706.278	40.72
706.597	40.06
706.917	41.16
707.237	39.81
707.556	40.42
707.876	39.66
708.195	39.41
708.514	40.77
708.834	40.01
709.153	40.31
709.472	39.4
709.791	40.27
710.11	41.04
710.429	39.98
710.748	39.61
711.067	40.12
711.386	41.44
711.705	39.77
712.023	39.97
712.342	40.13
712.661	40.82
712.979	40.73
713.298	41.27
713.616	40.44
713.935	40.41
714.253	41.58
714.572	40.06
714.89	40.86
715.208	40.26
715.526	41.13
715.844	41.11
716.162	40.38
716.48	40.45
716.798	41.03
717.116	40.62
717.434	40.65
717.752	40.38
718.069	40.96
718.387	40.5
718.705	40.37
719.022	40.88
719.34	40.76
719.657	41.25
719.975	41.65
720.292	41.77
720.609	41.01
720.927	40.81
721.244	41.78
721.561	40.04
721.878	41.73
722.195	41.53
722.512	41.03
722.829	41.11
723.146	42.33
723.463	40.46
723.779	41.04
724.096	39.75
724.413	41.13
724.729	40.82
725.046	41.38
725.362	40.2
725.679	40.26
725.995	42.15
726.311	40.98
726.628	40.37
726.944	40.96
727.26	41.81
727.576	42.62
727.892	40.67
728.208	41.67
728.524	42.71
728.84	41.26
729.156	41.4
729.472	42.92
729.787	41.81
730.103	40.61
730.419	41.18
730.734	41.52
731.05	42.15
731.365	42.69
731.681	40.58
731.996	40.71
732.311	42.2
732.626	41.28
732.942	42.33
733.257	41.91
733.572	42.81
733.887	41.72
734.202	43.06
734.517	41.76
734.832	41.8
735.146	41.96
735.461	41.95
735.776	40.87
736.091	42.22
736.405	41.29
736.72	42.48
737.034	41.81
737.349	40.69
737.663	42.54
737.977	41.91
738.292	41.8
738.606	41.77
738.92	42.13
739.234	42.7
739.548	42.94
739.862	41.85
740.176	40.82
740.49	41.43
740.804	42.47
741.117	42.47
741.431	41.76
741.745	42.18
742.058	40.22
742.372	42.75
742.685	41.64
742.999	42.53
743.312	43.06
743.626	41.05
743.939	44.29
744.252	43.4
744.565	41.07
744.878	42.51
745.191	41.61
745.505	42.3
745.817	43.08
746.13	41.77
746.443	42.46
746.756	42.11
747.069	42.93
747.381	42.31
747.694	41.68
748.007	41.8
748.319	42.96
748.632	41.5
748.944	43.63
749.256	42.73
749.569	43.64
749.881	43.47
750.193	43.07
750.505	43.26
750.817	43.83
751.129	41.38
751.441	42.19
751.753	41.92
752.065	41.72
752.377	43.1
752.689	43.14
753	43.17
753.312	42.99
753.624	44.41
753.935	42.26
754.247	45.03
754.558	42.85
754.869	44.01
755.181	43.99
755.492	43.41
755.803	42.72
756.114	43.09
756.425	42.98
756.736	43.87
757.047	44.83
757.358	42.55
757.669	43.16
757.98	43.08
758.291	42.59
758.601	43.37
758.912	42.19
759.223	44
759.533	43.62
759.844	43.78
760.154	43.04
760.464	42.52
760.775	44.27
761.085	43.06
761.395	43.7
761.705	44.86
762.016	44.42
762.326	43.85
762.636	43.53
762.945	42.32
763.255	43.35
763.565	43.18
763.875	42.47
764.185	42.97
764.494	43.94
764.804	43.31
765.113	42.7
765.423	43.71
765.732	42.9
766.042	43.73
766.351	43.58
766.66	43.45
766.97	43.47
767.279	44.41
767.588	44.08
767.897	45.16
768.206	42.33
768.515	42.55
768.824	43.08
769.133	45.11
769.441	43.75
769.75	44.43
770.059	45.17
770.367	44.27
770.676	43.6
770.984	43.52
771.293	42.22
771.601	43.95
771.91	45.36
772.218	45.14
772.526	43.45
772.834	42.81
773.142	43.58
773.45	44.09
773.758	42.17
774.066	42.4
774.374	42.65
774.682	45.88
774.99	44.04
775.298	48.13
775.605	44.79
775.913	44.94
776.22	43.18
776.528	43.44
776.835	47.39
777.143	44.89
777.45	46.04
777.757	42.38
778.065	43.27
778.372	42.38
778.679	45.49
778.986	43.16
779.293	43.65
779.6	42.46
779.907	43.94
780.214	42.88
780.52	44.64
780.827	43.94
781.134	44.48
781.44	44.15
781.747	42.79
782.053	44.57
782.36	44.49
782.666	42.32
782.973	41.69
783.279	41.36
783.585	42.47
783.891	43.9
784.197	43.55
784.503	44.64
784.809	44.76
785.115	40.33
785.421	44.23
785.727	44.42
786.033	41.92
786.339	48.75
786.644	43.4
786.95	44.05
787.255	45.1
787.561	43.05
787.866	42.21
788.172	41.62
788.477	43.16
788.782	39.63
789.088	45.15
789.393	43.86
789.698	40.26
790.003	43.9
790.308	43.62
790.613	44.03
790.918	45.79
791.223	42.67
791.527	46.23
791.832	47.28
792.137	44.8
792.441	46.48
792.746	43.49
793.05	42.69
793.355	43.62
793.659	42.94
793.963	45.93
794.268	44.25
794.572	43.06
794.876	43.21
795.18	45.34
795.484	40.59
795.788	39.61
796.092	45.46
796.396	45.43
796.7	41.74
797.004	46.79
797.307	46.53
797.611	46.59
797.915	42.9
798.218	46.79
798.522	48.38
798.825	50.1
799.128	45.14
799.432	50.05
799.735	42.27
800.038	39.03
800.341	44.51
800.644	48.62
800.947	42.05
801.25	42.01
801.553	42.58
801.856	42.18
802.159	41.1
802.462	45.93
802.764	44.71
803.067	44.22
803.37	41.88
803.672	42.64
803.975	45.29
804.277	41.51
804.579	46.15
804.882	45.58
805.184	43.61
805.486	44.3
805.788	44.28
806.09	46.82
806.392	46.44
806.694	43.47
806.996	48.63
807.298	48.81
807.6	41.58
807.902	48.48
808.203	47.1
808.505	40.78
808.807	49.23
809.108	45.23
809.409	45.84
809.711	45.89
810.012	42.37
810.313	42.63
810.615	42.19
810.916	45.28
811.217	50.55
811.518	46.58
811.819	43.37
812.12	44.22
812.421	45.88
812.722	41.39
813.023	48.19
813.323	48.16
813.624	45.27
813.925	52.86
814.225	42.26
814.526	45.9
814.826	42.85
815.126	46.58
815.427	48.54
815.727	49.54
816.027	46.73
816.327	45.17
816.627	39.31
816.927	44.02
817.227	43.26
817.527	41.62
817.827	42.41
818.127	44.71
818.427	40.36
818.727	46.16
819.026	51.05
819.326	52.31
819.625	46.43
819.925	45.02
820.224	47.05
820.524	45.38
820.823	45.48
821.122	44.64
821.421	44.36
821.72	43.07
822.019	47.12
822.318	42.51
822.617	49.04
822.916	44.57
823.215	45.91
823.514	44.14
823.813	46.12
824.111	45.41
824.41	44.99
824.709	46.66
825.007	47.85
825.306	46.9
825.604	47.15
825.902	47.38
826.201	47.56
826.499	46.85
826.797	47.98
827.095	48.21
827.393	48.35
827.691	47.66
827.989	47.84
828.287	47.54
828.585	43.04
828.882	47.63
829.18	45.52
829.478	46.13
829.775	48.35
830.073	47.2
830.37	48.14
830.668	46.44
830.965	46.37
831.263	46.83
831.56	47.65
831.857	46.04
832.154	46.76
832.451	45.11
832.748	47.48
833.045	48.01
833.342	52.92
833.639	45.5
833.936	41.14
834.232	48.81
834.529	46.85
834.826	46.01
835.122	50.13
835.419	41.59
835.715	47.31
836.012	46.83
836.308	47.31
836.604	46.87
836.901	53.04
837.197	48.32
837.493	49.45
837.789	47.87
838.085	47.15
838.381	48.74
838.677	52.01
838.972	45.15
839.268	40.15
839.564	49.55
839.86	46.86
840.155	47.12
840.451	46.93
840.746	52.22
841.042	45.15
841.337	37.54
841.632	48.12
841.928	41.79
842.223	48.32
842.518	49.75
842.813	49.96
843.108	43.24
843.403	47.69
843.698	41.32
843.993	42.14
844.287	49.96
844.582	40.66
844.877	46.31
845.171	43.67
845.466	36.46
845.761	40.9
846.055	50.61
846.349	28.1
846.644	45.1
846.938	48.6
847.232	49.26
847.526	51.56
847.82	42.69
848.114	34.06
848.408	44.5
848.702	44.82
848.996	40.12
849.29	39.63
849.584	33.74
849.877	60.43
850.171	41.72
850.465	49.76
850.758	39.71
851.052	60.12
851.345	69.39
851.638	43.07
851.932	34.15
852.225	40.22
852.518	41.06
852.811	46.17
853.104	54.34
853.397	44.88
853.69	40.64
853.983	38.49
854.276	35.05
854.569	54.24
854.861	40.19
855.154	45.32
855.447	38.55
855.739	61.73
856.032	33.71
856.324	49.35
856.616	48.21
856.909	51.38
857.201	38.07
857.493	52.34
857.785	36.86
858.077	38.11
858.369	39.78
858.661	30.55
858.953	43.02
859.245	50.03
859.537	52.22
859.829	37.43
860.12	60.81
860.412	36.87
860.703	36.83
860.995	23.64
861.286	52.27
861.578	37.1
861.869	62.55
862.16	49.06
862.452	28.77
862.743	59.55
863.034	32.64
863.325	55.55
863.616	52.4
863.907	28.14
864.198	42.66
864.488	37.64
864.779	54.56
865.07	46.48
865.36	31.51
865.651	24.4
865.941	75.24
866.232	31.92
866.522	39.43
866.813	51.02
867.103	46.87
867.393	31.97
867.683	46.46
867.973	42.58
868.263	45.91
868.553	35.91
868.843	27.93
869.133	45.24
869.423	52.29
869.713	39.05
870.002	-13.69
870.292	35.14
870.582	72.91
870.871	29.2
871.161	30.13
871.45	62.86
871.739	20.62
872.029	25.6
872.318	51.7
872.607	50.87
872.896	33.49
873.185	53.74
873.474	60.34
873.763	37.45
874.052	39.14
874.341	5.96
874.63	28.48
874.918	34.92
875.207	55.47
875.496	36.94
875.784	36.82
876.073	17.67
876.361	40.45
876.649	63.76
876.938	41.43
877.226	28.78
877.514	25.03
877.802	44.78
878.09	17.63
878.378	40.59
878.666	42.52
878.954	38.17
879.242	35.5
879.53	5.77
879.817	24.75
880.105	31.81
880.392	43.68
880.68	31.7
880.967	58.33
881.255	1.09
881.542	49.03
881.83	30.77
882.117	51.69
882.404	48.3
882.691	34.62
882.978	66.49
883.265	56.29
883.552	44.26
883.839	48.96
884.126	44.4
884.413	47.92
884.699	55.53
884.986	50.65
885.273	47.58
885.559	47.58
885.846	47.58
