Data from 0245_crown_Reflection__4__87.txt Node

Date: Fri Oct 20 21:20:46 CDT 2023
User: ToomeyLab
Spectrometer: FLMS14357
Trigger mode: 0
Integration Time (sec): 1.000000E-2
Scans to average: 100
Electric dark correction enabled: true
Nonlinearity correction enabled: false
Boxcar width: 0
XAxis mode: Wavelengths
Number of Pixels in Spectrum: 2048
>>>>>Begin Spectral Data<<<<<
189.047	-52.41
189.435	-52.41
189.823	-52.41
190.211	87.78
190.599	-287.41
190.987	67.83
191.375	148.62
191.763	110.36
192.151	-49.94
192.538	-116.5
192.926	45.28
193.314	609.36
193.702	45.46
194.089	239.69
194.477	56.46
194.864	44.22
195.252	90.6
195.639	96.31
196.027	-193.31
196.414	46.62
196.801	-355.85
197.189	169.16
197.576	64.19
197.963	132.76
198.351	57.83
198.738	28.18
199.125	28.34
199.512	52.33
199.899	12.41
200.286	-6.93
200.673	20.83
201.06	48.62
201.447	1.3
201.833	38.28
202.22	27.13
202.607	53.42
202.994	26.05
203.38	25.76
203.767	12.3
204.154	15.41
204.54	39.57
204.927	21.98
205.313	-15.17
205.699	30.54
206.086	8.39
206.472	48.88
206.858	50.87
207.245	29.56
207.631	12.68
208.017	48.24
208.403	53.5
208.789	49.13
209.175	5.04
209.561	36.8
209.947	11.82
210.333	4.29
210.719	30.44
211.105	45.53
211.491	16.97
211.876	31.96
212.262	29.29
212.648	31.89
213.034	-2.42
213.419	4.34
213.805	9.65
214.19	0.71
214.576	23.1
214.961	11.61
215.346	28.49
215.732	26.71
216.117	-2.18
216.502	23.58
216.888	8.19
217.273	1.7
217.658	13.63
218.043	14.85
218.428	10.9
218.813	27.25
219.198	17.14
219.583	-26.89
219.968	-2.49
220.353	8.47
220.738	19.26
221.122	3.73
221.507	-3.74
221.892	-1.64
222.276	13.14
222.661	24.38
223.046	15.02
223.43	21.29
223.815	19.43
224.199	22.38
224.583	-1.97
224.968	13.97
225.352	8.05
225.736	5.82
226.121	13.8
226.505	6.74
226.889	14.36
227.273	14
227.657	9.97
228.041	11.93
228.425	13.08
228.809	9.98
229.193	10.28
229.577	12.47
229.961	9.46
230.344	8.49
230.728	8.16
231.112	9.59
231.495	7.94
231.879	9.18
232.263	11
232.646	7.03
233.03	8.96
233.413	8.47
233.797	7.84
234.18	9.11
234.563	10.24
234.946	12.13
235.33	9.24
235.713	9.61
236.096	8.84
236.479	9.06
236.862	9.05
237.245	8.82
237.628	8.24
238.011	9.06
238.394	8.03
238.777	10.34
239.16	9.36
239.543	8.67
239.925	10.8
240.308	7.87
240.691	9.1
241.073	9.52
241.456	8.11
241.838	9
242.221	9.37
242.603	9.06
242.986	8.34
243.368	8.93
243.75	7.53
244.133	7.48
244.515	7.54
244.897	7.92
245.279	7.92
245.661	7.55
246.043	8.34
246.425	8.12
246.807	8.63
247.189	7.39
247.571	7.05
247.953	7.86
248.335	7.94
248.717	6.98
249.098	7.31
249.48	7.23
249.862	7.49
250.243	7.61
250.625	7.63
251.006	7.2
251.388	7.48
251.769	7.77
252.151	6.48
252.532	7.1
252.913	6.77
253.295	7.16
253.676	7.34
254.057	7.27
254.438	7.45
254.819	7.63
255.2	7.15
255.581	7.35
255.962	8.18
256.343	7.99
256.724	5.59
257.105	7.89
257.486	7.18
257.867	7.24
258.247	7.4
258.628	7.28
259.009	6.55
259.389	6.81
259.77	6.51
260.15	7.4
260.531	7.54
260.911	7.17
261.292	6.74
261.672	6.5
262.052	6.62
262.432	6.72
262.813	6.66
263.193	6.36
263.573	6.65
263.953	6.64
264.333	7.01
264.713	7.74
265.093	7.53
265.473	6.96
265.853	5.86
266.233	6.35
266.612	6.04
266.992	6.34
267.372	6.73
267.752	5.99
268.131	6.86
268.511	6.76
268.89	6.54
269.27	5.76
269.649	6.42
270.029	6.71
270.408	6.38
270.787	6.63
271.167	6.28
271.546	6.97
271.925	6.87
272.304	6.47
272.683	7.05
273.062	6.63
273.441	6.58
273.82	6.27
274.199	6.72
274.578	6.3
274.957	6.54
275.336	6.69
275.715	6.57
276.093	6.26
276.472	6.28
276.851	6.52
277.229	6.61
277.608	5.93
277.986	5.84
278.365	6.65
278.743	5.95
279.122	5.98
279.5	6.38
279.878	5.6
280.257	6.32
280.635	6.29
281.013	6.58
281.391	6.36
281.769	6.11
282.147	5.88
282.525	6.17
282.903	5.8
283.281	6.09
283.659	6.07
284.037	5.98
284.415	5.37
284.792	5.82
285.17	6.44
285.548	5.98
285.925	5.83
286.303	5.77
286.68	5.85
287.058	6.34
287.435	6.16
287.813	5.7
288.19	5.79
288.567	5.91
288.945	6.27
289.322	6.14
289.699	5.2
290.076	6.57
290.453	5.87
290.83	5.75
291.207	6.38
291.584	5.62
291.961	6.28
292.338	5.3
292.715	6.08
293.092	5.88
293.469	5.75
293.845	5.9
294.222	5.93
294.599	5.3
294.975	6.93
295.352	5.71
295.728	5.72
296.105	5.69
296.481	5.87
296.858	5.46
297.234	6.05
297.61	5.35
297.986	5.61
298.363	5.67
298.739	5.73
299.115	5.78
299.491	5.4
299.867	5.54
300.243	5.81
300.619	5.58
300.995	5.53
301.371	5.95
301.746	5.44
302.122	5.62
302.498	5.66
302.874	5.67
303.249	5.73
303.625	5.28
304	6.11
304.376	5.13
304.751	4.83
305.127	4.91
305.502	5.7
305.878	5.89
306.253	5.9
306.628	5.54
307.003	5.58
307.378	5.43
307.754	5.61
308.129	6.02
308.504	6.17
308.879	5.7
309.254	5.62
309.629	4.85
310.003	4.45
310.378	5.77
310.753	5.44
311.128	5.63
311.502	5.33
311.877	5.65
312.252	5.44
312.626	5.57
313.001	5.53
313.375	5.25
313.75	5.83
314.124	4.77
314.498	5.43
314.873	5.39
315.247	5.41
315.621	5.15
315.995	5.78
316.369	5.56
316.743	5.86
317.117	5.35
317.491	5.08
317.865	5.41
318.239	5.69
318.613	5.59
318.987	5.49
319.361	4.5
319.734	4.73
320.108	5.49
320.482	5.6
320.855	5.62
321.229	6.13
321.602	5.09
321.976	5.27
322.349	5.89
322.723	5.56
323.096	5.72
323.469	5.68
323.843	5.6
324.216	6.06
324.589	5.67
324.962	5.41
325.335	5.52
325.708	5.14
326.081	5.81
326.454	5.76
326.827	6.16
327.2	5.46
327.573	5.85
327.945	5.63
328.318	5.21
328.691	5.25
329.063	6.26
329.436	5.29
329.809	5.67
330.181	5.82
330.553	5.75
330.926	5.57
331.298	5.29
331.671	5.2
332.043	5.47
332.415	5.63
332.787	5.64
333.159	5.04
333.532	5.98
333.904	5.65
334.276	5.26
334.648	5.76
335.02	5.58
335.391	5.25
335.763	5.95
336.135	5.69
336.507	5.69
336.879	5.32
337.25	5.25
337.622	5.4
337.993	5.74
338.365	5.83
338.736	5.67
339.108	5.89
339.479	5.46
339.851	5.44
340.222	5.42
340.593	5.06
340.964	5.56
341.336	6.05
341.707	5.5
342.078	5.81
342.449	5.06
342.82	5.13
343.191	5.73
343.562	5.58
343.933	5.59
344.303	5.34
344.674	5.85
345.045	5.98
345.416	5.81
345.786	5.28
346.157	5.56
346.527	5.54
346.898	5.81
347.268	5.59
347.639	5.7
348.009	5.35
348.38	5.67
348.75	5.89
349.12	5.84
349.49	5.33
349.861	5.93
350.231	5.69
350.601	5.81
350.971	6.19
351.341	5.5
351.711	6.36
352.081	5.69
352.45	5.69
352.82	5.35
353.19	6.08
353.56	6.02
353.929	5.71
354.299	6
354.669	5.45
355.038	6.02
355.408	6.14
355.777	5.85
356.147	5.71
356.516	5.55
356.885	5.87
357.254	5.91
357.624	6.07
357.993	5.57
358.362	5.81
358.731	5.39
359.1	5.23
359.469	5.41
359.838	5.79
360.207	5.76
360.576	6.19
360.945	5.87
361.314	5.8
361.682	6.31
362.051	5.68
362.42	5.8
362.788	6.1
363.157	5.81
363.525	5.72
363.894	5.75
364.262	5.88
364.631	5.85
364.999	5.75
365.367	6.15
365.735	5.76
366.104	6
366.472	5.89
366.84	6.03
367.208	6.16
367.576	5.91
367.944	5.87
368.312	6.02
368.68	5.73
369.048	6.21
369.416	6.42
369.783	6.26
370.151	6.11
370.519	5.7
370.886	6.06
371.254	6.11
371.621	6.34
371.989	6.03
372.356	6.37
372.724	6.28
373.091	5.89
373.458	5.87
373.826	5.87
374.193	5.9
374.56	6.07
374.927	6.31
375.294	6.04
375.661	6.07
376.028	6.38
376.395	6.31
376.762	6.35
377.129	6.36
377.496	6.38
377.863	6.34
378.229	6.44
378.596	6.08
378.963	6.41
379.329	6.16
379.696	6.13
380.062	6.15
380.429	6.09
380.795	5.73
381.161	5.96
381.528	6.46
381.894	5.87
382.26	6.01
382.626	6.45
382.993	6.1
383.359	6.23
383.725	6.43
384.091	6.28
384.457	6.25
384.823	6.2
385.188	6.35
385.554	6.15
385.92	6.12
386.286	6.18
386.651	5.98
387.017	6.34
387.383	6.07
387.748	6.03
388.114	6
388.479	6.17
388.845	6.46
389.21	5.96
389.575	6.11
389.94	6.31
390.306	6.07
390.671	6.22
391.036	6.28
391.401	6.2
391.766	6.3
392.131	6.34
392.496	6.47
392.861	6.42
393.226	6.33
393.591	6.06
393.956	6.39
394.32	6.43
394.685	6.16
395.05	6.38
395.414	6.58
395.779	6.21
396.143	6.37
396.508	6.32
396.872	6.54
397.236	6.39
397.601	6.21
397.965	6.19
398.329	6.24
398.694	6.34
399.058	6.09
399.422	6.18
399.786	6.39
400.15	6.4
400.514	6.12
400.878	6.64
401.242	6.61
401.605	6.56
401.969	6.27
402.333	6.17
402.697	6.67
403.06	6.22
403.424	6.19
403.787	6.33
404.151	6.46
404.514	6.27
404.878	6.54
405.241	6.41
405.604	6.41
405.968	6.38
406.331	6.39
406.694	6.4
407.057	6.37
407.42	6.39
407.783	6.39
408.146	6.47
408.509	6.34
408.872	6.57
409.235	6.32
409.598	6.39
409.961	6.66
410.323	6.42
410.686	6.19
411.049	6.54
411.411	6.14
411.774	6.58
412.136	6.37
412.499	6.27
412.861	6.66
413.223	6.61
413.586	6.5
413.948	6.59
414.31	6.81
414.672	6.44
415.035	6.32
415.397	6.61
415.759	6.74
416.121	6.57
416.483	6.51
416.845	6.64
417.206	6.46
417.568	6.61
417.93	6.43
418.292	6.41
418.653	6.47
419.015	6.43
419.377	6.37
419.738	6.3
420.1	6.32
420.461	6.31
420.822	6.21
421.184	6.35
421.545	6.32
421.906	6.29
422.267	6.18
422.629	6.45
422.99	6.21
423.351	6.22
423.712	6.27
424.073	6.39
424.434	6.26
424.795	6.32
425.155	6.42
425.516	6.23
425.877	6.37
426.238	6.25
426.598	6.33
426.959	6.21
427.32	6.37
427.68	6.44
428.041	6.37
428.401	6.34
428.761	6.36
429.122	6.45
429.482	6.41
429.842	6.47
430.202	6.38
430.563	6.42
430.923	6.46
431.283	6.39
431.643	6.66
432.003	6.62
432.363	6.33
432.722	6.62
433.082	6.35
433.442	6.36
433.802	6.71
434.161	6.42
434.521	6.64
434.881	6.58
435.24	6.41
435.6	6.45
435.959	6.41
436.319	6.28
436.678	6.46
437.037	6.45
437.396	6.5
437.756	6.48
438.115	6.25
438.474	6.62
438.833	6.59
439.192	6.37
439.551	6.44
439.91	6.37
440.269	6.68
440.628	6.53
440.987	6.4
441.345	6.45
441.704	6.48
442.063	6.44
442.421	6.45
442.78	6.37
443.138	6.5
443.497	6.4
443.855	6.46
444.214	6.35
444.572	6.39
444.93	6.55
445.288	6.51
445.647	6.55
446.005	6.15
446.363	6.39
446.721	6.51
447.079	6.41
447.437	6.26
447.795	6.23
448.153	6.3
448.51	6.33
448.868	6.28
449.226	6.25
449.584	6.31
449.941	6.3
450.299	6.25
450.656	6.27
451.014	6.4
451.371	6.46
451.729	6.43
452.086	6.47
452.443	6.53
452.801	6.38
453.158	6.53
453.515	6.44
453.872	6.39
454.229	6.57
454.586	6.44
454.943	6.46
455.3	6.36
455.657	6.52
456.014	6.36
456.371	6.49
456.727	6.49
457.084	6.47
457.441	6.48
457.797	6.4
458.154	6.49
458.51	6.47
458.867	6.45
459.223	6.36
459.58	6.39
459.936	6.36
460.292	6.48
460.648	6.34
461.005	6.31
461.361	6.47
461.717	6.08
462.073	6.28
462.429	6.37
462.785	6.36
463.141	6.34
463.496	6.37
463.852	6.51
464.208	6.53
464.564	6.43
464.919	6.48
465.275	6.62
465.631	6.5
465.986	6.4
466.342	6.38
466.697	6.39
467.052	6.3
467.408	6.52
467.763	6.45
468.118	6.54
468.473	6.5
468.829	6.55
469.184	6.48
469.539	6.46
469.894	6.43
470.249	6.53
470.603	6.47
470.958	6.62
471.313	6.49
471.668	6.51
472.023	6.44
472.377	6.49
472.732	6.27
473.086	6.54
473.441	6.47
473.795	6.71
474.15	6.45
474.504	6.25
474.859	6.53
475.213	6.4
475.567	6.64
475.921	6.53
476.275	6.42
476.63	6.61
476.984	6.57
477.338	6.28
477.692	6.21
478.045	6.34
478.399	6.46
478.753	6.52
479.107	6.59
479.461	6.4
479.814	6.48
480.168	6.44
480.521	6.28
480.875	6.37
481.228	6.37
481.582	6.38
481.935	6.39
482.289	6.42
482.642	6.41
482.995	6.34
483.348	6.44
483.701	6.33
484.055	6.36
484.408	6.21
484.761	6.22
485.114	6.11
485.466	6.02
485.819	5.99
486.172	5.89
486.525	5.92
486.878	6
487.23	6
487.583	6.07
487.936	6.13
488.288	6.06
488.641	6.16
488.993	6.02
489.345	6.07
489.698	6.05
490.05	6.02
490.402	6
490.754	6.01
491.107	6.08
491.459	6.21
491.811	6.22
492.163	6.22
492.515	6.26
492.866	6.25
493.218	6.08
493.57	6.05
493.922	6.06
494.274	5.99
494.625	6.1
494.977	6.08
495.328	6.27
495.68	6.29
496.031	6.23
496.383	6.3
496.734	6.47
497.086	6.32
497.437	6.46
497.788	6.27
498.139	6.36
498.49	6.17
498.842	6.23
499.193	6.26
499.544	6.34
499.894	6.38
500.245	6.19
500.596	6.33
500.947	6.35
501.298	6.27
501.648	6.28
501.999	6.34
502.35	6.23
502.7	6.37
503.051	6.26
503.401	6.34
503.752	6.44
504.102	6.39
504.452	6.47
504.803	6.28
505.153	6.32
505.503	6.24
505.853	6.49
506.203	6.19
506.553	6.24
506.903	6.22
507.253	6.15
507.603	6.3
507.953	6.32
508.303	6.26
508.652	6.24
509.002	6.24
509.352	6.22
509.701	6.33
510.051	6.2
510.4	6.22
510.75	6.09
511.099	6.17
511.449	6.23
511.798	6.14
512.147	6.06
512.496	6.23
512.846	6.18
513.195	6.27
513.544	6.18
513.893	6.07
514.242	6.2
514.591	6.19
514.939	6.12
515.288	6.03
515.637	6.18
515.986	6.34
516.334	6.16
516.683	6.21
517.032	6.06
517.38	6.04
517.729	6.27
518.077	6.19
518.426	6.17
518.774	6.05
519.122	6.06
519.47	6.08
519.819	6.08
520.167	6.08
520.515	6.11
520.863	6.03
521.211	6.04
521.559	6.1
521.907	6.13
522.255	6.12
522.602	6.27
522.95	6
523.298	6.06
523.645	6.2
523.993	6.04
524.341	6.14
524.688	6.05
525.036	6.17
525.383	6.03
525.73	6.32
526.078	6.14
526.425	6.16
526.772	6.15
527.119	5.98
527.466	5.91
527.814	5.97
528.161	5.97
528.508	6
528.854	6.01
529.201	5.93
529.548	5.89
529.895	5.93
530.242	5.81
530.588	5.76
530.935	5.74
531.282	5.76
531.628	5.86
531.975	5.81
532.321	5.89
532.667	5.91
533.014	6
533.36	5.98
533.706	6.03
534.052	5.93
534.399	5.84
534.745	5.73
535.091	5.85
535.437	5.85
535.783	5.8
536.129	5.89
536.474	6.02
536.82	6.01
537.166	5.89
537.512	5.92
537.857	5.99
538.203	5.92
538.549	6.04
538.894	5.9
539.239	5.89
539.585	5.91
539.93	5.91
540.276	6.07
540.621	6.07
540.966	6.04
541.311	6.01
541.656	5.98
542.001	6.13
542.346	6.05
542.691	5.84
543.036	5.85
543.381	5.67
543.726	5.67
544.071	5.74
544.415	5.76
544.76	5.82
545.105	5.87
545.449	5.83
545.794	5.85
546.138	5.91
546.483	5.94
546.827	5.94
547.171	5.99
547.516	5.93
547.86	5.95
548.204	5.78
548.548	5.94
548.892	5.72
549.236	5.84
549.58	5.8
549.924	5.92
550.268	5.95
550.612	5.91
550.956	6.1
551.3	5.84
551.643	5.95
551.987	6.12
552.33	5.94
552.674	5.95
553.017	5.99
553.361	6.02
553.704	6.07
554.048	5.83
554.391	6
554.734	6.05
555.077	6
555.42	5.76
555.764	5.9
556.107	6.01
556.45	5.96
556.793	6.04
557.135	5.85
557.478	5.86
557.821	6.06
558.164	6.05
558.507	6.11
558.849	6.18
559.192	5.91
559.534	6.07
559.877	5.81
560.219	5.98
560.562	6.01
560.904	5.92
561.246	6.12
561.589	5.86
561.931	6
562.273	6.02
562.615	6.23
562.957	5.89
563.299	5.85
563.641	5.98
563.983	5.77
564.325	5.84
564.667	5.98
565.008	5.97
565.35	5.93
565.692	5.8
566.033	5.93
566.375	5.86
566.716	5.92
567.058	5.93
567.399	5.83
567.741	5.76
568.082	5.86
568.423	5.94
568.764	5.77
569.105	5.84
569.447	5.71
569.788	5.91
570.129	5.87
570.47	5.82
570.811	5.9
571.151	5.97
571.492	5.9
571.833	5.93
572.174	6.06
572.514	5.88
572.855	5.77
573.195	5.7
573.536	5.76
573.876	5.92
574.217	5.72
574.557	5.68
574.898	5.59
575.238	5.55
575.578	5.92
575.918	5.64
576.258	5.87
576.598	5.83
576.938	5.83
577.278	5.76
577.618	5.59
577.958	5.67
578.298	5.67
578.638	5.71
578.977	5.78
579.317	5.74
579.657	5.66
579.996	5.85
580.336	5.8
580.675	5.52
581.014	5.7
581.354	5.87
581.693	5.72
582.032	5.85
582.372	5.77
582.711	5.96
583.05	6
583.389	5.74
583.728	5.92
584.067	5.99
584.406	5.79
584.745	5.93
585.083	5.74
585.422	5.71
585.761	5.92
586.1	5.8
586.438	5.7
586.777	5.59
587.115	6.06
587.454	5.86
587.792	5.78
588.13	5.8
588.469	5.87
588.807	5.39
589.145	5.68
589.483	5.64
589.821	5.6
590.159	5.79
590.497	5.77
590.835	5.69
591.173	5.6
591.511	5.77
591.849	5.57
592.187	5.58
592.524	5.53
592.862	5.71
593.2	5.87
593.537	5.57
593.875	5.68
594.212	5.77
594.55	5.64
594.887	5.96
595.224	5.5
595.561	5.41
595.899	5.61
596.236	5.99
596.573	5.91
596.91	5.66
597.247	5.68
597.584	5.61
597.921	5.64
598.258	5.64
598.594	5.83
598.931	5.45
599.268	5.43
599.604	5.53
599.941	5.5
600.277	5.7
600.614	5.58
600.95	5.57
601.287	5.55
601.623	5.73
601.959	5.71
602.296	5.5
602.632	5.38
602.968	5.71
603.304	5.78
603.64	5.63
603.976	5.67
604.312	5.58
604.648	5.63
604.984	5.96
605.319	5.56
605.655	5.43
605.991	5.55
606.326	5.58
606.662	5.36
606.998	5.37
607.333	5.5
607.668	5.43
608.004	5.63
608.339	5.48
608.674	5.75
609.01	5.45
609.345	5.71
609.68	5.9
610.015	5.49
610.35	5.53
610.685	5.59
611.02	5.54
611.355	5.23
611.689	5.47
612.024	5.61
612.359	5.61
612.694	5.55
613.028	5.64
613.363	5.52
613.697	5.51
614.032	5.7
614.366	5.57
614.7	5.63
615.035	5.64
615.369	5.54
615.703	5.33
616.037	5.74
616.371	5.49
616.705	5.82
617.039	5.38
617.373	5.53
617.707	5.69
618.041	5.44
618.375	5.28
618.709	5.54
619.042	5.83
619.376	5.64
619.71	5.6
620.043	5.53
620.377	5.39
620.71	5.74
621.043	5.59
621.377	5.33
621.71	5.59
622.043	5.65
622.376	5.79
622.709	5.76
623.043	5.49
623.376	5.43
623.709	5.32
624.041	5.41
624.374	5.98
624.707	5.64
625.04	5.29
625.373	5.52
625.705	5.31
626.038	5.73
626.37	5.37
626.703	5.06
627.035	5.36
627.368	5.35
627.7	5.61
628.032	5.62
628.365	5.5
628.697	5.63
629.029	5.56
629.361	5.63
629.693	5.25
630.025	5.43
630.357	5.4
630.689	5.66
631.021	5.77
631.353	5.6
631.684	5.22
632.016	5.45
632.348	5.54
632.679	5.15
633.011	5.52
633.342	4.99
633.674	5.49
634.005	5.08
634.336	6.08
634.668	5.44
634.999	5.36
635.33	5.21
635.661	5.73
635.992	5.62
636.323	5.72
636.654	5.55
636.985	5.47
637.316	5.5
637.647	5.49
637.977	5.01
638.308	5.44
638.639	5.57
638.969	5.49
639.3	5.2
639.63	5.71
639.961	5.45
640.291	5.28
640.622	5.5
640.952	5.56
641.282	5.31
641.612	5.57
641.943	5.77
642.273	5.12
642.603	5.8
642.933	5.55
643.263	5.79
643.592	5.52
643.922	5.8
644.252	5.39
644.582	5.51
644.911	5.86
645.241	6.07
645.571	5.9
645.9	5.68
646.23	5.41
646.559	5.33
646.888	5.43
647.218	5.34
647.547	5.25
647.876	5.3
648.205	5.94
648.534	5.38
648.863	5.37
649.192	5.34
649.521	5.32
649.85	5.82
650.179	5.31
650.508	5.32
650.837	5.94
651.165	5.37
651.494	5.47
651.822	5.6
652.151	5.74
652.479	5.46
652.808	5.44
653.136	5.27
653.465	5.63
653.793	5.66
654.121	5.31
654.449	5.52
654.777	5.23
655.105	5.31
655.433	5.72
655.761	5.99
656.089	5.42
656.417	5.62
656.745	5.68
657.073	5.46
657.4	6.14
657.728	5.56
658.056	5.13
658.383	5.35
658.711	5.03
659.038	5.77
659.365	5.58
659.693	5.45
660.02	5.41
660.347	5.23
660.674	5.46
661.001	5.16
661.329	5.36
661.656	5.76
661.982	5.54
662.309	5.46
662.636	5.13
662.963	5.4
663.29	5.68
663.616	5.72
663.943	5.18
664.27	5.45
664.596	5.5
664.923	5.3
665.249	5.54
665.576	5.08
665.902	5.11
666.228	6.16
666.554	5.48
666.881	5.59
667.207	5.3
667.533	5.36
667.859	5.36
668.185	5.53
668.511	6.13
668.837	5.77
669.162	5.78
669.488	5.79
669.814	5.5
670.139	6.24
670.465	5.44
670.791	5.28
671.116	5.68
671.442	5.58
671.767	5.43
672.092	5.6
672.418	5.73
672.743	5.75
673.068	6.19
673.393	5.48
673.718	5.58
674.043	6.21
674.368	6.03
674.693	6.07
675.018	6.2
675.343	5.39
675.667	5.22
675.992	5.71
676.317	5.55
676.641	5.9
676.966	6.21
677.29	5.38
677.615	5.25
677.939	5.41
678.264	6.25
678.588	4.97
678.912	5.79
679.236	5.95
679.56	5.33
679.885	5.9
680.209	5.9
680.532	5.25
680.856	5.33
681.18	5.46
681.504	5.95
681.828	5.73
682.152	5.77
682.475	5.07
682.799	5.91
683.122	5.53
683.446	5.81
683.769	5.85
684.093	5.88
684.416	5.54
684.739	5.3
685.062	5.08
685.386	5.68
685.709	5.52
686.032	5.63
686.355	5.94
686.678	5.66
687.001	6.07
687.324	5
687.646	6.03
687.969	6.24
688.292	5.65
688.614	6.01
688.937	5.52
689.26	5.36
689.582	5.56
689.904	4.74
690.227	5.97
690.549	5.51
690.871	6.43
691.194	6.07
691.516	5.37
691.838	6.02
692.16	5.43
692.482	5.02
692.804	5.85
693.126	5.27
693.448	6.5
693.769	5.39
694.091	6.04
694.413	6
694.735	5.71
695.056	5.58
695.378	6.39
695.699	5.71
696.021	7.01
696.342	5.95
696.663	5.11
696.984	5.13
697.306	6.46
697.627	5.19
697.948	5.67
698.269	5.4
698.59	5.78
698.911	6
699.232	5.31
699.553	5.82
699.873	5.64
700.194	6.55
700.515	5.39
700.835	5.91
701.156	5.7
701.477	5.84
701.797	5.57
702.117	5.16
702.438	5.56
702.758	5.04
703.078	5.27
703.398	5.32
703.719	5.97
704.039	6.31
704.359	6.22
704.679	6.21
704.999	6.21
705.319	5.56
705.638	5.63
705.958	6.12
706.278	4.5
706.597	6.02
706.917	5.68
707.237	6.13
707.556	5.69
707.876	4.87
708.195	7.06
708.514	6.08
708.834	5.87
709.153	6.26
709.472	6.3
709.791	6.46
710.11	6.32
710.429	5.55
710.748	6.15
711.067	4.88
711.386	6.04
711.705	6.94
712.023	5.63
712.342	6.55
712.661	5.74
712.979	5.99
713.298	5.98
713.616	5.7
713.935	6.43
714.253	5.99
714.572	6.65
714.89	6.12
715.208	6.14
715.526	6.66
715.844	6.22
716.162	6.13
716.48	6.09
716.798	6.05
717.116	5.78
717.434	6.37
717.752	6.26
718.069	6.68
718.387	6.38
718.705	5.32
719.022	6.33
719.34	5.99
719.657	5.79
719.975	6.08
720.292	6.17
720.609	6.95
720.927	5.72
721.244	5.89
721.561	6.88
721.878	6.09
722.195	6.1
722.512	5.95
722.829	8.02
723.146	5.51
723.463	4.71
723.779	6.7
724.096	6.92
724.413	6.54
724.729	4.95
725.046	7.33
725.362	8.15
725.679	6.22
725.995	7.76
726.311	6.57
726.628	5.71
726.944	6.96
727.26	4.87
727.576	5.75
727.892	5.53
728.208	7.32
728.524	6.32
728.84	5.9
729.156	7.4
729.472	5.87
729.787	6.81
730.103	6.34
730.419	6.53
730.734	6.1
731.05	5.19
731.365	4.49
731.681	6.03
731.996	6.99
732.311	5.83
732.626	7.03
732.942	6.26
733.257	6.85
733.572	6.74
733.887	5.59
734.202	6.34
734.517	6.49
734.832	6.69
735.146	6.97
735.461	6.09
735.776	5.22
736.091	6.41
736.405	6.06
736.72	6.5
737.034	6.45
737.349	7.25
737.663	5.31
737.977	6.82
738.292	5.28
738.606	5.93
738.92	5.89
739.234	5.22
739.548	5.88
739.862	5.31
740.176	5.16
740.49	6.46
740.804	6.91
741.117	8.09
741.431	7.47
741.745	6.79
742.058	5.24
742.372	7.17
742.685	5.54
742.999	6
743.312	6.2
743.626	8.53
743.939	7.86
744.252	6.02
744.565	6.22
744.878	5.9
745.191	7.93
745.505	6.89
745.817	7.45
746.13	6.89
746.443	8.54
746.756	5.97
747.069	6.69
747.381	10.18
747.694	6.99
748.007	5.61
748.319	5.85
748.632	5.48
748.944	7.37
749.256	9.02
749.569	5.87
749.881	9.21
750.193	6.1
750.505	6.47
750.817	6.6
751.129	6.42
751.441	5.84
751.753	5.61
752.065	7.89
752.377	6.65
752.689	8.06
753	7.74
753.312	3.73
753.624	4.77
753.935	7.64
754.247	6.54
754.558	6.94
754.869	9.27
755.181	5.46
755.492	5.53
755.803	6.55
756.114	6.88
756.425	7.95
756.736	8.23
757.047	6.07
757.358	7.79
757.669	7.94
757.98	6.06
758.291	6.46
758.601	7.86
758.912	8.4
759.223	7.02
759.533	8.33
759.844	6.49
760.154	7.96
760.464	8.61
760.775	6.72
761.085	5.72
761.395	7.3
761.705	6.05
762.016	6.56
762.326	7.4
762.636	6.74
762.945	7.21
763.255	7.44
763.565	7.27
763.875	7.79
764.185	7.06
764.494	10.22
764.804	7.46
765.113	7.42
765.423	7.63
765.732	5.43
766.042	6.54
766.351	7.55
766.66	6.69
766.97	6.07
767.279	6.82
767.588	5.05
767.897	7.14
768.206	7.34
768.515	7.52
768.824	7.07
769.133	5.91
769.441	7.92
769.75	8.54
770.059	6.42
770.367	9.17
770.676	8.83
770.984	5.56
771.293	3.83
771.601	6.72
771.91	6.64
772.218	7.36
772.526	7.17
772.834	7.65
773.142	6.54
773.45	4.84
773.758	4.78
774.066	6.6
774.374	7.74
774.682	5.79
774.99	6.13
775.298	4.8
775.605	5.97
775.913	8.28
776.22	4.97
776.528	8.47
776.835	6.84
777.143	5.81
777.45	11.63
777.757	6.96
778.065	8.41
778.372	7.39
778.679	6.88
778.986	4.21
779.293	9.55
779.6	8.26
779.907	7.02
780.214	9.95
780.52	9.91
780.827	10.6
781.134	4.34
781.44	8.58
781.747	8.02
782.053	8
782.36	9.32
782.666	4.74
782.973	8.52
783.279	5.01
783.585	10.13
783.891	7.55
784.197	6.51
784.503	9.76
784.809	4.96
785.115	6.58
785.421	7.87
785.727	7.52
786.033	8.75
786.339	8.88
786.644	7.93
786.95	13.58
787.255	7.66
787.561	7.6
787.866	9.96
788.172	13.86
788.477	5.56
788.782	8.03
789.088	9.41
789.393	5.11
789.698	2.21
790.003	6.65
790.308	10.9
790.613	6.58
790.918	11.09
791.223	9.23
791.527	10.81
791.832	14.22
792.137	8.37
792.441	5.96
792.746	6.43
793.05	7.55
793.355	9.78
793.659	8.56
793.963	9.58
794.268	3.45
794.572	8.07
794.876	6.45
795.18	6.68
795.484	7.47
795.788	11.1
796.092	6.65
796.396	11.21
796.7	13.27
797.004	10.14
797.307	7.58
797.611	9.18
797.915	7.07
798.218	8.47
798.522	6.03
798.825	13.32
799.128	10.89
799.432	7.37
799.735	4.92
800.038	8.78
800.341	5.06
800.644	8.91
800.947	5.42
801.25	5.47
801.553	8.65
801.856	8.65
802.159	5.5
802.462	7.34
802.764	10.14
803.067	10.32
803.37	10.79
803.672	7.19
803.975	6.28
804.277	6.8
804.579	2.11
804.882	10.92
805.184	10.49
805.486	13.2
805.788	12.59
806.09	8.44
806.392	8.92
806.694	10.39
806.996	10.57
807.298	7.29
807.6	12.17
807.902	7.88
808.203	12.91
808.505	12.06
808.807	5.29
809.108	-0.83
809.409	8.17
809.711	-1.26
810.012	8.54
810.313	6.41
810.615	8.11
810.916	12.95
811.217	11.05
811.518	10.58
811.819	8.49
812.12	10.56
812.421	8.37
812.722	15.15
813.023	15.65
813.323	3.22
813.624	10.41
813.925	11.35
814.225	11.01
814.526	14.08
814.826	12.39
815.126	13.18
815.427	2.6
815.727	11.38
816.027	7.72
816.327	13.62
816.627	15.77
816.927	6.97
817.227	8
817.527	8.13
817.827	9.13
818.127	5.29
818.427	10.9
818.727	9.12
819.026	8.04
819.326	8.24
819.625	8.47
819.925	10.06
820.224	13.64
820.524	11.72
820.823	16.83
821.122	7.61
821.421	8.09
821.72	15.72
822.019	5.29
822.318	8.14
822.617	8.1
822.916	8.87
823.215	9.75
823.514	8.68
823.813	6.14
824.111	9.69
824.41	8.1
824.709	9.3
825.007	6.94
825.306	9.05
825.604	7.83
825.902	8.01
826.201	7.76
826.499	8.74
826.797	8.43
827.095	8.12
827.393	7.75
827.691	9.95
827.989	8.6
828.287	9.72
828.585	7.1
828.882	8.79
829.18	8.33
829.478	7.83
829.775	10.79
830.073	9.46
830.37	8.17
830.668	9.01
830.965	9.4
831.263	8
831.56	10.27
831.857	9.32
832.154	7.88
832.451	10.53
832.748	10.58
833.045	5.24
833.342	11.58
833.639	12.69
833.936	13.87
834.232	11.44
834.529	11.52
834.826	6.73
835.122	9.49
835.419	7.9
835.715	14.1
836.012	10.71
836.308	7.35
836.604	9.96
836.901	7.53
837.197	10.53
837.493	13.77
837.789	8.11
838.085	8.56
838.381	9.6
838.677	8.87
838.972	13.32
839.268	4.74
839.564	9.67
839.86	10.26
840.155	6.07
840.451	16.2
840.746	16.04
841.042	8.76
841.337	7.23
841.632	8.6
841.928	14.93
842.223	15.94
842.518	9.51
842.813	16.49
843.108	8.81
843.403	5.66
843.698	18.02
843.993	18.09
844.287	8.46
844.582	16.66
844.877	8.11
845.171	19.18
845.466	7.17
845.761	0.73
846.055	18.72
846.349	8.72
846.644	24.02
846.938	15.65
847.232	16.46
847.526	9.39
847.82	-11.03
848.114	24.99
848.408	12.18
848.702	8.3
848.996	18.96
849.29	8.55
849.584	13.78
849.877	25.39
850.171	23.93
850.465	13.17
850.758	3.08
851.052	26.64
851.345	25.96
851.638	17.43
851.932	2.91
852.225	22.37
852.518	20.25
852.811	36.04
853.104	37.74
853.397	7.22
853.69	11.89
853.983	20.24
854.276	19.36
854.569	28.53
854.861	9.15
855.154	16.18
855.447	15.38
855.739	17.62
856.032	11.79
856.324	16.3
856.616	8.68
856.909	7.27
857.201	17.97
857.493	6.23
857.785	14.68
858.077	31.23
858.369	21.54
858.661	12.51
858.953	9.4
859.245	-2.27
859.537	22.52
859.829	18.07
860.12	26.84
860.412	15.28
860.703	21.13
860.995	2.97
861.286	19.3
861.578	15.91
861.869	10.24
862.16	-4.47
862.452	26.22
862.743	26.44
863.034	16.61
863.325	28.01
863.616	5.23
863.907	31.05
864.198	20.54
864.488	16.14
864.779	13.13
865.07	14.6
865.36	13.62
865.651	22.9
865.941	41.96
866.232	19.9
866.522	17.15
866.813	12.46
867.103	-1.34
867.393	42.64
867.683	24.55
867.973	43.31
868.263	8.34
868.553	15.56
868.843	9.54
869.133	46.43
869.423	18.28
869.713	30.64
870.002	18.99
870.292	0.68
870.582	23.85
870.871	16.63
871.161	13.34
871.45	33.81
871.739	19.25
872.029	5.6
872.318	40.39
872.607	31.08
872.896	34.17
873.185	35.76
873.474	15.67
873.763	10.03
874.052	20.84
874.341	22.93
874.63	9.29
874.918	12.13
875.207	33.1
875.496	-3.01
875.784	1.45
876.073	21.98
876.361	13.2
876.649	33.36
876.938	23.52
877.226	28.64
877.514	19.84
877.802	-1.68
878.09	-10.95
878.378	40.74
878.666	-8.33
878.954	11.17
879.242	8.03
879.53	1.68
879.817	15.29
880.105	16.85
880.392	27.76
880.68	15.83
880.967	7.4
881.255	29.19
881.542	1.51
881.83	8.43
882.117	31.72
882.404	26.03
882.691	13.66
882.978	17.24
883.265	20
883.552	28.99
883.839	-6.81
884.126	15.58
884.413	11.62
884.699	14.02
884.986	9.19
885.273	19.78
885.559	19.78
885.846	19.78
