Data from 0245_forehead_Reflection__1__89.txt Node

Date: Fri Oct 20 21:21:25 CDT 2023
User: ToomeyLab
Spectrometer: FLMS14357
Trigger mode: 0
Integration Time (sec): 1.000000E-2
Scans to average: 100
Electric dark correction enabled: true
Nonlinearity correction enabled: false
Boxcar width: 0
XAxis mode: Wavelengths
Number of Pixels in Spectrum: 2048
>>>>>Begin Spectral Data<<<<<
189.047	-74.01
189.435	-74.01
189.823	-74.01
190.211	61.18
190.599	-394.66
190.987	402.62
191.375	639.57
191.763	58.23
192.151	127.94
192.538	52.03
192.926	-32.31
193.314	666.77
193.702	56.85
194.089	674.18
194.477	54.46
194.864	50.85
195.252	12.81
195.639	160.23
196.027	-96.1
196.414	109.36
196.801	-2595.21
197.189	131.73
197.576	101.24
197.963	32.5
198.351	66.76
198.738	41.95
199.125	41.81
199.512	73.7
199.899	20.3
200.286	29.43
200.673	77.4
201.06	51.69
201.447	7.49
201.833	51.79
202.22	61.81
202.607	60
202.994	43.07
203.38	46.48
203.767	41.02
204.154	50.73
204.54	66.09
204.927	49.88
205.313	19.08
205.699	73.8
206.086	34.1
206.472	28.26
206.858	74.18
207.245	16.83
207.631	56.39
208.017	60.18
208.403	62.75
208.789	74.68
209.175	52.99
209.561	52.66
209.947	32.05
210.333	18.28
210.719	12.49
211.105	43.2
211.491	58.81
211.876	23.99
212.262	44
212.648	43.27
213.034	34.68
213.419	19.61
213.805	21.92
214.19	19.64
214.576	53.66
214.961	27.74
215.346	36.19
215.732	43.61
216.117	9.82
216.502	40.48
216.888	22.86
217.273	52.22
217.658	34.64
218.043	25.28
218.428	22.29
218.813	11.68
219.198	25.33
219.583	15.82
219.968	29.31
220.353	44.38
220.738	20.57
221.122	15.25
221.507	39.6
221.892	23.99
222.276	24.62
222.661	32.21
223.046	26.75
223.43	23.73
223.815	17.01
224.199	29.43
224.583	6.75
224.968	14.26
225.352	11.95
225.736	8.54
226.121	13.8
226.505	17.63
226.889	16.1
227.273	15.44
227.657	11.86
228.041	14.56
228.425	9.9
228.809	13.78
229.193	6.79
229.577	11.02
229.961	6.84
230.344	7.04
230.728	4.54
231.112	6.35
231.495	5.25
231.879	6.27
232.263	6.49
232.646	5.81
233.03	6.55
233.413	6.48
233.797	6.05
234.18	7.75
234.563	7.6
234.946	11.13
235.33	9.2
235.713	6.97
236.096	7.28
236.479	6.71
236.862	6.81
237.245	7.34
237.628	7.21
238.011	8.01
238.394	6.39
238.777	7.67
239.16	6.9
239.543	9.83
239.925	9.2
240.308	7.31
240.691	6.18
241.073	8.21
241.456	7.51
241.838	6.25
242.221	8.21
242.603	5.85
242.986	5.83
243.368	6.23
243.75	5.67
244.133	5.57
244.515	5.32
244.897	5.63
245.279	5.59
245.661	5.46
246.043	5.99
246.425	6.16
246.807	7.15
247.189	6.77
247.571	5.79
247.953	6
248.335	5.65
248.717	5.28
249.098	5.39
249.48	5.28
249.862	5.67
250.243	5.74
250.625	6.19
251.006	5.97
251.388	5.84
251.769	6.32
252.151	5.8
252.532	6.91
252.913	6
253.295	6.25
253.676	5.95
254.057	5.97
254.438	5.84
254.819	5.87
255.2	6.01
255.581	6.57
255.962	6.17
256.343	7.27
256.724	4.59
257.105	7.25
257.486	6.47
257.867	6.29
258.247	7.42
258.628	6.67
259.009	6.15
259.389	5.83
259.77	5.32
260.15	6.3
260.531	5.93
260.911	5.73
261.292	5.33
261.672	5.64
262.052	5.5
262.432	5.5
262.813	5.56
263.193	5.86
263.573	5.97
263.953	6.03
264.333	5.74
264.713	6.1
265.093	6.69
265.473	6.51
265.853	5.62
266.233	5.99
266.612	6.59
266.992	6.03
267.372	6.1
267.752	5.92
268.131	6.21
268.511	5.74
268.89	5.79
269.27	6.01
269.649	5.08
270.029	5.8
270.408	5.78
270.787	5.51
271.167	5.91
271.546	5.67
271.925	6.26
272.304	5.76
272.683	5.81
273.062	5.66
273.441	5.76
273.82	5.44
274.199	6.25
274.578	5.84
274.957	5.76
275.336	5.9
275.715	5.6
276.093	5.62
276.472	5.53
276.851	5.71
277.229	5.8
277.608	5.21
277.986	5.11
278.365	5.75
278.743	6.01
279.122	5.35
279.5	5.87
279.878	5.46
280.257	5.11
280.635	5.93
281.013	6.34
281.391	6.06
281.769	5.53
282.147	5.41
282.525	5.49
282.903	5.59
283.281	5.98
283.659	5.52
284.037	6.17
284.415	5.01
284.792	5.35
285.17	5.82
285.548	5.35
285.925	5.04
286.303	5.72
286.68	5.18
287.058	6.02
287.435	5.36
287.813	5.34
288.19	5.77
288.567	5.72
288.945	5.7
289.322	5.9
289.699	5.44
290.076	5.98
290.453	5.99
290.83	6
291.207	6.38
291.584	5.48
291.961	5.83
292.338	5.52
292.715	5.93
293.092	5.92
293.469	6.54
293.845	6.16
294.222	6
294.599	6.18
294.975	6.91
295.352	6.41
295.728	6.69
296.105	6.44
296.481	6.68
296.858	6.34
297.234	6.64
297.61	6.58
297.986	6.52
298.363	6.71
298.739	6.57
299.115	6.64
299.491	6.43
299.867	6.67
300.243	6.82
300.619	6.75
300.995	6.73
301.371	7.18
301.746	7.21
302.122	7.68
302.498	7.38
302.874	7.27
303.249	7.28
303.625	7.6
304	7.97
304.376	7.38
304.751	7.18
305.127	7.45
305.502	8.26
305.878	7.61
306.253	7.98
306.628	8.26
307.003	8.09
307.378	8.09
307.754	8.47
308.129	8.75
308.504	9.07
308.879	8.74
309.254	9.42
309.629	8.59
310.003	8.34
310.378	9.37
310.753	9.21
311.128	9.16
311.502	9.36
311.877	8.99
312.252	9.39
312.626	9.53
313.001	9.66
313.375	9.43
313.75	9.93
314.124	9.65
314.498	10.21
314.873	10.08
315.247	10.31
315.621	10.66
315.995	10.69
316.369	10.49
316.743	11.15
317.117	10.58
317.491	10.55
317.865	11.49
318.239	11.84
318.613	11.42
318.987	11.28
319.361	10.87
319.734	11.23
320.108	11.51
320.482	12.39
320.855	12.1
321.229	12.85
321.602	12.19
321.976	11.64
322.349	12.78
322.723	12.87
323.096	13.14
323.469	13.04
323.843	12.43
324.216	12.92
324.589	13.28
324.962	13.41
325.335	13.92
325.708	12.98
326.081	13.2
326.454	13.32
326.827	13.49
327.2	13.71
327.573	13.96
327.945	13.7
328.318	13.58
328.691	14.04
329.063	14.19
329.436	13.82
329.809	14.51
330.181	14.75
330.553	14.46
330.926	14.23
331.298	14.31
331.671	15.05
332.043	14.04
332.415	14.66
332.787	14.15
333.159	15.17
333.532	15.13
333.904	15.52
334.276	15.34
334.648	15.5
335.02	15.94
335.391	15.39
335.763	15.82
336.135	16.32
336.507	16.05
336.879	15.5
337.25	15.87
337.622	16.75
337.993	16.67
338.365	16.28
338.736	16.16
339.108	16.46
339.479	16.14
339.851	16.71
340.222	16.81
340.593	16.07
340.964	16.75
341.336	17.14
341.707	17.13
342.078	17.51
342.449	17.22
342.82	16.98
343.191	16.97
343.562	17.12
343.933	17.09
344.303	17.36
344.674	17.93
345.045	18.05
345.416	17.71
345.786	17.98
346.157	17.98
346.527	17.86
346.898	18.11
347.268	18.39
347.639	18.51
348.009	18.28
348.38	18.24
348.75	18.56
349.12	18.65
349.49	18.02
349.861	18.9
350.231	18.58
350.601	18.5
350.971	19.02
351.341	18.83
351.711	19.55
352.081	19.11
352.45	18.93
352.82	19.58
353.19	19.66
353.56	19.72
353.929	19.24
354.299	19.51
354.669	19.8
355.038	20.59
355.408	19.97
355.777	20.32
356.147	19.99
356.516	20.04
356.885	20.33
357.254	20.23
357.624	20.12
357.993	20.45
358.362	20.72
358.731	20.45
359.1	19.93
359.469	20.3
359.838	21.07
360.207	20.64
360.576	21.02
360.945	20.84
361.314	21.42
361.682	21.22
362.051	21.29
362.42	21.27
362.788	21.98
363.157	21.47
363.525	21.2
363.894	21.61
364.262	21.54
364.631	21.39
364.999	21.94
365.367	21.7
365.735	22.16
366.104	22.09
366.472	22.02
366.84	22.19
367.208	22.37
367.576	22.57
367.944	22.68
368.312	22.44
368.68	22.68
369.048	22.92
369.416	23.08
369.783	23.02
370.151	23.01
370.519	22.94
370.886	23.35
371.254	23.09
371.621	23.54
371.989	23.47
372.356	23.41
372.724	23.84
373.091	23.62
373.458	23.76
373.826	23.65
374.193	23.74
374.56	23.96
374.927	24.02
375.294	24.29
375.661	24.22
376.028	24.56
376.395	24.78
376.762	24.41
377.129	24.69
377.496	24.83
377.863	25.1
378.229	25.21
378.596	24.97
378.963	24.78
379.329	24.86
379.696	25.16
380.062	25.11
380.429	24.87
380.795	25.33
381.161	25.56
381.528	25.96
381.894	25.52
382.26	26.11
382.626	25.95
382.993	25.98
383.359	25.98
383.725	26
384.091	26.21
384.457	26
384.823	26.32
385.188	26.5
385.554	26.24
385.92	26.13
386.286	26.55
386.651	26.65
387.017	26.79
387.383	26.71
387.748	26.99
388.114	26.77
388.479	27.22
388.845	27.39
389.21	27.16
389.575	27.41
389.94	27.4
390.306	27.26
390.671	27.56
391.036	27.6
391.401	27.83
391.766	27.99
392.131	27.64
392.496	27.86
392.861	27.81
393.226	28.41
393.591	28.2
393.956	28.42
394.32	28.45
394.685	28.21
395.05	28.55
395.414	28.65
395.779	28.53
396.143	28.78
396.508	28.37
396.872	28.77
397.236	29.29
397.601	28.81
397.965	29.11
398.329	28.74
398.694	29.52
399.058	29.15
399.422	29.43
399.786	29.5
400.15	29.53
400.514	29.72
400.878	30.05
401.242	29.99
401.605	30.25
401.969	29.58
402.333	29.84
402.697	30.2
403.06	30.46
403.424	30.52
403.787	30.15
404.151	30.59
404.514	30.47
404.878	30.7
405.241	30.37
405.604	30.29
405.968	30.67
406.331	30.79
406.694	30.66
407.057	30.55
407.42	31.41
407.783	31.17
408.146	31.02
408.509	31.24
408.872	31.62
409.235	31.25
409.598	31.47
409.961	31.88
410.323	31.79
410.686	31.64
411.049	31.63
411.411	32.03
411.774	31.88
412.136	31.96
412.499	31.76
412.861	32.13
413.223	32.31
413.586	32.3
413.948	32.48
414.31	32.44
414.672	32.35
415.035	32.5
415.397	32.59
415.759	32.65
416.121	32.62
416.483	32.71
416.845	32.84
417.206	33.06
417.568	33.14
417.93	33.07
418.292	32.99
418.653	33.08
419.015	33.06
419.377	33.17
419.738	33.01
420.1	32.79
420.461	32.9
420.822	32.97
421.184	33.23
421.545	33.18
421.906	33.31
422.267	33.19
422.629	33.16
422.99	33.17
423.351	33.27
423.712	33.24
424.073	33.37
424.434	33.48
424.795	33.54
425.155	33.71
425.516	33.69
425.877	33.74
426.238	33.77
426.598	33.77
426.959	33.77
427.32	34.16
427.68	34.23
428.041	34.35
428.401	34.48
428.761	34.77
429.122	34.75
429.482	34.78
429.842	35.07
430.202	35.07
430.563	35.22
430.923	35.47
431.283	35.48
431.643	35.5
432.003	35.87
432.363	35.27
432.722	35.71
433.082	35.58
433.442	35.66
433.802	35.97
434.161	35.86
434.521	35.93
434.881	35.92
435.24	35.71
435.6	35.94
435.959	36.16
436.319	35.88
436.678	35.9
437.037	36.34
437.396	36.48
437.756	36.41
438.115	36.39
438.474	36.59
438.833	36.64
439.192	36.62
439.551	36.93
439.91	36.6
440.269	37.12
440.628	36.99
440.987	37.18
441.345	37.04
441.704	37.14
442.063	36.82
442.421	36.97
442.78	36.96
443.138	36.99
443.497	37.12
443.855	37.29
444.214	37.43
444.572	37.78
444.93	37.87
445.288	37.7
445.647	37.8
446.005	37.73
446.363	37.97
446.721	37.87
447.079	37.9
447.437	37.92
447.795	37.65
448.153	37.65
448.51	37.61
448.868	37.75
449.226	37.66
449.584	37.91
449.941	37.95
450.299	38.3
450.656	38.21
451.014	38.61
451.371	38.76
451.729	38.84
452.086	38.79
452.443	39.12
452.801	38.98
453.158	39.03
453.515	39.4
453.872	39.12
454.229	39.54
454.586	39.21
454.943	39.17
455.3	39.26
455.657	39.54
456.014	39.58
456.371	39.44
456.727	39.78
457.084	39.73
457.441	39.8
457.797	39.85
458.154	40.19
458.51	40
458.867	40.19
459.223	39.96
459.58	40.34
459.936	40.25
460.292	40.39
460.648	40.28
461.005	40
461.361	39.9
461.717	39.75
462.073	39.74
462.429	39.71
462.785	39.92
463.141	40.38
463.496	40.3
463.852	40.54
464.208	40.73
464.564	41.13
464.919	41.14
465.275	41.26
465.631	41.14
465.986	41.13
466.342	41.55
466.697	41.35
467.052	41.3
467.408	41.46
467.763	41.59
468.118	41.44
468.473	41.53
468.829	41.48
469.184	41.69
469.539	41.67
469.894	41.77
470.249	41.71
470.603	41.83
470.958	42.17
471.313	41.77
471.668	42.01
472.023	42.08
472.377	42.27
472.732	42.15
473.086	42.35
473.441	42.27
473.795	42.64
474.15	42.43
474.504	42.55
474.859	42.5
475.213	42.69
475.567	42.81
475.921	42.55
476.275	42.7
476.63	42.74
476.984	43.12
477.338	42.9
477.692	42.97
478.045	42.9
478.399	43.04
478.753	43.27
479.107	43.13
479.461	42.88
479.814	43.11
480.168	43.09
480.521	43.06
480.875	43.19
481.228	43.01
481.582	43.44
481.935	43.31
482.289	43.48
482.642	43.56
482.995	43.43
483.348	43.44
483.701	43.34
484.055	43.24
484.408	43.1
484.761	43.05
485.114	42.85
485.466	42.5
485.819	42.53
486.172	42.67
486.525	42.58
486.878	42.69
487.23	42.59
487.583	42.69
487.936	43.15
488.288	43.18
488.641	43.4
488.993	43.17
489.345	43.15
489.698	42.91
490.05	43.02
490.402	42.96
490.754	43.23
491.107	43.26
491.459	43.64
491.811	43.89
492.163	44.13
492.515	44.21
492.866	44.16
493.218	43.89
493.57	43.58
493.922	43.59
494.274	43.71
494.625	43.68
494.977	44.09
495.328	44.31
495.68	44.6
496.031	45.02
496.383	44.95
496.734	45.22
497.086	45.23
497.437	45.5
497.788	45.54
498.139	45.35
498.49	45.26
498.842	45.11
499.193	45.22
499.544	45.09
499.894	45.21
500.245	45.37
500.596	45.43
500.947	45.49
501.298	45.55
501.648	45.47
501.999	45.78
502.35	45.82
502.7	45.89
503.051	46.05
503.401	45.73
503.752	46.35
504.102	46.17
504.452	46.23
504.803	46.35
505.153	46.35
505.503	46.42
505.853	46.43
506.203	46.19
506.553	46.34
506.903	46.46
507.253	46.28
507.603	46.56
507.953	46.57
508.303	46.67
508.652	46.73
509.002	46.7
509.352	46.66
509.701	46.75
510.051	46.53
510.4	46.7
510.75	46.63
511.099	46.76
511.449	47
511.798	46.65
512.147	46.76
512.496	46.94
512.846	46.8
513.195	46.87
513.544	47.02
513.893	47.15
514.242	46.81
514.591	47.04
514.939	47.3
515.288	47.07
515.637	47.45
515.986	47.35
516.334	47.15
516.683	47.51
517.032	47.48
517.38	47.57
517.729	47.67
518.077	47.76
518.426	47.81
518.774	47.84
519.122	47.64
519.47	47.58
519.819	47.58
520.167	47.51
520.515	47.54
520.863	47.38
521.211	47.32
521.559	47.32
521.907	47.48
522.255	47.7
522.602	47.86
522.95	47.69
523.298	48.08
523.645	48.21
523.993	48.28
524.341	48.17
524.688	48.29
525.036	48.32
525.383	48.26
525.73	48.27
526.078	48.42
526.425	48.61
526.772	48.31
527.119	48.34
527.466	48.16
527.814	48.05
528.161	48.1
528.508	47.92
528.854	48.06
529.201	48.18
529.548	48.29
529.895	48.04
530.242	47.75
530.588	47.67
530.935	47.86
531.282	47.77
531.628	47.72
531.975	47.74
532.321	47.96
532.667	48.2
533.014	48.31
533.36	48.59
533.706	48.77
534.052	48.6
534.399	48.79
534.745	48.56
535.091	48.3
535.437	48.36
535.783	48.33
536.129	48.65
536.474	48.62
536.82	48.76
537.166	48.84
537.512	49.1
537.857	49.32
538.203	49.32
538.549	49.3
538.894	49.12
539.239	49.25
539.585	49.14
539.93	49.15
540.276	49.44
540.621	49.81
540.966	49.94
541.311	49.64
541.656	50.23
542.001	49.99
542.346	49.91
542.691	49.6
543.036	49.17
543.381	49.16
543.726	48.98
544.071	49.14
544.415	49.09
544.76	49.14
545.105	49.37
545.449	49.55
545.794	49.68
546.138	49.83
546.483	49.85
546.827	50.19
547.171	50.02
547.516	50.11
547.86	50.27
548.204	50.3
548.548	50.42
548.892	50.11
549.236	50.48
549.58	50.4
549.924	50.67
550.268	50.71
550.612	50.79
550.956	51.07
551.3	51.08
551.643	51.15
551.987	51.34
552.33	51.33
552.674	51.3
553.017	51.24
553.361	51.53
553.704	51.4
554.048	51.56
554.391	51.39
554.734	51.26
555.077	51.31
555.42	51.21
555.764	51.34
556.107	51.66
556.45	51.31
556.793	51.59
557.135	51.7
557.478	51.6
557.821	51.88
558.164	51.7
558.507	51.84
558.849	52.02
559.192	51.92
559.534	51.97
559.877	52.16
560.219	52.08
560.562	52.39
560.904	52.02
561.246	52.21
561.589	52
561.931	52.39
562.273	52.34
562.615	52.24
562.957	52.28
563.299	52.08
563.641	52.41
563.983	52.63
564.325	52.26
564.667	52.41
565.008	52.62
565.35	52.46
565.692	52.36
566.033	52.7
566.375	52.67
566.716	52.77
567.058	52.36
567.399	52.45
567.741	52.59
568.082	52.47
568.423	52.39
568.764	52.15
569.105	52.5
569.447	52.44
569.788	52.57
570.129	52.72
570.47	52.85
570.811	52.73
571.151	52.9
571.492	53.43
571.833	52.99
572.174	52.96
572.514	52.91
572.855	53.21
573.195	53.05
573.536	53.17
573.876	53.24
574.217	52.96
574.557	52.9
574.898	52.85
575.238	52.81
575.578	53.03
575.918	53.07
576.258	53.39
576.598	53.32
576.938	53.11
577.278	53.26
577.618	53.41
577.958	53.21
578.298	53.21
578.638	53.59
578.977	53.68
579.317	53.66
579.657	53.47
579.996	53.46
580.336	53.85
580.675	53.9
581.014	53.7
581.354	53.98
581.693	54.3
582.032	54.24
582.372	54.06
582.711	54.07
583.05	54.07
583.389	54.34
583.728	54.01
584.067	54.48
584.406	54.24
584.745	54.39
585.083	54.45
585.422	54.44
585.761	54.11
586.1	54.2
586.438	54.19
586.777	54.36
587.115	54.55
587.454	54.31
587.792	54.57
588.13	54.67
588.469	54.97
588.807	54.9
589.145	55
589.483	54.71
589.821	54.57
590.159	54.85
590.497	55.09
590.835	54.73
591.173	54.56
591.511	54.66
591.849	54.86
592.187	54.81
592.524	54.9
592.862	55.2
593.2	54.71
593.537	54.84
593.875	55.17
594.212	54.8
594.55	55.28
594.887	55.07
595.224	54.72
595.561	55.1
595.899	54.75
596.236	55.41
596.573	55.21
596.91	55.39
597.247	55.32
597.584	55.4
597.921	55.2
598.258	55.26
598.594	54.93
598.931	54.98
599.268	54.95
599.604	54.76
599.941	54.83
600.277	55.3
600.614	55.21
600.95	55.25
601.287	55.28
601.623	55.63
601.959	55.79
602.296	55.58
602.632	55.56
602.968	55.73
603.304	55.82
603.64	55.82
603.976	55.58
604.312	55.38
604.648	55.38
604.984	55.99
605.319	55.72
605.655	55.58
605.991	55.73
606.326	55.59
606.662	55.6
606.998	55.69
607.333	55.61
607.668	55.62
608.004	55.93
608.339	55.64
608.674	56.2
609.01	55.87
609.345	56.02
609.68	56.03
610.015	55.89
610.35	56.04
610.685	56.69
611.02	56.13
611.355	56.34
611.689	56.16
612.024	56.02
612.359	55.99
612.694	56.17
613.028	56.25
613.363	56.17
613.697	56.15
614.032	56.37
614.366	56.42
614.7	56.88
615.035	56.64
615.369	56.7
615.703	56.43
616.037	57.01
616.371	56.92
616.705	56.55
617.039	56.55
617.373	56.44
617.707	56.72
618.041	56.77
618.375	56.66
618.709	56.98
619.042	56.96
619.376	57.04
619.71	56.99
620.043	56.55
620.377	56.75
620.71	57.17
621.043	57.29
621.377	57.08
621.71	56.92
622.043	57.2
622.376	57.89
622.709	57.01
623.043	57.42
623.376	56.83
623.709	57.4
624.041	57.3
624.374	57.4
624.707	57.2
625.04	57.47
625.373	57.23
625.705	57.5
626.038	57.27
626.37	57.06
626.703	57.5
627.035	57.26
627.368	57.69
627.7	57.4
628.032	57.61
628.365	57.44
628.697	57.53
629.029	57.37
629.361	57.63
629.693	57.66
630.025	57.44
630.357	57.43
630.689	57.74
631.021	57.88
631.353	58.03
631.684	57.84
632.016	57.76
632.348	58.04
632.679	57.63
633.011	57.99
633.342	57.69
633.674	57.89
634.005	57.99
634.336	58.48
634.668	57.71
634.999	57.87
635.33	57.66
635.661	57.91
635.992	57.98
636.323	58.22
636.654	58.31
636.985	57.97
637.316	58.44
637.647	57.92
637.977	58.05
638.308	57.92
638.639	58.64
638.969	58.21
639.3	57.76
639.63	58.67
639.961	58.66
640.291	58.45
640.622	58.32
640.952	58.06
641.282	58.46
641.612	58.98
641.943	58.77
642.273	58.58
642.603	58.94
642.933	58.3
643.263	59.28
643.592	59.09
643.922	58.32
644.252	59.12
644.582	58.78
644.911	58.5
645.241	59.35
645.571	59.18
645.9	59.52
646.23	58.76
646.559	59.49
646.888	58.96
647.218	59.35
647.547	58.97
647.876	59.76
648.205	59.55
648.534	59.28
648.863	59.01
649.192	58.9
649.521	58.83
649.85	59.1
650.179	58.78
650.508	59
650.837	59.09
651.165	59.71
651.494	59.02
651.822	59.21
652.151	59.47
652.479	59.07
652.808	59.18
653.136	59.51
653.465	59.43
653.793	59.29
654.121	59.53
654.449	59.61
654.777	59.52
655.105	59.42
655.433	59.64
655.761	60.11
656.089	59.29
656.417	59
656.745	59.54
657.073	60.01
657.4	59.63
657.728	59.55
658.056	59.3
658.383	59.36
658.711	58.95
659.038	60.16
659.365	59.73
659.693	59.36
660.02	59.81
660.347	60.2
660.674	59.45
661.001	59.9
661.329	59.59
661.656	59.75
661.982	59.86
662.309	60.18
662.636	59.81
662.963	59.5
663.29	59.77
663.616	60.71
663.943	60.51
664.27	59.6
664.596	59.81
664.923	60.34
665.249	60.7
665.576	59.74
665.902	59.8
666.228	60.18
666.554	60.21
666.881	59.55
667.207	59.9
667.533	60.93
667.859	59.92
668.185	59.93
668.511	60.26
668.837	60.52
669.162	60.6
669.488	60.09
669.814	60.69
670.139	60.96
670.465	60.15
670.791	60.21
671.116	60.57
671.442	60.36
671.767	60.67
672.092	60.53
672.418	60.75
672.743	60.96
673.068	60.97
673.393	60.77
673.718	60.66
674.043	60.77
674.368	60.5
674.693	60.64
675.018	59.65
675.343	61.33
675.667	60.76
675.992	60.56
676.317	61.14
676.641	60.83
676.966	61.32
677.29	60.96
677.615	60.43
677.939	61.1
678.264	61.2
678.588	60.9
678.912	61.16
679.236	61.28
679.56	60.25
679.885	61.31
680.209	61.05
680.532	60.97
680.856	60.71
681.18	61.14
681.504	61.55
681.828	61.74
682.152	60.47
682.475	60.87
682.799	61.12
683.122	61.27
683.446	60.66
683.769	61.33
684.093	60.88
684.416	61.62
684.739	60.7
685.062	60.71
685.386	60.89
685.709	61.69
686.032	61.04
686.355	61.59
686.678	60.94
687.001	62.49
687.324	60.95
687.646	61.16
687.969	60.94
688.292	61.39
688.614	61.51
688.937	61.26
689.26	62.06
689.582	61.67
689.904	60.9
690.227	61.91
690.549	61.23
690.871	61.15
691.194	62.44
691.516	62.04
691.838	61.55
692.16	60.98
692.482	61.34
692.804	61.49
693.126	61.82
693.448	62.76
693.769	62.48
694.091	61.82
694.413	60.62
694.735	61.14
695.056	61.51
695.378	62.09
695.699	61.95
696.021	61.82
696.342	61.79
696.663	62.18
696.984	61.6
697.306	61.66
697.627	62.08
697.948	61.86
698.269	61.79
698.59	61.82
698.911	62.78
699.232	61.67
699.553	62.51
699.873	61.97
700.194	62.96
700.515	62.99
700.835	62.44
701.156	62.78
701.477	62.76
701.797	62.37
702.117	62.12
702.438	62.2
702.758	62.43
703.078	62.23
703.398	62.6
703.719	61.95
704.039	62.64
704.359	63.28
704.679	62.67
704.999	61.96
705.319	62.24
705.638	62.21
705.958	63.07
706.278	63
706.597	61.71
706.917	61.61
707.237	62.49
707.556	63.33
707.876	63.15
708.195	63.73
708.514	62.12
708.834	62.31
709.153	63.42
709.472	62.62
709.791	62.39
710.11	63.18
710.429	62.8
710.748	64.15
711.067	62.8
711.386	63.06
711.705	63.32
712.023	62.67
712.342	64.51
712.661	62.46
712.979	63.13
713.298	63.03
713.616	62.51
713.935	63.2
714.253	63.4
714.572	62.82
714.89	63.45
715.208	62.18
715.526	62.78
715.844	63.9
716.162	63.76
716.48	62.55
716.798	63.17
717.116	63.06
717.434	64.14
717.752	63.27
718.069	63.98
718.387	64.05
718.705	63.65
719.022	62.87
719.34	64.07
719.657	63.01
719.975	62.97
720.292	63.64
720.609	63.16
720.927	63.42
721.244	63.38
721.561	63.67
721.878	62.85
722.195	62.44
722.512	63.36
722.829	64.09
723.146	63.79
723.463	64.33
723.779	63.82
724.096	63.37
724.413	63.09
724.729	63.6
725.046	64.58
725.362	63.16
725.679	62.6
725.995	63.89
726.311	64.39
726.628	62.56
726.944	63.13
727.26	63.76
727.576	63.76
727.892	64.5
728.208	64.75
728.524	64.49
728.84	63.41
729.156	63.54
729.472	62.99
729.787	61.96
730.103	64.46
730.419	62.67
730.734	62.53
731.05	63.13
731.365	63.96
731.681	65.04
731.996	65.18
732.311	64.28
732.626	63.72
732.942	65.1
733.257	64.24
733.572	63.43
733.887	65
734.202	65.21
734.517	64.39
734.832	64.56
735.146	63.8
735.461	64.89
735.776	64.21
736.091	64.51
736.405	64.39
736.72	65.12
737.034	64.85
737.349	63.9
737.663	64.12
737.977	63.66
738.292	62.94
738.606	64.22
738.92	65.23
739.234	64.81
739.548	65.42
739.862	63.83
740.176	64.99
740.49	63.66
740.804	66.81
741.117	65.38
741.431	64.18
741.745	63.2
742.058	64.13
742.372	64.94
742.685	63.83
742.999	64.05
743.312	64.94
743.626	65.31
743.939	64.74
744.252	63.95
744.565	64.62
744.878	63.5
745.191	64.07
745.505	63.79
745.817	65.03
746.13	66.19
746.443	64.81
746.756	65.02
747.069	63.54
747.381	66.49
747.694	64.58
748.007	64.5
748.319	66.93
748.632	63.16
748.944	65.31
749.256	66.19
749.569	63.07
749.881	64.79
750.193	65.4
750.505	64.28
750.817	65.25
751.129	65.24
751.441	64.09
751.753	65.31
752.065	65.37
752.377	65.92
752.689	65.02
753	66.77
753.312	66.01
753.624	65.18
753.935	62.57
754.247	66.19
754.558	64.38
754.869	66.6
755.181	64.39
755.492	65.46
755.803	64.43
756.114	65.35
756.425	64.68
756.736	68.05
757.047	65.24
757.358	65
757.669	65.84
757.98	63.28
758.291	64.73
758.601	66.93
758.912	65.18
759.223	64.98
759.533	65.71
759.844	67.28
760.154	65.3
760.464	64.62
760.775	65.6
761.085	65.54
761.395	65.57
761.705	65.53
762.016	66.92
762.326	67.28
762.636	65.26
762.945	63.72
763.255	64.57
763.565	65.09
763.875	66.83
764.185	65.85
764.494	68.23
764.804	67.32
765.113	66.39
765.423	63.68
765.732	66.37
766.042	65.07
766.351	66.54
766.66	64.45
766.97	64.29
767.279	65.56
767.588	65.94
767.897	66.47
768.206	66.11
768.515	67.22
768.824	65.7
769.133	66.05
769.441	67.41
769.75	66.72
770.059	66.03
770.367	65.24
770.676	69.31
770.984	66.2
771.293	64.26
771.601	68.47
771.91	67.76
772.218	65.95
772.526	64.71
772.834	62.7
773.142	66.71
773.45	67.99
773.758	64.93
774.066	66.18
774.374	66.44
774.682	68.78
774.99	67.35
775.298	65.01
775.605	66.19
775.913	66.36
776.22	65.98
776.528	64.89
776.835	62.95
777.143	65.41
777.45	66.13
777.757	69.42
778.065	66.94
778.372	67.03
778.679	62.77
778.986	64.39
779.293	63.33
779.6	71.66
779.907	69.33
780.214	62.19
780.52	63.39
780.827	67.03
781.134	69.05
781.44	63.88
781.747	66.09
782.053	69.85
782.36	65.86
782.666	67.28
782.973	68.03
783.279	68.72
783.585	68.54
783.891	67.24
784.197	64.52
784.503	69.65
784.809	68.23
785.115	65.81
785.421	67.37
785.727	67.56
786.033	65.06
786.339	69.65
786.644	67.46
786.95	70.42
787.255	69.39
787.561	69.13
787.866	65.3
788.172	70.34
788.477	65.48
788.782	67.05
789.088	65.07
789.393	66.09
789.698	67.07
790.003	67.61
790.308	67.58
790.613	64.39
790.918	68.47
791.223	63.92
791.527	68.61
791.832	67.52
792.137	67.75
792.441	66.82
792.746	68.23
793.05	70.02
793.355	68.38
793.659	64.37
793.963	65.52
794.268	65.3
794.572	67.54
794.876	67.44
795.18	70.56
795.484	66.36
795.788	68.3
796.092	70.29
796.396	65.31
796.7	65.27
797.004	70.95
797.307	66.18
797.611	68.38
797.915	69.03
798.218	70.54
798.522	67.43
798.825	67.79
799.128	66.89
799.432	68.68
799.735	67.63
800.038	65.26
800.341	68.28
800.644	66.95
800.947	64.28
801.25	66.89
801.553	68.27
801.856	67.34
802.159	68.07
802.462	68.4
802.764	67.78
803.067	66.87
803.37	66.77
803.672	71.23
803.975	65.2
804.277	64.36
804.579	60.41
804.882	67.05
805.184	64
805.486	68.74
805.788	69.04
806.09	67.76
806.392	70.16
806.694	64.74
806.996	67.03
807.298	65.58
807.6	72.15
807.902	66.39
808.203	74.09
808.505	68.03
808.807	66.81
809.108	66.67
809.409	65.22
809.711	66.76
810.012	66.8
810.313	68.8
810.615	63.16
810.916	68.84
811.217	75.63
811.518	72.59
811.819	61.58
812.12	62.91
812.421	67.87
812.722	63.83
813.023	68.86
813.323	77.92
813.624	68.49
813.925	66.92
814.225	70.15
814.526	69.01
814.826	67.52
815.126	76.51
815.427	72.37
815.727	71.73
816.027	70.34
816.327	68.06
816.627	67.47
816.927	75.74
817.227	67.35
817.527	69.59
817.827	67.12
818.127	72.01
818.427	71.68
818.727	72.74
819.026	63.35
819.326	68.23
819.625	70.09
819.925	70.51
820.224	67.54
820.524	76.96
820.823	68.25
821.122	64.67
821.421	68.7
821.72	64.79
822.019	66.59
822.318	72.25
822.617	66.88
822.916	68.69
823.215	66.18
823.514	66.94
823.813	66.76
824.111	69.7
824.41	67.93
824.709	69.09
825.007	69.07
825.306	67.55
825.604	69.17
825.902	67.19
826.201	69.13
826.499	68.8
826.797	68.51
827.095	68.39
827.393	68.34
827.691	66.95
827.989	67
828.287	67.47
828.585	71.55
828.882	67.99
829.18	68.14
829.478	67.09
829.775	65.71
830.073	67.01
830.37	68.12
830.668	71.32
830.965	69.35
831.263	68.31
831.56	66.87
831.857	68.64
832.154	66.4
832.451	67.71
832.748	65.91
833.045	67.04
833.342	68.43
833.639	71.67
833.936	68.1
834.232	67.68
834.529	66.38
834.826	71.07
835.122	70.07
835.419	77.4
835.715	67.79
836.012	68.13
836.308	67
836.604	67.57
836.901	69.23
837.197	71.13
837.493	70.78
837.789	68.12
838.085	66.82
838.381	70.28
838.677	64.68
838.972	70.85
839.268	68.01
839.564	70.8
839.86	71.81
840.155	70.95
840.451	75.48
840.746	66.74
841.042	65.27
841.337	65.12
841.632	74.56
841.928	84.31
842.223	76.62
842.518	59.5
842.813	71.55
843.108	64.26
843.403	75.03
843.698	70.55
843.993	71.92
844.287	73.34
844.582	73.93
844.877	69.87
845.171	69.93
845.466	61.98
845.761	69.1
846.055	74.16
846.349	61.57
846.644	74.55
846.938	75.33
847.232	66.5
847.526	79.9
847.82	73.13
848.114	67.24
848.408	58.35
848.702	59.8
848.996	67.37
849.29	66.75
849.584	67.86
849.877	72.19
850.171	73.45
850.465	64.53
850.758	59.34
851.052	74.69
851.345	77.19
851.638	76.83
851.932	51.48
852.225	57.56
852.518	72.31
852.811	78.69
853.104	63.36
853.397	67.53
853.69	80.49
853.983	104.8
854.276	73.64
854.569	85.28
854.861	89.2
855.154	78.58
855.447	55.41
855.739	66.42
856.032	47.73
856.324	58.77
856.616	62.78
856.909	85.38
857.201	64.05
857.493	59.96
857.785	74.51
858.077	68.85
858.369	61.84
858.661	45.67
858.953	68.2
859.245	64.99
859.537	59.76
859.829	53.77
860.12	71.41
860.412	95
860.703	68.25
860.995	84.09
861.286	62.89
861.578	88.52
861.869	79.08
862.16	76.47
862.452	67.2
862.743	48.24
863.034	97.94
863.325	58.88
863.616	44.48
863.907	58.89
864.198	55.36
864.488	82.08
864.779	76.49
865.07	56.39
865.36	76.64
865.651	69.21
865.941	72.9
866.232	62.2
866.522	78.74
866.813	56.1
867.103	59.57
867.393	77.07
867.683	78.49
867.973	91.13
868.263	76.23
868.553	79.53
868.843	68.82
869.133	89.6
869.423	87.41
869.713	98.35
870.002	81.4
870.292	82.84
870.582	67.44
870.871	49.86
871.161	60.83
871.45	94.7
871.739	53.42
872.029	40.71
872.318	79.36
872.607	56.77
872.896	56.96
873.185	76.88
873.474	58.17
873.763	68.67
874.052	89.07
874.341	73.95
874.63	69.26
874.918	76.11
875.207	68.17
875.496	95.37
875.784	89.62
876.073	67.38
876.361	96.58
876.649	67.75
876.938	74.75
877.226	73.66
877.514	67.74
877.802	70.53
878.09	64.97
878.378	74.13
878.666	44.27
878.954	88.03
879.242	80.1
879.53	77.97
879.817	82.31
880.105	83.02
880.392	96.83
880.68	91.43
880.967	85.52
881.255	110.26
881.542	59.07
881.83	87.32
882.117	92.14
882.404	71.36
882.691	78.94
882.978	77.1
883.265	66.21
883.552	72.81
883.839	68.25
884.126	78.91
884.413	91.57
884.699	74.95
884.986	76.16
885.273	67.26
885.559	67.26
885.846	67.26
