Data from 0245_crown_Reflection__3__86.txt Node

Date: Fri Oct 20 21:20:37 CDT 2023
User: ToomeyLab
Spectrometer: FLMS14357
Trigger mode: 0
Integration Time (sec): 1.000000E-2
Scans to average: 100
Electric dark correction enabled: true
Nonlinearity correction enabled: false
Boxcar width: 0
XAxis mode: Wavelengths
Number of Pixels in Spectrum: 2048
>>>>>Begin Spectral Data<<<<<
189.047	68.99
189.435	68.99
189.823	68.99
190.211	41.53
190.599	-346.03
190.987	162.26
191.375	281.69
191.763	132.91
192.151	-75.26
192.538	123.47
192.926	-36.83
193.314	548.87
193.702	38.44
194.089	789.49
194.477	26.97
194.864	3.95
195.252	50.33
195.639	-17.95
196.027	-60.98
196.414	70.31
196.801	165.43
197.189	-108.82
197.576	102.46
197.963	-178.88
198.351	61.02
198.738	24.68
199.125	35.17
199.512	26.89
199.899	45.56
200.286	-13.45
200.673	25.54
201.06	2.4
201.447	4.52
201.833	25.26
202.22	23.31
202.607	25.82
202.994	22.59
203.38	17.5
203.767	54.06
204.154	27.01
204.54	30.77
204.927	21.44
205.313	-0.57
205.699	25.96
206.086	22.71
206.472	40.37
206.858	59.45
207.245	8.15
207.631	25.71
208.017	18.25
208.403	39.22
208.789	29.03
209.175	-10.2
209.561	23.22
209.947	14.3
210.333	22.12
210.719	22.77
211.105	34.15
211.491	39.21
211.876	5.44
212.262	29.8
212.648	13.11
213.034	15.08
213.419	7.56
213.805	30.08
214.19	24.69
214.576	36.81
214.961	30.41
215.346	37.04
215.732	27.36
216.117	-42.31
216.502	27.36
216.888	16.03
217.273	15.04
217.658	10.28
218.043	16.79
218.428	4.53
218.813	20.01
219.198	-0.64
219.583	3.76
219.968	24.18
220.353	28.72
220.738	13.04
221.122	11.12
221.507	4.25
221.892	22.51
222.276	32.37
222.661	31.79
223.046	11.54
223.43	8.78
223.815	17.69
224.199	19.4
224.583	-0.91
224.968	13.54
225.352	3.49
225.736	6.42
226.121	12.35
226.505	12.09
226.889	14.63
227.273	13.36
227.657	16.8
228.041	15.04
228.425	6.68
228.809	16.13
229.193	8.39
229.577	11.85
229.961	10.78
230.344	10.29
230.728	9.72
231.112	11.45
231.495	10.05
231.879	11.15
232.263	10.39
232.646	10.37
233.03	10.18
233.413	9.72
233.797	9.48
234.18	10.83
234.563	9.86
234.946	11.35
235.33	9.84
235.713	11.49
236.096	10.87
236.479	11.86
236.862	11.52
237.245	10.02
237.628	11.03
238.011	11.9
238.394	11.15
238.777	11.37
239.16	9.14
239.543	11.21
239.925	10.77
240.308	9.59
240.691	8.22
241.073	11.42
241.456	10.86
241.838	9.72
242.221	10.38
242.603	10.74
242.986	10.71
243.368	9.8
243.75	9.16
244.133	8.99
244.515	9.31
244.897	9.79
245.279	9.53
245.661	8.8
246.043	9.06
246.425	9.04
246.807	8.52
247.189	9.47
247.571	8.35
247.953	9.57
248.335	9.02
248.717	8.47
249.098	8.4
249.48	8.72
249.862	8.67
250.243	9.32
250.625	8.93
251.006	8.98
251.388	8.48
251.769	9.61
252.151	8.74
252.532	9.16
252.913	8.4
253.295	7.29
253.676	8.72
254.057	8.55
254.438	8.27
254.819	8.08
255.2	8.3
255.581	8.42
255.962	9.09
256.343	9.19
256.724	6.73
257.105	8.92
257.486	8.98
257.867	9.77
258.247	9.49
258.628	8.19
259.009	8.14
259.389	8.07
259.77	7.43
260.15	8.15
260.531	8.09
260.911	7.89
261.292	7.85
261.672	8.14
262.052	8.11
262.432	7.87
262.813	8
263.193	8.02
263.573	7.84
263.953	8.03
264.333	8.71
264.713	8.73
265.093	8.44
265.473	8
265.853	7.61
266.233	7.93
266.612	7.82
266.992	8.49
267.372	7.7
267.752	8.56
268.131	8.14
268.511	7.93
268.89	7.46
269.27	7.75
269.649	7.4
270.029	8.25
270.408	7.64
270.787	8
271.167	7.51
271.546	7.94
271.925	8.39
272.304	8.46
272.683	8.06
273.062	8.3
273.441	7.77
273.82	7.93
274.199	7.96
274.578	7.76
274.957	7.66
275.336	7.76
275.715	7.69
276.093	7.66
276.472	8.02
276.851	7.76
277.229	7.82
277.608	7.35
277.986	7.07
278.365	7.98
278.743	7.48
279.122	7.28
279.5	7.5
279.878	7.38
280.257	7.55
280.635	7.59
281.013	7.91
281.391	7.52
281.769	7.14
282.147	7.44
282.525	7.71
282.903	7.29
283.281	8.11
283.659	7.45
284.037	7.7
284.415	7.26
284.792	7.23
285.17	7.52
285.548	7.6
285.925	7.33
286.303	7.15
286.68	7.24
287.058	7.68
287.435	7.07
287.813	6.87
288.19	7.35
288.567	7.08
288.945	7.29
289.322	7.86
289.699	6.67
290.076	7.92
290.453	7.42
290.83	7.01
291.207	7.76
291.584	7
291.961	6.97
292.338	6.84
292.715	6.88
293.092	7.1
293.469	7.53
293.845	6.9
294.222	6.92
294.599	6.93
294.975	7.85
295.352	7.41
295.728	7.73
296.105	6.92
296.481	7.21
296.858	7.05
297.234	6.97
297.61	6.51
297.986	7.12
298.363	6.92
298.739	7.32
299.115	6.96
299.491	6.98
299.867	7.05
300.243	6.92
300.619	6.81
300.995	6.73
301.371	7.33
301.746	6.66
302.122	7.09
302.498	6.51
302.874	6.67
303.249	6.74
303.625	6.88
304	7.67
304.376	7.07
304.751	6.68
305.127	6.96
305.502	7.44
305.878	7.1
306.253	6.75
306.628	7.03
307.003	7.27
307.378	6.87
307.754	6.98
308.129	7.42
308.504	6.96
308.879	6.93
309.254	6.77
309.629	6.75
310.003	6.48
310.378	7.16
310.753	7.25
311.128	6.9
311.502	6.87
311.877	7.15
312.252	6.81
312.626	7.15
313.001	7.03
313.375	6.7
313.75	7.06
314.124	6.62
314.498	6.92
314.873	6.28
315.247	6.9
315.621	6.65
315.995	7.03
316.369	6.68
316.743	6.91
317.117	7.06
317.491	6.6
317.865	7.02
318.239	7.35
318.613	6.94
318.987	6.65
319.361	6.14
319.734	6.97
320.108	6.25
320.482	6.76
320.855	6.58
321.229	7.48
321.602	6.27
321.976	6.77
322.349	7.26
322.723	6.67
323.096	6.63
323.469	6.45
323.843	6.61
324.216	6.92
324.589	6.93
324.962	7.03
325.335	6.87
325.708	7.05
326.081	6.82
326.454	6.59
326.827	7.09
327.2	7.09
327.573	6.79
327.945	6.71
328.318	6.55
328.691	6.74
329.063	7.18
329.436	6.52
329.809	7.06
330.181	7.42
330.553	7.1
330.926	7.23
331.298	6.05
331.671	6.34
332.043	6.55
332.415	6.59
332.787	6.79
333.159	6.98
333.532	7.18
333.904	7.07
334.276	6.31
334.648	7
335.02	7.11
335.391	6.5
335.763	7.19
336.135	7.14
336.507	7.02
336.879	7.23
337.25	7.22
337.622	6.85
337.993	7.22
338.365	6.67
338.736	6.45
339.108	7.2
339.479	6.28
339.851	7.32
340.222	7.07
340.593	6.67
340.964	7.11
341.336	7.11
341.707	7
342.078	7.39
342.449	7.04
342.82	6.53
343.191	6.78
343.562	6.97
343.933	6.85
344.303	6.69
344.674	7.1
345.045	6.94
345.416	7.24
345.786	6.84
346.157	7.01
346.527	7
346.898	6.76
347.268	6.79
347.639	7.11
348.009	7.11
348.38	6.85
348.75	7.25
349.12	6.83
349.49	6.78
349.861	7.06
350.231	6.46
350.601	7.05
350.971	7.8
351.341	7.16
351.711	7.66
352.081	7.16
352.45	7.15
352.82	7.44
353.19	7.36
353.56	7.32
353.929	6.64
354.299	7.37
354.669	6.97
355.038	7.16
355.408	7.39
355.777	6.88
356.147	6.99
356.516	7.22
356.885	7.11
357.254	7.26
357.624	7.46
357.993	6.97
358.362	7.06
358.731	6.64
359.1	6.61
359.469	6.75
359.838	7.09
360.207	7.15
360.576	7.51
360.945	6.98
361.314	7.24
361.682	6.96
362.051	7.14
362.42	7.1
362.788	7.3
363.157	7.35
363.525	7.01
363.894	6.96
364.262	7.36
364.631	7.27
364.999	7.16
365.367	7.31
365.735	7.11
366.104	7.17
366.472	7.56
366.84	7.23
367.208	7.29
367.576	7
367.944	7.08
368.312	7.1
368.68	7.54
369.048	7.1
369.416	7.52
369.783	7.43
370.151	7.41
370.519	7.36
370.886	7.37
371.254	7.49
371.621	7.37
371.989	7.31
372.356	7.22
372.724	7.47
373.091	7.09
373.458	7.47
373.826	6.93
374.193	7
374.56	7.6
374.927	7.23
375.294	7.46
375.661	7.7
376.028	7.24
376.395	7.71
376.762	7.29
377.129	7.26
377.496	7.77
377.863	7.86
378.229	7.52
378.596	7.39
378.963	7.08
379.329	7.56
379.696	7.35
380.062	7.29
380.429	7.05
380.795	7.34
381.161	7.25
381.528	7.59
381.894	7.41
382.26	7.72
382.626	7.53
382.993	7.38
383.359	7.35
383.725	7.28
384.091	7.68
384.457	7.53
384.823	7.65
385.188	7.79
385.554	7.54
385.92	7.37
386.286	7.64
386.651	7.33
387.017	7.88
387.383	7.47
387.748	7.2
388.114	7.19
388.479	7.63
388.845	7.71
389.21	7.51
389.575	7.47
389.94	7.34
390.306	7.64
390.671	7.42
391.036	7.46
391.401	7.45
391.766	7.62
392.131	7.44
392.496	7.61
392.861	7.65
393.226	7.47
393.591	7.48
393.956	7.61
394.32	7.89
394.685	7.12
395.05	7.59
395.414	7.68
395.779	7.51
396.143	7.59
396.508	7.51
396.872	7.7
397.236	7.56
397.601	7.53
397.965	7.36
398.329	7.68
398.694	7.72
399.058	7.46
399.422	7.81
399.786	7.46
400.15	7.51
400.514	7.52
400.878	7.61
401.242	7.86
401.605	7.57
401.969	7.49
402.333	7.66
402.697	7.58
403.06	7.67
403.424	7.73
403.787	7.59
404.151	7.61
404.514	7.61
404.878	7.78
405.241	7.51
405.604	7.61
405.968	7.75
406.331	7.75
406.694	7.82
407.057	7.76
407.42	7.81
407.783	7.6
408.146	7.45
408.509	7.62
408.872	7.98
409.235	7.57
409.598	7.75
409.961	7.72
410.323	7.82
410.686	7.7
411.049	7.59
411.411	7.42
411.774	7.68
412.136	7.68
412.499	7.75
412.861	7.74
413.223	7.8
413.586	7.61
413.948	7.68
414.31	7.8
414.672	7.37
415.035	7.53
415.397	7.82
415.759	7.74
416.121	7.68
416.483	7.77
416.845	7.56
417.206	7.68
417.568	7.73
417.93	7.78
418.292	7.54
418.653	7.72
419.015	7.57
419.377	7.64
419.738	7.58
420.1	7.54
420.461	7.53
420.822	7.39
421.184	7.6
421.545	7.54
421.906	7.62
422.267	7.52
422.629	7.58
422.99	7.43
423.351	7.57
423.712	7.55
424.073	7.5
424.434	7.43
424.795	7.54
425.155	7.69
425.516	7.49
425.877	7.55
426.238	7.42
426.598	7.48
426.959	7.52
427.32	7.57
427.68	7.6
428.041	7.52
428.401	7.67
428.761	7.62
429.122	7.5
429.482	7.58
429.842	7.65
430.202	7.83
430.563	7.62
430.923	7.77
431.283	7.79
431.643	7.84
432.003	7.81
432.363	7.67
432.722	7.63
433.082	7.67
433.442	7.61
433.802	7.87
434.161	7.63
434.521	7.74
434.881	7.78
435.24	7.71
435.6	7.58
435.959	7.55
436.319	7.57
436.678	7.74
437.037	7.65
437.396	7.71
437.756	7.66
438.115	7.63
438.474	7.69
438.833	7.6
439.192	7.51
439.551	7.69
439.91	7.82
440.269	7.79
440.628	7.67
440.987	7.65
441.345	7.5
441.704	7.71
442.063	7.58
442.421	7.66
442.78	7.48
443.138	7.67
443.497	7.72
443.855	7.66
444.214	7.59
444.572	7.67
444.93	7.77
445.288	7.71
445.647	7.8
446.005	7.52
446.363	7.56
446.721	7.59
447.079	7.76
447.437	7.57
447.795	7.5
448.153	7.47
448.51	7.55
448.868	7.49
449.226	7.37
449.584	7.52
449.941	7.42
450.299	7.62
450.656	7.63
451.014	7.49
451.371	7.59
451.729	7.66
452.086	7.58
452.443	7.76
452.801	7.59
453.158	7.74
453.515	7.78
453.872	7.7
454.229	7.69
454.586	7.77
454.943	7.68
455.3	7.54
455.657	7.45
456.014	7.58
456.371	7.8
456.727	7.77
457.084	7.67
457.441	7.75
457.797	7.66
458.154	7.48
458.51	7.77
458.867	7.76
459.223	7.73
459.58	7.52
459.936	7.6
460.292	7.63
460.648	7.59
461.005	7.54
461.361	7.58
461.717	7.3
462.073	7.53
462.429	7.41
462.785	7.45
463.141	7.5
463.496	7.55
463.852	7.61
464.208	7.65
464.564	7.74
464.919	7.53
465.275	7.78
465.631	7.85
465.986	7.76
466.342	7.62
466.697	7.59
467.052	7.36
467.408	7.58
467.763	7.61
468.118	7.66
468.473	7.65
468.829	7.78
469.184	7.68
469.539	7.65
469.894	7.52
470.249	7.65
470.603	7.52
470.958	7.69
471.313	7.81
471.668	7.73
472.023	7.66
472.377	7.68
472.732	7.61
473.086	7.65
473.441	7.69
473.795	7.75
474.15	7.56
474.504	7.43
474.859	7.65
475.213	7.64
475.567	7.62
475.921	7.52
476.275	7.58
476.63	7.78
476.984	7.63
477.338	7.65
477.692	7.67
478.045	7.53
478.399	7.53
478.753	7.6
479.107	7.61
479.461	7.49
479.814	7.62
480.168	7.69
480.521	7.67
480.875	7.64
481.228	7.59
481.582	7.63
481.935	7.6
482.289	7.55
482.642	7.45
482.995	7.45
483.348	7.44
483.701	7.52
484.055	7.48
484.408	7.34
484.761	7.3
485.114	7.26
485.466	7.19
485.819	7.1
486.172	7.05
486.525	7.06
486.878	7.13
487.23	7.15
487.583	7.17
487.936	7.22
488.288	7.3
488.641	7.35
488.993	7.21
489.345	7.24
489.698	7.11
490.05	7.16
490.402	7.14
490.754	7.23
491.107	7.18
491.459	7.31
491.811	7.36
492.163	7.36
492.515	7.55
492.866	7.41
493.218	7.17
493.57	7.12
493.922	7.17
494.274	7.22
494.625	7.21
494.977	7.2
495.328	7.32
495.68	7.35
496.031	7.3
496.383	7.46
496.734	7.58
497.086	7.39
497.437	7.39
497.788	7.4
498.139	7.59
498.49	7.48
498.842	7.33
499.193	7.44
499.544	7.31
499.894	7.32
500.245	7.44
500.596	7.32
500.947	7.46
501.298	7.31
501.648	7.26
501.999	7.5
502.35	7.5
502.7	7.47
503.051	7.49
503.401	7.39
503.752	7.41
504.102	7.41
504.452	7.37
504.803	7.33
505.153	7.54
505.503	7.38
505.853	7.43
506.203	7.37
506.553	7.23
506.903	7.38
507.253	7.24
507.603	7.38
507.953	7.52
508.303	7.41
508.652	7.5
509.002	7.47
509.352	7.39
509.701	7.44
510.051	7.25
510.4	7.36
510.75	7.44
511.099	7.2
511.449	7.34
511.798	7.37
512.147	7.4
512.496	7.27
512.846	7.4
513.195	7.39
513.544	7.27
513.893	7.33
514.242	7.3
514.591	7.32
514.939	7.38
515.288	7.25
515.637	7.33
515.986	7.45
516.334	7.29
516.683	7.32
517.032	7.15
517.38	7.32
517.729	7.29
518.077	7.23
518.426	7.41
518.774	7.21
519.122	7.23
519.47	7.26
519.819	7.3
520.167	7.22
520.515	7.27
520.863	7.3
521.211	7.21
521.559	7.34
521.907	7.27
522.255	7.24
522.602	7.35
522.95	7.24
523.298	7.25
523.645	7.3
523.993	7.19
524.341	7.3
524.688	7.27
525.036	7.4
525.383	7.26
525.73	7.43
526.078	7.34
526.425	7.38
526.772	7.2
527.119	7.23
527.466	7.16
527.814	7.26
528.161	7.06
528.508	7.06
528.854	7.05
529.201	7.08
529.548	7.19
529.895	7.15
530.242	7.01
530.588	6.93
530.935	6.88
531.282	6.89
531.628	6.95
531.975	6.92
532.321	6.95
532.667	7.05
533.014	7.1
533.36	7.11
533.706	7.19
534.052	7.18
534.399	7
534.745	7
535.091	7.06
535.437	7.03
535.783	6.97
536.129	7.05
536.474	7.02
536.82	7.08
537.166	7.03
537.512	7.15
537.857	7.21
538.203	7.09
538.549	7.25
538.894	7.13
539.239	7.12
539.585	7.01
539.93	7.08
540.276	7.28
540.621	7.11
540.966	7.23
541.311	7.27
541.656	7.23
542.001	7.24
542.346	7.28
542.691	7.16
543.036	6.99
543.381	6.86
543.726	6.88
544.071	6.91
544.415	6.91
544.76	6.95
545.105	7.02
545.449	6.99
545.794	7.04
546.138	6.98
546.483	7.04
546.827	7.02
547.171	7.18
547.516	7.09
547.86	7.24
548.204	7.03
548.548	7.09
548.892	7.04
549.236	7.25
549.58	7.03
549.924	7.04
550.268	7.11
550.612	7.23
550.956	7.27
551.3	7.15
551.643	7.12
551.987	7.4
552.33	7.27
552.674	7.13
553.017	7.12
553.361	7.28
553.704	7.2
554.048	7.22
554.391	7.3
554.734	7.23
555.077	7.08
555.42	7.03
555.764	6.95
556.107	7.1
556.45	7.25
556.793	7.15
557.135	6.98
557.478	7.02
557.821	7.14
558.164	7.05
558.507	7.24
558.849	7.35
559.192	7.14
559.534	7.25
559.877	7
560.219	7.35
560.562	7.21
560.904	6.98
561.246	7.22
561.589	6.94
561.931	7.32
562.273	7.21
562.615	7.3
562.957	7.12
563.299	7
563.641	7.29
563.983	6.85
564.325	7
564.667	7.22
565.008	7.1
565.35	6.99
565.692	7.24
566.033	7.26
566.375	7.11
566.716	7.15
567.058	7.04
567.399	7.2
567.741	7.06
568.082	7.22
568.423	7.02
568.764	6.92
569.105	7.15
569.447	6.89
569.788	7.06
570.129	7
570.47	6.99
570.811	7.29
571.151	6.97
571.492	6.93
571.833	7.07
572.174	7.08
572.514	7.13
572.855	7.05
573.195	7.2
573.536	6.99
573.876	7.12
574.217	6.91
574.557	6.86
574.898	6.98
575.238	6.82
575.578	6.89
575.918	6.92
576.258	7.02
576.598	7.07
576.938	6.91
577.278	7.11
577.618	6.96
577.958	6.97
578.298	7.04
578.638	7.03
578.977	7.22
579.317	6.96
579.657	6.91
579.996	7.2
580.336	6.91
580.675	6.91
581.014	6.9
581.354	7.08
581.693	6.97
582.032	7.04
582.372	6.95
582.711	7.11
583.05	7.27
583.389	7.03
583.728	7.07
584.067	7.02
584.406	6.84
584.745	7.12
585.083	7.04
585.422	7.05
585.761	6.98
586.1	7.36
586.438	6.78
586.777	6.97
587.115	7.21
587.454	7.2
587.792	6.89
588.13	6.98
588.469	7.14
588.807	6.41
589.145	7.01
589.483	6.72
589.821	6.93
590.159	7.02
590.497	7.05
590.835	6.99
591.173	6.98
591.511	6.95
591.849	6.67
592.187	6.87
592.524	6.84
592.862	6.89
593.2	7.13
593.537	6.94
593.875	6.9
594.212	7.07
594.55	6.99
594.887	6.99
595.224	6.78
595.561	6.82
595.899	7.04
596.236	7.15
596.573	7.02
596.91	6.93
597.247	6.55
597.584	6.84
597.921	6.88
598.258	6.87
598.594	7
598.931	6.85
599.268	6.77
599.604	6.97
599.941	6.81
600.277	6.91
600.614	6.98
600.95	6.87
601.287	6.73
601.623	7.25
601.959	6.86
602.296	7.05
602.632	6.96
602.968	6.63
603.304	7.14
603.64	6.92
603.976	6.77
604.312	7.01
604.648	6.81
604.984	6.97
605.319	6.94
605.655	6.51
605.991	6.75
606.326	6.86
606.662	6.64
606.998	6.68
607.333	6.54
607.668	6.88
608.004	6.78
608.339	6.72
608.674	6.95
609.01	6.95
609.345	7.07
609.68	6.97
610.015	6.73
610.35	6.85
610.685	7.01
611.02	6.83
611.355	6.62
611.689	6.6
612.024	6.8
612.359	6.9
612.694	6.83
613.028	6.68
613.363	6.71
613.697	6.73
614.032	6.95
614.366	7.14
614.7	6.97
615.035	6.89
615.369	7.22
615.703	6.67
616.037	6.9
616.371	6.64
616.705	6.59
617.039	6.94
617.373	6.68
617.707	6.85
618.041	6.69
618.375	6.59
618.709	6.94
619.042	6.95
619.376	7.11
619.71	6.98
620.043	7.07
620.377	6.95
620.71	6.97
621.043	6.75
621.377	6.36
621.71	7.06
622.043	6.68
622.376	6.95
622.709	7.04
623.043	7
623.376	6.53
623.709	6.59
624.041	6.82
624.374	7.13
624.707	6.75
625.04	7.13
625.373	6.88
625.705	6.71
626.038	7.03
626.37	6.68
626.703	6.65
627.035	6.6
627.368	6.63
627.7	7.18
628.032	6.62
628.365	6.69
628.697	6.74
629.029	6.69
629.361	6.84
629.693	6.54
630.025	6.86
630.357	6.53
630.689	6.72
631.021	6.95
631.353	7.06
631.684	6.59
632.016	7
632.348	6.67
632.679	6.78
633.011	6.89
633.342	6.41
633.674	6.65
634.005	6.84
634.336	6.99
634.668	6.76
634.999	6.59
635.33	6.38
635.661	7.17
635.992	7.08
636.323	7.17
636.654	7.02
636.985	6.41
637.316	6.82
637.647	6.85
637.977	6.27
638.308	7.09
638.639	6.42
638.969	7.1
639.3	6.28
639.63	6.67
639.961	6.65
640.291	6.93
640.622	6.76
640.952	6.56
641.282	6.76
641.612	6.61
641.943	6.79
642.273	6.63
642.603	7.28
642.933	6.9
643.263	7.1
643.592	6.97
643.922	7.24
644.252	6.64
644.582	6.97
644.911	6.83
645.241	7.35
645.571	7.25
645.9	6.59
646.23	6.69
646.559	6.51
646.888	6.9
647.218	6.86
647.547	6.54
647.876	6.92
648.205	7.11
648.534	6.98
648.863	6.86
649.192	6.18
649.521	6.53
649.85	6.68
650.179	6.89
650.508	6.94
650.837	6.82
651.165	7.01
651.494	6.31
651.822	6.69
652.151	6.8
652.479	6.9
652.808	6.84
653.136	6.5
653.465	6.77
653.793	6.84
654.121	6.91
654.449	6.58
654.777	6.67
655.105	6.96
655.433	6.95
655.761	7.05
656.089	6.89
656.417	7.02
656.745	6.55
657.073	7
657.4	7.22
657.728	6.84
658.056	6.75
658.383	6.76
658.711	6.56
659.038	7.05
659.365	7.27
659.693	6.67
660.02	7.25
660.347	6.65
660.674	6.6
661.001	6.64
661.329	6.73
661.656	7.08
661.982	6.97
662.309	6.74
662.636	6.92
662.963	6.91
663.29	7.1
663.616	7.27
663.943	6.82
664.27	6.69
664.596	6.71
664.923	6.72
665.249	6.62
665.576	6.8
665.902	6.94
666.228	7.09
666.554	6.43
666.881	6.55
667.207	6.9
667.533	7.44
667.859	7.02
668.185	7.09
668.511	7.3
668.837	7.44
669.162	7.17
669.488	7.03
669.814	7.15
670.139	7.07
670.465	7.23
670.791	7.65
671.116	7.09
671.442	6.98
671.767	6.91
672.092	7.5
672.418	7.13
672.743	7.2
673.068	7.31
673.393	6.91
673.718	6.65
674.043	6.98
674.368	7.09
674.693	7.39
675.018	7.16
675.343	6.82
675.667	6.6
675.992	7.66
676.317	7.12
676.641	7.28
676.966	7.5
677.29	7.39
677.615	7.45
677.939	6.94
678.264	7.23
678.588	6.92
678.912	7.49
679.236	7.17
679.56	6.25
679.885	7.01
680.209	6.8
680.532	6.69
680.856	6.6
681.18	7.06
681.504	7.44
681.828	7.55
682.152	7.21
682.475	7.23
682.799	7
683.122	6.85
683.446	6.81
683.769	7.49
684.093	7.06
684.416	7.06
684.739	6.21
685.062	6.88
685.386	6.99
685.709	6.91
686.032	7.46
686.355	7.6
686.678	6.6
687.001	7.2
687.324	7.25
687.646	7.08
687.969	7.79
688.292	7.59
688.614	6.33
688.937	7.4
689.26	7.49
689.582	6.24
689.904	6.62
690.227	7.25
690.549	7.18
690.871	6.7
691.194	7.41
691.516	6.84
691.838	7.13
692.16	7
692.482	6.85
692.804	7.51
693.126	6.34
693.448	7.52
693.769	7.51
694.091	7.68
694.413	7.37
694.735	7.13
695.056	6.62
695.378	6.76
695.699	7.49
696.021	7.3
696.342	7.49
696.663	7.33
696.984	7.52
697.306	7.93
697.627	7.39
697.948	7.3
698.269	6.53
698.59	7.35
698.911	7.64
699.232	6.95
699.553	7.57
699.873	6.83
700.194	7.99
700.515	7.41
700.835	7.59
701.156	7.15
701.477	7.33
701.797	6.86
702.117	6.7
702.438	7.1
702.758	7.11
703.078	7.78
703.398	7.48
703.719	7.44
704.039	7.1
704.359	8.07
704.679	6.75
704.999	6.28
705.319	7.42
705.638	7.24
705.958	7.76
706.278	6.48
706.597	7.74
706.917	7.61
707.237	7.49
707.556	7.04
707.876	6.8
708.195	7.37
708.514	7.93
708.834	7.52
709.153	7.65
709.472	7.86
709.791	9.1
710.11	7.69
710.429	7.69
710.748	7.15
711.067	6.65
711.386	7.05
711.705	8.91
712.023	7.22
712.342	8.25
712.661	6.76
712.979	6.38
713.298	7.14
713.616	6.75
713.935	7.93
714.253	7.35
714.572	7.53
714.89	7.44
715.208	8.24
715.526	8.44
715.844	7.83
716.162	8.46
716.48	8.54
716.798	7.77
717.116	8.06
717.434	7.18
717.752	6.98
718.069	7.39
718.387	6.29
718.705	6.59
719.022	8.1
719.34	8.03
719.657	7.38
719.975	7.2
720.292	7.69
720.609	8.44
720.927	6.85
721.244	8.42
721.561	8.83
721.878	8.35
722.195	7.81
722.512	7.94
722.829	7.94
723.146	7.76
723.463	7.66
723.779	8.38
724.096	8.19
724.413	7.61
724.729	7.89
725.046	9.05
725.362	8.42
725.679	7.78
725.995	8.53
726.311	8.2
726.628	7.83
726.944	8.09
727.26	6.66
727.576	7.14
727.892	8.26
728.208	7.85
728.524	6.34
728.84	7.04
729.156	8.93
729.472	7.36
729.787	8.41
730.103	7.28
730.419	7.18
730.734	6.31
731.05	6.58
731.365	7
731.681	8.15
731.996	7.81
732.311	7.96
732.626	6.93
732.942	7.07
733.257	7.91
733.572	8.11
733.887	7.2
734.202	8.26
734.517	9.45
734.832	9.4
735.146	8.02
735.461	7.63
735.776	8.86
736.091	7.85
736.405	7.71
736.72	7.75
737.034	8.55
737.349	7.56
737.663	7.66
737.977	7.38
738.292	7.6
738.606	7.67
738.92	8.33
739.234	6.85
739.548	8.1
739.862	7.74
740.176	6.61
740.49	7.91
740.804	9.57
741.117	8.05
741.431	8.43
741.745	8.58
742.058	8.87
742.372	8.64
742.685	9.29
742.999	7.2
743.312	7.53
743.626	8.42
743.939	8.95
744.252	6.93
744.565	8.34
744.878	7.31
745.191	9.49
745.505	6.33
745.817	10.1
746.13	7.3
746.443	9.5
746.756	9.61
747.069	6.66
747.381	8.22
747.694	8.05
748.007	8.24
748.319	8.66
748.632	8.13
748.944	7.25
749.256	10.63
749.569	7.57
749.881	9.99
750.193	6.83
750.505	5.62
750.817	9.23
751.129	8.94
751.441	8.31
751.753	8.07
752.065	10.36
752.377	8.99
752.689	9.39
753	7.8
753.312	7.87
753.624	5.29
753.935	7.91
754.247	8.38
754.558	9.26
754.869	9.67
755.181	8.35
755.492	8.82
755.803	7.22
756.114	7.78
756.425	9.37
756.736	9.65
757.047	8.48
757.358	8.92
757.669	7.58
757.98	6.67
758.291	9.46
758.601	9.69
758.912	9.28
759.223	7.01
759.533	9.65
759.844	11.04
760.154	9.03
760.464	9.27
760.775	8.65
761.085	8.61
761.395	9.5
761.705	7.08
762.016	10.02
762.326	10.08
762.636	10.27
762.945	7.36
763.255	8.96
763.565	8.13
763.875	8.29
764.185	9.28
764.494	9.45
764.804	8.98
765.113	8.35
765.423	8.51
765.732	7.8
766.042	7.17
766.351	9.13
766.66	8.24
766.97	7.56
767.279	6.93
767.588	5.88
767.897	8.57
768.206	9.4
768.515	7.67
768.824	8.33
769.133	6.74
769.441	7.63
769.75	9.72
770.059	9.04
770.367	10.58
770.676	12.18
770.984	9.38
771.293	6.35
771.601	8.78
771.91	8.21
772.218	11.53
772.526	7.43
772.834	7.34
773.142	9.24
773.45	8.19
773.758	7.45
774.066	11.48
774.374	7.23
774.682	9.56
774.99	9.02
775.298	6.14
775.605	7.55
775.913	9.62
776.22	8.29
776.528	6.85
776.835	10.48
777.143	7.81
777.45	12.89
777.757	7.33
778.065	10.68
778.372	12.42
778.679	8.85
778.986	9.15
779.293	10.9
779.6	8.09
779.907	7.83
780.214	10.35
780.52	11.74
780.827	10.2
781.134	8.92
781.44	9.5
781.747	9.43
782.053	10.45
782.36	9.71
782.666	6.97
782.973	9.08
783.279	9.33
783.585	9.73
783.891	9.63
784.197	9.3
784.503	10.94
784.809	11.36
785.115	9.6
785.421	10.62
785.727	11.08
786.033	12.37
786.339	10.12
786.644	11.04
786.95	15.19
787.255	11.73
787.561	9.09
787.866	12.23
788.172	16.41
788.477	10.34
788.782	5.25
789.088	13.26
789.393	8.29
789.698	9.67
790.003	8.24
790.308	9.94
790.613	11.94
790.918	10.41
791.223	11.25
791.527	7.95
791.832	12.19
792.137	11.12
792.441	7.19
792.746	10.44
793.05	10.11
793.355	10.81
793.659	11.54
793.963	11.07
794.268	8.36
794.572	10.41
794.876	7.35
795.18	8.98
795.484	5.82
795.788	9.29
796.092	10.48
796.396	8.19
796.7	12.38
797.004	10.39
797.307	12.38
797.611	12.6
797.915	6.59
798.218	7.69
798.522	9.83
798.825	14.57
799.128	9.75
799.432	8.39
799.735	8.49
800.038	9.07
800.341	6.49
800.644	15.01
800.947	5.29
801.25	8.85
801.553	13.86
801.856	10.18
802.159	9.3
802.462	10.73
802.764	6.63
803.067	13.96
803.37	9.15
803.672	9.29
803.975	7.27
804.277	9.72
804.579	7.29
804.882	15.7
805.184	8.09
805.486	12.69
805.788	18.62
806.09	11.58
806.392	11.66
806.694	12.14
806.996	13.08
807.298	10.11
807.6	10.4
807.902	11.03
808.203	13.41
808.505	13.35
808.807	9.77
809.108	7.36
809.409	9.64
809.711	5.32
810.012	12
810.313	9.14
810.615	8.37
810.916	11.11
811.217	12.45
811.518	9.6
811.819	13.43
812.12	14.82
812.421	4.7
812.722	7.66
813.023	11.72
813.323	2.04
813.624	8.85
813.925	13.43
814.225	16.41
814.526	17.57
814.826	11.7
815.126	17.8
815.427	7.61
815.727	15.32
816.027	8.98
816.327	13.79
816.627	12.23
816.927	11.46
817.227	9.84
817.527	5.85
817.827	13.22
818.127	9.76
818.427	14.56
818.727	5.8
819.026	3.48
819.326	10.81
819.625	10.33
819.925	12.51
820.224	14.36
820.524	14.58
820.823	13.7
821.122	11.6
821.421	12.72
821.72	18.66
822.019	3.53
822.318	10.49
822.617	8.6
822.916	8.26
823.215	10.85
823.514	8.26
823.813	9.21
824.111	13.02
824.41	11.48
824.709	12.4
825.007	11.41
825.306	11.13
825.604	10.1
825.902	9.86
826.201	10.41
826.499	10.2
826.797	9.93
827.095	10.48
827.393	9.25
827.691	10.73
827.989	10.37
828.287	10.37
828.585	11.16
828.882	9.51
829.18	7.58
829.478	11.61
829.775	9.62
830.073	10.24
830.37	10
830.668	10.72
830.965	11.38
831.263	10.53
831.56	11.01
831.857	8.61
832.154	11.1
832.451	10.94
832.748	11.34
833.045	6.4
833.342	12.16
833.639	13.76
833.936	12.13
834.232	11.09
834.529	14.12
834.826	8.71
835.122	10.07
835.419	13.61
835.715	12.79
836.012	9.94
836.308	12.48
836.604	13.62
836.901	11.05
837.197	13.02
837.493	15.93
837.789	11.36
838.085	8.04
838.381	11.08
838.677	11.14
838.972	12.44
839.268	14.44
839.564	13.54
839.86	10.9
840.155	16.55
840.451	14.62
840.746	15
841.042	9.18
841.337	8.34
841.632	22.82
841.928	19.86
842.223	23.41
842.518	5.21
842.813	15.12
843.108	16.81
843.403	10.22
843.698	16.79
843.993	17.33
844.287	9.86
844.582	16.25
844.877	15.49
845.171	17.41
845.466	5.98
845.761	15.76
846.055	23.77
846.349	17.68
846.644	9.76
846.938	21.49
847.232	21.66
847.526	23.32
847.82	1.38
848.114	24.51
848.408	32.17
848.702	11.42
848.996	15.17
849.29	14.35
849.584	-0.75
849.877	20.94
850.171	33.52
850.465	6.95
850.758	-1.91
851.052	15.49
851.345	11
851.638	1.24
851.932	18.04
852.225	16.58
852.518	20.78
852.811	30.27
853.104	25.43
853.397	5.69
853.69	8.05
853.983	10.23
854.276	10.74
854.569	33.78
854.861	-3.43
855.154	39.71
855.447	31.41
855.739	24.71
856.032	16.98
856.324	7.15
856.616	-7.63
856.909	18.97
857.201	23.56
857.493	11.29
857.785	11.38
858.077	35.48
858.369	24.62
858.661	7.7
858.953	5.83
859.245	11.83
859.537	26.1
859.829	32.93
860.12	26.03
860.412	35.45
860.703	24.32
860.995	25.23
861.286	-4.66
861.578	21.26
861.869	-5.07
862.16	5.11
862.452	11.38
862.743	25.86
863.034	20.17
863.325	26.31
863.616	-4.89
863.907	7.82
864.198	4.99
864.488	26.68
864.779	23.91
865.07	23.25
865.36	14.8
865.651	34.74
865.941	13.52
866.232	24.48
866.522	25.5
866.813	11.38
867.103	-9.68
867.393	26.92
867.683	30.11
867.973	29.53
868.263	30.23
868.553	24.53
868.843	6.19
869.133	38.99
869.423	20.43
869.713	30.96
870.002	22.93
870.292	22.99
870.582	27.87
870.871	3.55
871.161	2.16
871.45	23.43
871.739	9.13
872.029	9.92
872.318	19.55
872.607	19.45
872.896	25.27
873.185	45.29
873.474	26.49
873.763	9.65
874.052	21.01
874.341	27.79
874.63	15.93
874.918	8.41
875.207	18.81
875.496	23.75
875.784	21.15
876.073	34.15
876.361	17.66
876.649	15.82
876.938	14.36
877.226	24.07
877.514	30.57
877.802	-10.26
878.09	6.64
878.378	40.69
878.666	5.24
878.954	14.48
879.242	22.67
879.53	34.46
879.817	9.66
880.105	-5.34
880.392	44.57
880.68	26.48
880.967	36.09
881.255	28.53
881.542	5.78
881.83	7.8
882.117	48.48
882.404	9.69
882.691	39.8
882.978	34.55
883.265	-1.7
883.552	8.6
883.839	7.84
884.126	15.86
884.413	11.47
884.699	13.48
884.986	17.98
885.273	21.42
885.559	21.42
885.846	21.42
