Data from 0153_forehead_Reflection__4__50.txt Node

Date: Fri Sep 22 20:42:42 CDT 2023
User: ToomeyLab
Spectrometer: FLMS14357
Trigger mode: 0
Integration Time (sec): 1.000000E-2
Scans to average: 100
Electric dark correction enabled: true
Nonlinearity correction enabled: false
Boxcar width: 0
XAxis mode: Wavelengths
Number of Pixels in Spectrum: 2048
>>>>>Begin Spectral Data<<<<<
189.047	-56.56
189.435	-56.56
189.823	-56.56
190.211	-149.32
190.599	183.38
190.987	650.48
191.375	-27.18
191.763	-78.95
192.151	56.03
192.538	-20
192.926	76.02
193.314	84.64
193.702	191.39
194.089	87.86
194.477	-73.71
194.864	226.34
195.252	60.18
195.639	-87.85
196.027	-160.79
196.414	78.27
196.801	-11.03
197.189	32.38
197.576	69.76
197.963	71.84
198.351	20.81
198.738	16.67
199.125	17.03
199.512	73.73
199.899	24.87
200.286	17.4
200.673	41.42
201.06	34.32
201.447	51.67
201.833	35.52
202.22	50.31
202.607	66.25
202.994	48.2
203.38	46.8
203.767	17.42
204.154	33.09
204.54	19.56
204.927	-0.84
205.313	94.25
205.699	66.59
206.086	75.37
206.472	60.93
206.858	31.9
207.245	37.73
207.631	32.03
208.017	48.13
208.403	-9.09
208.789	34.78
209.175	43.26
209.561	38.96
209.947	28.75
210.333	23.25
210.719	23.53
211.105	59.63
211.491	37.82
211.876	31.18
212.262	49.47
212.648	15.57
213.034	18.55
213.419	34.95
213.805	30.51
214.19	17.92
214.576	16.98
214.961	36.65
215.346	25.57
215.732	43.86
216.117	26.04
216.502	56.5
216.888	42.49
217.273	29.57
217.658	30.14
218.043	24.11
218.428	23.61
218.813	-1.06
219.198	31.19
219.583	15.86
219.968	2.47
220.353	40.08
220.738	22.47
221.122	21.45
221.507	4.45
221.892	29.81
222.276	16.67
222.661	3.64
223.046	24.15
223.43	28.68
223.815	9.46
224.199	-3.15
224.583	8.92
224.968	10.51
225.352	7.71
225.736	14.26
226.121	18.46
226.505	15.31
226.889	5.2
227.273	13.32
227.657	6.51
228.041	6.77
228.425	12.83
228.809	5.46
229.193	8.3
229.577	7.83
229.961	5.45
230.344	7.86
230.728	3.82
231.112	4.86
231.495	4.12
231.879	5.1
232.263	4.19
232.646	5.06
233.03	5.19
233.413	5.22
233.797	4.73
234.18	4.21
234.563	5.38
234.946	7.72
235.33	4.84
235.713	4.57
236.096	5.69
236.479	3.74
236.862	6.89
237.245	5.27
237.628	5.93
238.011	5.17
238.394	6.1
238.777	6.58
239.16	5.37
239.543	7.63
239.925	7.25
240.308	5.38
240.691	4.96
241.073	6.58
241.456	3.89
241.838	5.78
242.221	5.13
242.603	5.18
242.986	4.67
243.368	4.78
243.75	5.09
244.133	4.96
244.515	4.59
244.897	4.09
245.279	4.12
245.661	4.77
246.043	5.07
246.425	3.86
246.807	4.86
247.189	3.95
247.571	4.83
247.953	6.1
248.335	4.6
248.717	4.45
249.098	4.46
249.48	4.16
249.862	4.33
250.243	4.22
250.625	4.76
251.006	4.28
251.388	4.31
251.769	5.3
252.151	5.16
252.532	4.83
252.913	5.13
253.295	5.45
253.676	4.89
254.057	5.02
254.438	5.01
254.819	4.15
255.2	4.34
255.581	4.48
255.962	5.29
256.343	4.69
256.724	4.75
257.105	6.09
257.486	4.15
257.867	5.01
258.247	6.04
258.628	5.01
259.009	5.47
259.389	5.26
259.77	4.78
260.15	5.11
260.531	3.46
260.911	4.36
261.292	4.22
261.672	3.86
262.052	4.26
262.432	4.26
262.813	4.38
263.193	4
263.573	4.86
263.953	4.4
264.333	4.23
264.713	4.83
265.093	4.74
265.473	4.29
265.853	3.93
266.233	4.92
266.612	4.62
266.992	4.38
267.372	5.73
267.752	5.13
268.131	4.84
268.511	4.4
268.89	5.13
269.27	4.37
269.649	4.02
270.029	3.88
270.408	4.73
270.787	4.13
271.167	4.86
271.546	3.95
271.925	4.72
272.304	4.15
272.683	4.61
273.062	4.76
273.441	4.23
273.82	4.75
274.199	3.95
274.578	4.57
274.957	4.35
275.336	4.44
275.715	4.11
276.093	4.26
276.472	4.3
276.851	4.33
277.229	3.79
277.608	4.89
277.986	4.24
278.365	4.46
278.743	3.91
279.122	4.09
279.5	5.08
279.878	4.1
280.257	4.34
280.635	4.22
281.013	4.29
281.391	4.05
281.769	4.52
282.147	4.63
282.525	4.07
282.903	4.73
283.281	4.53
283.659	4.67
284.037	3.76
284.415	4.07
284.792	3.78
285.17	4.41
285.548	4.54
285.925	4.33
286.303	4.25
286.68	3.99
287.058	4.34
287.435	4.43
287.813	4.04
288.19	3.96
288.567	4.1
288.945	3.96
289.322	4.04
289.699	4.13
290.076	4.47
290.453	4.11
290.83	3.81
291.207	4.2
291.584	4.23
291.961	4.41
292.338	4.62
292.715	4.7
293.092	4.75
293.469	4.22
293.845	4.5
294.222	4.66
294.599	4.65
294.975	5.02
295.352	4.83
295.728	4.57
296.105	5.03
296.481	4.81
296.858	5.02
297.234	4.81
297.61	4.83
297.986	4.96
298.363	4.67
298.739	4.84
299.115	4.69
299.491	5.06
299.867	4.81
300.243	4.61
300.619	5.13
300.995	5.11
301.371	5.35
301.746	5.09
302.122	5.32
302.498	4.9
302.874	5.05
303.249	4.98
303.625	5.39
304	5.6
304.376	5.73
304.751	5.42
305.127	5.48
305.502	5.46
305.878	5.55
306.253	5.75
306.628	5.9
307.003	5.63
307.378	5.21
307.754	5.65
308.129	5.73
308.504	6.03
308.879	5.91
309.254	5.88
309.629	5.96
310.003	6.47
310.378	6.07
310.753	5.83
311.128	5.86
311.502	6.1
311.877	5.87
312.252	5.9
312.626	6.31
313.001	6.65
313.375	6.47
313.75	6.44
314.124	6.64
314.498	6.19
314.873	6.7
315.247	6.68
315.621	6.61
315.995	6.62
316.369	6.69
316.743	6.66
317.117	7.05
317.491	6.8
317.865	6.07
318.239	6.85
318.613	7.11
318.987	6.83
319.361	6.83
319.734	6.74
320.108	7.35
320.482	7.14
320.855	6.87
321.229	7.5
321.602	7.35
321.976	6.84
322.349	7.61
322.723	7.23
323.096	7.16
323.469	7.46
323.843	7.33
324.216	7.67
324.589	7.42
324.962	7.39
325.335	7.36
325.708	7.55
326.081	7.79
326.454	7.07
326.827	7.65
327.2	7.62
327.573	7.93
327.945	7.72
328.318	8.1
328.691	7.8
329.063	7.8
329.436	8.1
329.809	7.64
330.181	7.82
330.553	7.77
330.926	8.41
331.298	8.34
331.671	8.35
332.043	7.82
332.415	7.98
332.787	8.43
333.159	7.8
333.532	7.81
333.904	8.12
334.276	8.01
334.648	7.67
335.02	7.9
335.391	8.33
335.763	8.2
336.135	8.08
336.507	8.42
336.879	7.88
337.25	8.63
337.622	8.59
337.993	8.25
338.365	8.72
338.736	9.02
339.108	8.59
339.479	8.64
339.851	8.02
340.222	8.22
340.593	8.41
340.964	8.1
341.336	8.42
341.707	8.87
342.078	9.25
342.449	8.91
342.82	8.74
343.191	8.6
343.562	8.66
343.933	9.21
344.303	8.89
344.674	9.31
345.045	9.07
345.416	9.23
345.786	8.76
346.157	9.07
346.527	9.11
346.898	9.37
347.268	8.74
347.639	8.74
348.009	8.86
348.38	9
348.75	9.3
349.12	9.27
349.49	9.64
349.861	9.59
350.231	9.24
350.601	9.15
350.971	9.75
351.341	9.39
351.711	9.49
352.081	9.25
352.45	9.37
352.82	9.89
353.19	9.6
353.56	9.08
353.929	9.82
354.299	10.04
354.669	9.73
355.038	9.37
355.408	9.83
355.777	10.18
356.147	9.92
356.516	10.22
356.885	9.69
357.254	9.63
357.624	9.55
357.993	10.03
358.362	9.84
358.731	9.79
359.1	9.75
359.469	10.1
359.838	9.78
360.207	10.07
360.576	10.32
360.945	9.94
361.314	9.76
361.682	10.06
362.051	10.76
362.42	10.31
362.788	9.88
363.157	10.37
363.525	10.12
363.894	10.17
364.262	10.14
364.631	10.19
364.999	10.28
365.367	10.39
365.735	10.29
366.104	10.25
366.472	10.95
366.84	10.29
367.208	10.86
367.576	10.54
367.944	10.57
368.312	10.86
368.68	11.01
369.048	10.61
369.416	10.9
369.783	10.48
370.151	10.6
370.519	10.61
370.886	10.59
371.254	11.1
371.621	10.84
371.989	11.24
372.356	10.89
372.724	11.06
373.091	11.05
373.458	10.95
373.826	11.1
374.193	11.13
374.56	11.07
374.927	11.04
375.294	11.1
375.661	11.15
376.028	11.58
376.395	11.63
376.762	11.21
377.129	11.54
377.496	11.51
377.863	11.39
378.229	11.25
378.596	11.43
378.963	11.88
379.329	11.57
379.696	11.52
380.062	11.45
380.429	11.47
380.795	11.57
381.161	11.59
381.528	11.74
381.894	11.68
382.26	11.74
382.626	11.8
382.993	11.97
383.359	11.6
383.725	11.81
384.091	11.88
384.457	11.74
384.823	11.74
385.188	12.18
385.554	11.9
385.92	12.3
386.286	12.08
386.651	12.02
387.017	12.25
387.383	12.06
387.748	12.32
388.114	12.09
388.479	12.25
388.845	11.91
389.21	12.21
389.575	12.51
389.94	12.08
390.306	12.25
390.671	12.64
391.036	12.3
391.401	12.38
391.766	12.27
392.131	12.64
392.496	12.46
392.861	12.49
393.226	12.84
393.591	12.57
393.956	12.7
394.32	12.49
394.685	12.56
395.05	12.78
395.414	12.68
395.779	12.71
396.143	12.63
396.508	12.63
396.872	12.81
397.236	12.92
397.601	12.73
397.965	12.99
398.329	13.01
398.694	13
399.058	13.08
399.422	12.94
399.786	13
400.15	13.11
400.514	13.31
400.878	13.02
401.242	13.35
401.605	13.08
401.969	13.2
402.333	13.28
402.697	13.13
403.06	13.27
403.424	13.22
403.787	13.22
404.151	13.26
404.514	13.33
404.878	13.63
405.241	13.67
405.604	13.49
405.968	13.36
406.331	13.45
406.694	13.46
407.057	13.33
407.42	13.43
407.783	13.53
408.146	13.52
408.509	13.41
408.872	13.41
409.235	13.7
409.598	13.49
409.961	14.03
410.323	14
410.686	13.78
411.049	13.92
411.411	13.93
411.774	13.94
412.136	13.68
412.499	13.7
412.861	13.79
413.223	14
413.586	13.63
413.948	14.04
414.31	13.9
414.672	13.84
415.035	14.08
415.397	14.38
415.759	14.2
416.121	13.92
416.483	13.91
416.845	14.04
417.206	14.07
417.568	14.07
417.93	14.1
418.292	14.27
418.653	14.03
419.015	14.11
419.377	14.19
419.738	14.1
420.1	14.22
420.461	14.22
420.822	14.34
421.184	13.98
421.545	14.18
421.906	14.29
422.267	14.2
422.629	14.33
422.99	14.22
423.351	14.1
423.712	14.32
424.073	14.33
424.434	14.45
424.795	14.47
425.155	14.58
425.516	14.56
425.877	14.5
426.238	14.42
426.598	14.52
426.959	14.68
427.32	14.65
427.68	14.81
428.041	14.74
428.401	14.89
428.761	14.98
429.122	15.05
429.482	15.2
429.842	15.11
430.202	15.33
430.563	15.22
430.923	15.29
431.283	15.31
431.643	15.23
432.003	15.43
432.363	15.53
432.722	15.66
433.082	15.66
433.442	15.56
433.802	15.55
434.161	15.49
434.521	15.76
434.881	15.79
435.24	15.71
435.6	15.64
435.959	15.58
436.319	15.63
436.678	15.91
437.037	15.96
437.396	15.82
437.756	15.81
438.115	15.93
438.474	16.19
438.833	15.98
439.192	15.96
439.551	16.06
439.91	16.16
440.269	16.21
440.628	16.23
440.987	16.12
441.345	16.28
441.704	16.26
442.063	16.17
442.421	16.18
442.78	16.21
443.138	16.21
443.497	16.23
443.855	16.32
444.214	16.32
444.572	16.48
444.93	16.47
445.288	16.4
445.647	16.64
446.005	16.71
446.363	16.68
446.721	16.63
447.079	16.69
447.437	16.75
447.795	16.61
448.153	16.59
448.51	16.54
448.868	16.6
449.226	16.64
449.584	16.64
449.941	16.64
450.299	16.82
450.656	16.96
451.014	17.06
451.371	17.08
451.729	17.03
452.086	17.09
452.443	17.34
452.801	17.33
453.158	17.26
453.515	17.35
453.872	17.46
454.229	17.51
454.586	17.25
454.943	17.44
455.3	17.38
455.657	17.56
456.014	17.66
456.371	17.69
456.727	17.82
457.084	17.62
457.441	17.69
457.797	17.95
458.154	17.95
458.51	17.69
458.867	17.85
459.223	17.85
459.58	18.01
459.936	18.05
460.292	17.97
460.648	17.96
461.005	17.85
461.361	17.91
461.717	17.89
462.073	17.8
462.429	17.7
462.785	17.8
463.141	17.83
463.496	18.03
463.852	18.15
464.208	18.32
464.564	18.36
464.919	18.38
465.275	18.52
465.631	18.67
465.986	18.66
466.342	18.57
466.697	18.61
467.052	18.49
467.408	18.75
467.763	18.82
468.118	18.96
468.473	18.75
468.829	18.68
469.184	18.75
469.539	18.98
469.894	18.97
470.249	18.79
470.603	18.96
470.958	19.03
471.313	19.18
471.668	18.89
472.023	19.17
472.377	19.19
472.732	19.08
473.086	19.5
473.441	19.03
473.795	19.58
474.15	19.18
474.504	19.22
474.859	19.51
475.213	19.37
475.567	19.41
475.921	19.36
476.275	19.49
476.63	19.46
476.984	19.49
477.338	19.84
477.692	19.54
478.045	19.88
478.399	19.83
478.753	19.59
479.107	19.67
479.461	19.64
479.814	19.72
480.168	19.73
480.521	19.73
480.875	19.91
481.228	19.95
481.582	19.87
481.935	20.07
482.289	20.07
482.642	19.79
482.995	20.06
483.348	19.89
483.701	19.77
484.055	19.91
484.408	19.68
484.761	19.72
485.114	19.56
485.466	19.42
485.819	19.18
486.172	19.19
486.525	19.3
486.878	19.44
487.23	19.48
487.583	19.69
487.936	19.8
488.288	19.85
488.641	19.92
488.993	19.82
489.345	19.75
489.698	19.67
490.05	19.68
490.402	19.83
490.754	19.81
491.107	19.91
491.459	20.18
491.811	20.19
492.163	20.36
492.515	20.48
492.866	20.42
493.218	20.42
493.57	20.26
493.922	20.14
494.274	20.2
494.625	20.42
494.977	20.49
495.328	20.77
495.68	20.84
496.031	20.94
496.383	21.2
496.734	21.23
497.086	21.27
497.437	21.32
497.788	21.38
498.139	21.4
498.49	21.35
498.842	21.3
499.193	21.27
499.544	21.31
499.894	21.19
500.245	21.4
500.596	21.48
500.947	21.42
501.298	21.45
501.648	21.82
501.999	21.63
502.35	21.94
502.7	21.86
503.051	21.94
503.401	22.03
503.752	22.06
504.102	21.98
504.452	22.03
504.803	21.96
505.153	22.03
505.503	22.07
505.853	22.12
506.203	22.01
506.553	22.24
506.903	22.28
507.253	22.09
507.603	22.42
507.953	22.48
508.303	22.5
508.652	22.39
509.002	22.6
509.352	22.27
509.701	22.59
510.051	22.39
510.4	22.41
510.75	22.51
511.099	22.45
511.449	22.66
511.798	22.43
512.147	22.64
512.496	22.56
512.846	22.57
513.195	22.76
513.544	22.74
513.893	22.68
514.242	22.77
514.591	22.77
514.939	22.97
515.288	22.89
515.637	23.07
515.986	22.89
516.334	23.18
516.683	23.2
517.032	23.34
517.38	23.21
517.729	23.19
518.077	23.34
518.426	23.32
518.774	23.56
519.122	23.3
519.47	23.25
519.819	23.21
520.167	23.19
520.515	23.28
520.863	23.06
521.211	23.17
521.559	23.26
521.907	23.42
522.255	23.47
522.602	23.45
522.95	23.55
523.298	23.81
523.645	23.8
523.993	23.73
524.341	23.72
524.688	23.83
525.036	23.91
525.383	23.78
525.73	24.13
526.078	23.94
526.425	24
526.772	24.08
527.119	23.88
527.466	23.79
527.814	23.75
528.161	23.74
528.508	23.91
528.854	23.88
529.201	23.92
529.548	23.94
529.895	23.7
530.242	23.6
530.588	23.44
530.935	23.5
531.282	23.66
531.628	23.69
531.975	23.65
532.321	23.83
532.667	24.03
533.014	24.23
533.36	24.35
533.706	24.41
534.052	24.41
534.399	24.47
534.745	24.41
535.091	24.24
535.437	24.17
535.783	24.12
536.129	24.28
536.474	24.4
536.82	24.55
537.166	24.82
537.512	24.85
537.857	24.94
538.203	24.97
538.549	24.71
538.894	24.84
539.239	24.89
539.585	24.87
539.93	25.01
540.276	25
540.621	25.19
540.966	25.42
541.311	25.65
541.656	25.39
542.001	25.56
542.346	25.43
542.691	25.28
543.036	25.02
543.381	25.02
543.726	24.95
544.071	25.05
544.415	25.12
544.76	25.12
545.105	25.28
545.449	25.27
545.794	25.59
546.138	25.6
546.483	25.87
546.827	25.87
547.171	25.82
547.516	25.95
547.86	26
548.204	26.03
548.548	25.93
548.892	25.89
549.236	25.91
549.58	26.1
549.924	26.12
550.268	26.37
550.612	26.58
550.956	26.57
551.3	26.77
551.643	26.74
551.987	26.73
552.33	26.94
552.674	26.84
553.017	26.79
553.361	27.13
553.704	27.04
554.048	27.11
554.391	26.91
554.734	26.99
555.077	26.99
555.42	26.96
555.764	27.12
556.107	27.1
556.45	27.08
556.793	27.05
557.135	27.3
557.478	27.49
557.821	27.32
558.164	27.42
558.507	27.73
558.849	27.67
559.192	27.51
559.534	27.48
559.877	27.64
560.219	27.66
560.562	27.94
560.904	28.11
561.246	27.91
561.589	27.92
561.931	27.86
562.273	27.89
562.615	28.16
562.957	27.96
563.299	28.08
563.641	28.1
563.983	28.03
564.325	27.96
564.667	28.17
565.008	28.08
565.35	28.28
565.692	28.26
566.033	28.43
566.375	28.37
566.716	28.39
567.058	28.3
567.399	28.39
567.741	28.53
568.082	28.23
568.423	28.4
568.764	28.51
569.105	28.41
569.447	28.29
569.788	28.27
570.129	28.65
570.47	28.6
570.811	28.58
571.151	28.86
571.492	28.83
571.833	28.58
572.174	28.84
572.514	28.84
572.855	28.95
573.195	28.8
573.536	28.84
573.876	28.92
574.217	28.96
574.557	28.92
574.898	29.08
575.238	29.14
575.578	28.95
575.918	29.03
576.258	29.09
576.598	29.35
576.938	29.25
577.278	29.36
577.618	29.13
577.958	29.25
578.298	29.48
578.638	29.25
578.977	29.68
579.317	29.68
579.657	29.63
579.996	29.85
580.336	29.83
580.675	29.75
581.014	29.91
581.354	29.85
581.693	30.16
582.032	30.06
582.372	30.03
582.711	30.18
583.05	30.22
583.389	30.32
583.728	30.29
584.067	30.35
584.406	30.38
584.745	30.17
585.083	30.59
585.422	30.43
585.761	30.26
586.1	30.57
586.438	30.52
586.777	30.93
587.115	30.71
587.454	30.51
587.792	30.75
588.13	30.8
588.469	30.6
588.807	30.74
589.145	30.95
589.483	30.78
589.821	30.65
590.159	31.05
590.497	31.1
590.835	30.97
591.173	30.55
591.511	30.92
591.849	31.36
592.187	30.84
592.524	31.01
592.862	30.95
593.2	31.22
593.537	31.32
593.875	31.22
594.212	31.23
594.55	31.64
594.887	31.44
595.224	31.33
595.561	31.65
595.899	31.67
596.236	31.71
596.573	31.55
596.91	31.82
597.247	31.41
597.584	31.66
597.921	31.62
598.258	31.64
598.594	31.76
598.931	31.31
599.268	31.53
599.604	31.57
599.941	31.66
600.277	31.65
600.614	31.87
600.95	31.69
601.287	31.78
601.623	31.84
601.959	32.23
602.296	32.1
602.632	32.32
602.968	32.43
603.304	32.25
603.64	32.46
603.976	32.29
604.312	32.13
604.648	32.22
604.984	32.1
605.319	32.26
605.655	32.09
605.991	32.25
606.326	32.3
606.662	32.24
606.998	32.24
607.333	32.25
607.668	32.1
608.004	32.26
608.339	32.59
608.674	32.34
609.01	32.75
609.345	32.49
609.68	32.88
610.015	32.8
610.35	32.85
610.685	33.29
611.02	32.81
611.355	32.83
611.689	33.07
612.024	32.73
612.359	32.58
612.694	32.86
613.028	32.68
613.363	32.79
613.697	32.91
614.032	33.36
614.366	33.36
614.7	33.29
615.035	33.47
615.369	33.25
615.703	33.38
616.037	33.69
616.371	33.44
616.705	33.78
617.039	33.37
617.373	33.35
617.707	33.54
618.041	33.8
618.375	33.85
618.709	33.71
619.042	33.82
619.376	33.84
619.71	33.65
620.043	33.84
620.377	34
620.71	33.76
621.043	34.21
621.377	33.85
621.71	34.13
622.043	33.98
622.376	34.23
622.709	34.07
623.043	34.28
623.376	34.4
623.709	34.21
624.041	34.53
624.374	34.43
624.707	34.36
625.04	34.47
625.373	34.33
625.705	34.14
626.038	34.03
626.37	34.57
626.703	34.43
627.035	34.36
627.368	34.55
627.7	34.8
628.032	34.45
628.365	34.4
628.697	34.59
629.029	34.56
629.361	34.55
629.693	34.6
630.025	34.74
630.357	34.86
630.689	34.84
631.021	34.78
631.353	34.96
631.684	34.8
632.016	34.95
632.348	35.29
632.679	35.21
633.011	35.36
633.342	35.2
633.674	35.19
634.005	35.3
634.336	34.88
634.668	35.19
634.999	35.28
635.33	35.49
635.661	35.43
635.992	35.18
636.323	35.38
636.654	35.34
636.985	35.27
637.316	35.33
637.647	35.49
637.977	35.04
638.308	35.67
638.639	35.6
638.969	35.58
639.3	35.69
639.63	36.16
639.961	35.61
640.291	35.87
640.622	35.68
640.952	35.97
641.282	35.63
641.612	35.58
641.943	35.98
642.273	36.04
642.603	36.05
642.933	35.94
643.263	35.81
643.592	36.11
643.922	36.4
644.252	35.82
644.582	36.32
644.911	36.35
645.241	36.2
645.571	36.16
645.9	36.17
646.23	36.3
646.559	36.41
646.888	36.2
647.218	35.85
647.547	36.44
647.876	36.43
648.205	36.83
648.534	36.94
648.863	36.59
649.192	36.32
649.521	36.4
649.85	37.06
650.179	36.26
650.508	36.48
650.837	36.97
651.165	36.95
651.494	36.76
651.822	36.99
652.151	36.75
652.479	36.91
652.808	37.02
653.136	37.17
653.465	36.61
653.793	36.39
654.121	36.63
654.449	36.74
654.777	36.99
655.105	37.05
655.433	36.96
655.761	37.15
656.089	36.95
656.417	37.03
656.745	37.18
657.073	37.11
657.4	37.9
657.728	37.09
658.056	37.13
658.383	37.35
658.711	36.91
659.038	37.23
659.365	37.37
659.693	37.04
660.02	37.39
660.347	37.12
660.674	37.25
661.001	36.77
661.329	37.21
661.656	37.81
661.982	37.48
662.309	37.68
662.636	37.91
662.963	37.57
663.29	37.94
663.616	37.4
663.943	37.76
664.27	37.55
664.596	37.62
664.923	37.19
665.249	38.03
665.576	37.66
665.902	37.62
666.228	37.59
666.554	37.65
666.881	38.26
667.207	38.08
667.533	37.69
667.859	37.84
668.185	37.96
668.511	38.05
668.837	37.73
669.162	37.79
669.488	38.24
669.814	38.32
670.139	37.91
670.465	38.83
670.791	38.29
671.116	38.17
671.442	38.49
671.767	38.03
672.092	38.31
672.418	38.5
672.743	38.51
673.068	38.24
673.393	38.26
673.718	37.59
674.043	39.18
674.368	38.48
674.693	38.77
675.018	38.68
675.343	39.41
675.667	38.73
675.992	38.22
676.317	38.76
676.641	38.4
676.966	39.34
677.29	38.11
677.615	39.23
677.939	39.3
678.264	39.56
678.588	39.03
678.912	39.09
679.236	38.63
679.56	39.12
679.885	39.52
680.209	38.96
680.532	38.79
680.856	39.43
681.18	38.96
681.504	38.91
681.828	38.89
682.152	39.16
682.475	39.46
682.799	39.61
683.122	38.98
683.446	39.03
683.769	39.05
684.093	39.59
684.416	39.41
684.739	39.42
685.062	40.08
685.386	39.04
685.709	40.02
686.032	39.43
686.355	39.06
686.678	40
687.001	39.8
687.324	40.04
687.646	39.17
687.969	40.09
688.292	39.54
688.614	39.88
688.937	39.68
689.26	39.48
689.582	39.6
689.904	39.14
690.227	39.32
690.549	40.5
690.871	38.95
691.194	39.95
691.516	40.06
691.838	39.66
692.16	39.98
692.482	39.44
692.804	39.86
693.126	39.01
693.448	40.8
693.769	39.97
694.091	40.2
694.413	39.73
694.735	40.38
695.056	40.85
695.378	40.22
695.699	40.17
696.021	40.35
696.342	40.37
696.663	40.13
696.984	40.25
697.306	39.98
697.627	40.67
697.948	40.37
698.269	40.4
698.59	39.67
698.911	40.15
699.232	40.15
699.553	40.64
699.873	40.62
700.194	39.96
700.515	39.19
700.835	40.07
701.156	40.24
701.477	40.57
701.797	40.67
702.117	40.47
702.438	40.53
702.758	40.32
703.078	40.79
703.398	40.7
703.719	39.79
704.039	40.71
704.359	40.67
704.679	40.24
704.999	40.96
705.319	39.56
705.638	40.59
705.958	40.98
706.278	41.55
706.597	41.59
706.917	41.68
707.237	40.49
707.556	40.63
707.876	40.87
708.195	41.19
708.514	41.31
708.834	40.68
709.153	41.36
709.472	41.11
709.791	40.98
710.11	41.53
710.429	40.81
710.748	41.52
711.067	41.67
711.386	41.45
711.705	41.01
712.023	43.07
712.342	40.72
712.661	41.35
712.979	41.03
713.298	42
713.616	40.37
713.935	41.36
714.253	42.08
714.572	42.14
714.89	40.91
715.208	41.82
715.526	39.96
715.844	41.3
716.162	41.09
716.48	41.59
716.798	40.75
717.116	41.65
717.434	41.47
717.752	42.04
718.069	41.54
718.387	41.77
718.705	40.83
719.022	42.1
719.34	41.68
719.657	41.34
719.975	41.86
720.292	41.77
720.609	43.15
720.927	42.02
721.244	42.68
721.561	42.5
721.878	43.48
722.195	42.65
722.512	42.95
722.829	43.84
723.146	42.57
723.463	41.51
723.779	43.25
724.096	41.75
724.413	43.17
724.729	42.83
725.046	42.66
725.362	42.21
725.679	42.79
725.995	43.53
726.311	40.51
726.628	41.55
726.944	41.46
727.26	43.63
727.576	43.25
727.892	41.32
728.208	43.03
728.524	43.8
728.84	42.18
729.156	43.23
729.472	44.35
729.787	43.12
730.103	42.63
730.419	42.37
730.734	43.64
731.05	41.45
731.365	41.8
731.681	43.52
731.996	43.7
732.311	42.34
732.626	41.96
732.942	43.09
733.257	42.16
733.572	43.01
733.887	44.04
734.202	43.81
734.517	43.15
734.832	41.97
735.146	42.31
735.461	42.67
735.776	42.98
736.091	42.96
736.405	43.06
736.72	43.34
737.034	42.92
737.349	42.88
737.663	42.68
737.977	43.79
738.292	43.57
738.606	42.76
738.92	43.63
739.234	42.77
739.548	43.79
739.862	42.1
740.176	43.21
740.49	42.31
740.804	43.52
741.117	41.83
741.431	44.46
741.745	43.78
742.058	42.65
742.372	41.91
742.685	43.33
742.999	44.89
743.312	44.39
743.626	41.56
743.939	43.02
744.252	43
744.565	43.26
744.878	43.54
745.191	44.1
745.505	42.41
745.817	43.23
746.13	45.08
746.443	42.86
746.756	43.46
747.069	44.34
747.381	42.06
747.694	42.96
748.007	43.92
748.319	42.66
748.632	43.24
748.944	44.64
749.256	45.33
749.569	43.74
749.881	44.94
750.193	44.64
750.505	43.66
750.817	43.92
751.129	45.85
751.441	45.39
751.753	45.46
752.065	44.94
752.377	44.81
752.689	43.01
753	43.6
753.312	45.07
753.624	43.31
753.935	45.74
754.247	44.59
754.558	43.92
754.869	43.72
755.181	44.02
755.492	43.54
755.803	46.79
756.114	45.44
756.425	45.55
756.736	43.44
757.047	45.14
757.358	44.71
757.669	42.14
757.98	44.14
758.291	44.85
758.601	46.92
758.912	45.12
759.223	46.57
759.533	44.7
759.844	45.37
760.154	44.56
760.464	43.68
760.775	44.51
761.085	44.32
761.395	44.98
761.705	45.35
762.016	44.68
762.326	43.95
762.636	45.05
762.945	45.4
763.255	44.85
763.565	45.61
763.875	44.88
764.185	45.14
764.494	46.72
764.804	43.02
765.113	45.28
765.423	45.33
765.732	44.15
766.042	45.15
766.351	44.39
766.66	45.24
766.97	45.28
767.279	45.57
767.588	44.51
767.897	44.51
768.206	45.49
768.515	43.35
768.824	45.3
769.133	45.36
769.441	45.67
769.75	45.4
770.059	44.59
770.367	44.82
770.676	44.46
770.984	43.16
771.293	45.18
771.601	46.4
771.91	46.86
772.218	44.22
772.526	44.44
772.834	44.76
773.142	43.79
773.45	47.16
773.758	44.39
774.066	46.78
774.374	43.36
774.682	44.54
774.99	43.43
775.298	45.61
775.605	43.74
775.913	49.15
776.22	45.17
776.528	48.55
776.835	45.36
777.143	47.02
777.45	47.11
777.757	45.45
778.065	44.38
778.372	48.39
778.679	48.25
778.986	45.52
779.293	42.51
779.6	45.92
779.907	46.92
780.214	49.52
780.52	45.45
780.827	46.54
781.134	46.81
781.44	44.68
781.747	43.77
782.053	47.11
782.36	47.17
782.666	51.49
782.973	46.53
783.279	43.35
783.585	46.43
783.891	49.79
784.197	50.63
784.503	43.86
784.809	49.57
785.115	44.52
785.421	44.58
785.727	42.55
786.033	45.98
786.339	44.07
786.644	48.36
786.95	42.65
787.255	47.17
787.561	45.47
787.866	44.77
788.172	45.63
788.477	44.62
788.782	42.95
789.088	45.27
789.393	45.64
789.698	43.81
790.003	45.94
790.308	46.26
790.613	48.93
790.918	46.89
791.223	43.54
791.527	47.52
791.832	45.44
792.137	45.22
792.441	46.11
792.746	50.16
793.05	46.21
793.355	48.85
793.659	45.15
793.963	47.83
794.268	45.73
794.572	48.5
794.876	45.09
795.18	47.23
795.484	43.27
795.788	45.4
796.092	45.55
796.396	46.08
796.7	44.78
797.004	44.94
797.307	42.79
797.611	50.99
797.915	48.1
798.218	47.75
798.522	47.06
798.825	48.84
799.128	46.69
799.432	44.69
799.735	45.28
800.038	45.52
800.341	47.06
800.644	46.95
800.947	47.67
801.25	48.4
801.553	51.51
801.856	50.02
802.159	47.7
802.462	46.78
802.764	45.65
803.067	45.09
803.37	46.36
803.672	47.57
803.975	45.01
804.277	51.77
804.579	50.99
804.882	48.73
805.184	44.37
805.486	46.99
805.788	51.55
806.09	43.69
806.392	45.12
806.694	43.06
806.996	45.15
807.298	43.36
807.6	50.15
807.902	46.76
808.203	45.88
808.505	51.94
808.807	47.52
809.108	46.21
809.409	49.03
809.711	44.87
810.012	46.66
810.313	44.2
810.615	48.72
810.916	44.9
811.217	47.11
811.518	46.27
811.819	48.61
812.12	49.73
812.421	42.56
812.722	52.23
813.023	47.28
813.323	48.8
813.624	44.02
813.925	53.85
814.225	58.79
814.526	51.12
814.826	46.83
815.126	50.62
815.427	46.91
815.727	47.53
816.027	49.06
816.327	46.85
816.627	50.79
816.927	50.72
817.227	45.84
817.527	53.19
817.827	41.97
818.127	50.95
818.427	52.41
818.727	48.69
819.026	45.98
819.326	46.46
819.625	47.34
819.925	49.7
820.224	48.2
820.524	51.14
820.823	53.15
821.122	53
821.421	50.25
821.72	46.17
822.019	45.6
822.318	49.58
822.617	46.94
822.916	49.77
823.215	50.11
823.514	49.83
823.813	54.98
824.111	47.92
824.41	47.54
824.709	49.5
825.007	47.58
825.306	47.8
825.604	47.19
825.902	48.56
826.201	47.84
826.499	47.8
826.797	48.27
827.095	47.07
827.393	47.53
827.691	48.31
827.989	47.46
828.287	47.46
828.585	47.85
828.882	51.41
829.18	51.27
829.478	49.2
829.775	48.62
830.073	48.72
830.37	47.3
830.668	47.77
830.965	50.59
831.263	47.74
831.56	48.83
831.857	46.1
832.154	48.04
832.451	48.64
832.748	47.8
833.045	46.92
833.342	49.85
833.639	47.14
833.936	47.61
834.232	53.39
834.529	49.98
834.826	50.27
835.122	51.93
835.419	47.27
835.715	46.82
836.012	47
836.308	53.13
836.604	51.29
836.901	51.84
837.197	49.56
837.493	49.34
837.789	49.04
838.085	49.65
838.381	49.96
838.677	48.51
838.972	52.3
839.268	47.19
839.564	51.63
839.86	50.58
840.155	49.81
840.451	55.3
840.746	45.4
841.042	54.24
841.337	48.1
841.632	51.71
841.928	48.94
842.223	47.7
842.518	55.13
842.813	53.74
843.108	49.02
843.403	49.33
843.698	51.22
843.993	44.44
844.287	51.7
844.582	50.99
844.877	48.16
845.171	54.34
845.466	53.52
845.761	46.82
846.055	51.7
846.349	53.48
846.644	51.09
846.938	60.82
847.232	49.66
847.526	44.63
847.82	66.51
848.114	44.95
848.408	71.09
848.702	46.51
848.996	44.47
849.29	66.44
849.584	53.66
849.877	58.83
850.171	57.39
850.465	48.64
850.758	71.48
851.052	46.03
851.345	60.51
851.638	50.54
851.932	58.21
852.225	67.84
852.518	56.06
852.811	71.11
853.104	64.02
853.397	56.88
853.69	57.7
853.983	46.34
854.276	56.74
854.569	55.91
854.861	68.36
855.154	71.16
855.447	51.48
855.739	51.25
856.032	52.32
856.324	51.89
856.616	58.93
856.909	53.5
857.201	47.65
857.493	60.72
857.785	68.8
858.077	65.86
858.369	51.99
858.661	73.11
858.953	54.19
859.245	82.85
859.537	43.45
859.829	57.37
860.12	75.31
860.412	56.38
860.703	40.01
860.995	46.1
861.286	54.05
861.578	73.99
861.869	67.89
862.16	62.56
862.452	62.9
862.743	60.43
863.034	54.63
863.325	63.09
863.616	58.12
863.907	85.89
864.198	81.17
864.488	65.86
864.779	52.48
865.07	46.43
865.36	59.28
865.651	45.24
865.941	35.72
866.232	47.27
866.522	54.7
866.813	62.22
867.103	47.96
867.393	62.09
867.683	53.03
867.973	54.74
868.263	70.27
868.553	70.95
868.843	44.21
869.133	63.8
869.423	71.12
869.713	50.98
870.002	65.14
870.292	51.74
870.582	52.62
870.871	69.74
871.161	52.45
871.45	54.16
871.739	75.33
872.029	61.57
872.318	49.91
872.607	46.57
872.896	45.44
873.185	52.36
873.474	66.45
873.763	39.15
874.052	30.32
874.341	53.3
874.63	79.31
874.918	41.74
875.207	67.67
875.496	42.24
875.784	45.02
876.073	52.67
876.361	66.01
876.649	37.87
876.938	79.32
877.226	65.45
877.514	73.72
877.802	63.91
878.09	52.03
878.378	82.18
878.666	64.13
878.954	44.6
879.242	74.67
879.53	77.48
879.817	67.53
880.105	38.22
880.392	44.08
880.68	60.65
880.967	87.51
881.255	31.05
881.542	67.57
881.83	76.02
882.117	71.91
882.404	80.78
882.691	65.28
882.978	40.7
883.265	46.43
883.552	68.34
883.839	44.92
884.126	62.06
884.413	42.22
884.699	67.33
884.986	53.41
885.273	42.06
885.559	42.06
885.846	42.06
