Data from 0153_forehead_Reflection__3__49.txt Node

Date: Fri Sep 22 20:42:32 CDT 2023
User: ToomeyLab
Spectrometer: FLMS14357
Trigger mode: 0
Integration Time (sec): 1.000000E-2
Scans to average: 100
Electric dark correction enabled: true
Nonlinearity correction enabled: false
Boxcar width: 0
XAxis mode: Wavelengths
Number of Pixels in Spectrum: 2048
>>>>>Begin Spectral Data<<<<<
189.047	-148.05
189.435	-148.05
189.823	-148.05
190.211	-45.4
190.599	286.45
190.987	1188.57
191.375	480.8
191.763	-71.86
192.151	175.87
192.538	111.55
192.926	149.47
193.314	41.15
193.702	1.28
194.089	133.68
194.477	13.94
194.864	126.16
195.252	131.2
195.639	66.59
196.027	328.99
196.414	108.02
196.801	150.41
197.189	96.48
197.576	148.35
197.963	-24.58
198.351	33.7
198.738	106.01
199.125	61.72
199.512	8.15
199.899	52.54
200.286	58.33
200.673	5.35
201.06	48.46
201.447	30.67
201.833	2.19
202.22	41.93
202.607	40.99
202.994	33.82
203.38	33.79
203.767	9.04
204.154	61.25
204.54	38.29
204.927	17.54
205.313	15.77
205.699	80.64
206.086	39.45
206.472	48.93
206.858	6.09
207.245	-0.23
207.631	39.21
208.017	5.92
208.403	52.54
208.789	31.28
209.175	50.78
209.561	55.32
209.947	34.72
210.333	59.08
210.719	28.96
211.105	72.63
211.491	27.14
211.876	38.88
212.262	38.19
212.648	18.12
213.034	29.13
213.419	29.63
213.805	20.61
214.19	19.15
214.576	54.7
214.961	44.48
215.346	41.82
215.732	43.62
216.117	24.79
216.502	47.39
216.888	24.67
217.273	17.59
217.658	30.2
218.043	43.04
218.428	33.27
218.813	1.38
219.198	34.71
219.583	8.5
219.968	18.1
220.353	37.83
220.738	7.62
221.122	10.83
221.507	0.83
221.892	19.47
222.276	28.37
222.661	14.73
223.046	23.05
223.43	32.55
223.815	19.97
224.199	4.81
224.583	15.07
224.968	16.74
225.352	9.99
225.736	11.02
226.121	21.86
226.505	17.07
226.889	11.38
227.273	11.12
227.657	17.52
228.041	6.78
228.425	14.69
228.809	7.34
229.193	8.82
229.577	10.97
229.961	6.48
230.344	8.41
230.728	4.75
231.112	6.71
231.495	4.64
231.879	4.78
232.263	3.96
232.646	7.01
233.03	4.85
233.413	6.04
233.797	5.97
234.18	5.93
234.563	8.68
234.946	7.57
235.33	2.5
235.713	5.46
236.096	6.03
236.479	5.52
236.862	8.42
237.245	6.45
237.628	7.21
238.011	5.96
238.394	6.03
238.777	8.17
239.16	7.21
239.543	8.12
239.925	6.84
240.308	6.82
240.691	7.33
241.073	7.33
241.456	6.21
241.838	5.59
242.221	5.49
242.603	5.37
242.986	5.12
243.368	5.36
243.75	5.37
244.133	5.45
244.515	4.81
244.897	4.28
245.279	4.61
245.661	4.86
246.043	5.41
246.425	4.37
246.807	5.58
247.189	4.87
247.571	5.04
247.953	4.87
248.335	5
248.717	4.86
249.098	4.93
249.48	4.46
249.862	4.54
250.243	4.74
250.625	4.81
251.006	4.53
251.388	5.04
251.769	5.75
252.151	4.73
252.532	5.6
252.913	5.51
253.295	5.73
253.676	4.86
254.057	4.97
254.438	5.33
254.819	4.64
255.2	5.18
255.581	5.32
255.962	5.68
256.343	5.64
256.724	5.12
257.105	5.13
257.486	5.01
257.867	5.85
258.247	6.12
258.628	6.28
259.009	5.12
259.389	4.98
259.77	5.64
260.15	5.67
260.531	4.89
260.911	5.19
261.292	4.73
261.672	4.33
262.052	4.72
262.432	4.73
262.813	4.9
263.193	4.52
263.573	5.85
263.953	4.51
264.333	5.13
264.713	5.13
265.093	4.77
265.473	5.02
265.853	4.76
266.233	5.66
266.612	5.68
266.992	5.62
267.372	5.21
267.752	5.56
268.131	5.26
268.511	4.7
268.89	4.9
269.27	5.07
269.649	5.04
270.029	5.26
270.408	4.62
270.787	5.13
271.167	4.98
271.546	4.27
271.925	4.87
272.304	5.5
272.683	5.34
273.062	5.28
273.441	5
273.82	5.43
274.199	5.1
274.578	5.09
274.957	4.83
275.336	4.6
275.715	4.8
276.093	4.23
276.472	4.24
276.851	5
277.229	4.68
277.608	5.16
277.986	4.23
278.365	5.09
278.743	4.95
279.122	4.86
279.5	5.54
279.878	4.08
280.257	5.47
280.635	4.98
281.013	5.16
281.391	4.61
281.769	4.21
282.147	4.72
282.525	4.61
282.903	5.01
283.281	4.98
283.659	4.86
284.037	4.46
284.415	4.82
284.792	4.61
285.17	4.85
285.548	5.37
285.925	4.89
286.303	4.67
286.68	4.35
287.058	4.63
287.435	4.42
287.813	4.51
288.19	4.14
288.567	4.7
288.945	4.65
289.322	4.88
289.699	4.72
290.076	5.14
290.453	4.93
290.83	4.89
291.207	4.95
291.584	4.98
291.961	4.66
292.338	4.63
292.715	5.12
293.092	5.18
293.469	5.18
293.845	5.06
294.222	4.77
294.599	5.6
294.975	5.65
295.352	5.57
295.728	4.9
296.105	5.9
296.481	4.98
296.858	5.5
297.234	5.83
297.61	5.31
297.986	5.47
298.363	5.65
298.739	5.62
299.115	5.65
299.491	5.89
299.867	5.57
300.243	5.52
300.619	5.66
300.995	5.61
301.371	5.97
301.746	5.49
302.122	5.36
302.498	5.46
302.874	5.72
303.249	5.93
303.625	5.88
304	6.15
304.376	6.46
304.751	6.52
305.127	5.87
305.502	6.57
305.878	6.13
306.253	6.35
306.628	6.24
307.003	6.66
307.378	6.09
307.754	6.46
308.129	6.46
308.504	6.8
308.879	6.79
309.254	6.66
309.629	7.16
310.003	7.11
310.378	7.09
310.753	7.16
311.128	7.22
311.502	7.04
311.877	6.6
312.252	6.95
312.626	6.95
313.001	7.18
313.375	7.42
313.75	7.49
314.124	7.51
314.498	7.31
314.873	7.67
315.247	7.87
315.621	8.02
315.995	7.85
316.369	7.58
316.743	7.43
317.117	8.08
317.491	8.33
317.865	7.63
318.239	7.94
318.613	7.61
318.987	7.93
319.361	7.65
319.734	8.14
320.108	8.56
320.482	8.01
320.855	8.42
321.229	8.98
321.602	8.63
321.976	8.53
322.349	8.48
322.723	8.6
323.096	8.84
323.469	9.3
323.843	8.6
324.216	8.71
324.589	9.03
324.962	7.95
325.335	9.25
325.708	9.19
326.081	9.23
326.454	8.49
326.827	8.9
327.2	9.09
327.573	9.68
327.945	9.03
328.318	9.4
328.691	9.55
329.063	9.31
329.436	9.37
329.809	9.09
330.181	10.05
330.553	9.53
330.926	9.8
331.298	9.76
331.671	9.91
332.043	9.19
332.415	9.42
332.787	10.23
333.159	9.55
333.532	9.87
333.904	9.59
334.276	9.5
334.648	9.77
335.02	10.03
335.391	9.87
335.763	10.22
336.135	10.21
336.507	10.26
336.879	9.85
337.25	10.59
337.622	10.19
337.993	10.07
338.365	10.53
338.736	10.46
339.108	10.61
339.479	10.46
339.851	9.94
340.222	9.98
340.593	10.34
340.964	10.3
341.336	10.16
341.707	10.59
342.078	11.12
342.449	10.75
342.82	10.52
343.191	10.39
343.562	10.28
343.933	10.42
344.303	10.3
344.674	11.05
345.045	11.17
345.416	10.84
345.786	10.74
346.157	10.5
346.527	11.16
346.898	11.06
347.268	10.69
347.639	11.11
348.009	11.01
348.38	11.24
348.75	11.48
349.12	11.53
349.49	11.77
349.861	11.15
350.231	11.47
350.601	11.46
350.971	11.84
351.341	11.17
351.711	11.64
352.081	11.56
352.45	11.47
352.82	11.98
353.19	11.76
353.56	11.56
353.929	11.99
354.299	11.6
354.669	11.54
355.038	11.79
355.408	11.74
355.777	12.08
356.147	11.81
356.516	12.3
356.885	11.83
357.254	12.28
357.624	11.76
357.993	12.44
358.362	12.03
358.731	12.16
359.1	12.41
359.469	11.93
359.838	12.24
360.207	12.31
360.576	12.32
360.945	12.67
361.314	12.41
361.682	12.35
362.051	12.6
362.42	12.55
362.788	12.54
363.157	12.55
363.525	12.16
363.894	12.39
364.262	12.46
364.631	12.38
364.999	12.25
365.367	12.77
365.735	12.85
366.104	13.11
366.472	13.05
366.84	12.71
367.208	13.15
367.576	13
367.944	13.11
368.312	12.93
368.68	13.17
369.048	13.11
369.416	13.28
369.783	12.96
370.151	13.16
370.519	13.48
370.886	13.39
371.254	13.42
371.621	13.75
371.989	13.3
372.356	13.58
372.724	13.74
373.091	13.83
373.458	13.68
373.826	13.73
374.193	14.01
374.56	13.72
374.927	14.22
375.294	13.98
375.661	14.15
376.028	14.22
376.395	13.76
376.762	14.11
377.129	14.17
377.496	14.1
377.863	13.84
378.229	14.21
378.596	14.14
378.963	14.73
379.329	14.45
379.696	14.35
380.062	14.06
380.429	14.4
380.795	14.31
381.161	14.43
381.528	14.59
381.894	14.34
382.26	14.7
382.626	14.34
382.993	15.01
383.359	14.43
383.725	14.62
384.091	14.75
384.457	14.64
384.823	14.84
385.188	15.03
385.554	14.87
385.92	15.29
386.286	14.83
386.651	14.74
387.017	15.03
387.383	15.07
387.748	14.96
388.114	15.26
388.479	15.25
388.845	15.26
389.21	15.17
389.575	15.39
389.94	15.11
390.306	15.27
390.671	15.86
391.036	15.25
391.401	15.38
391.766	15.43
392.131	15.7
392.496	15.55
392.861	15.5
393.226	15.52
393.591	15.61
393.956	15.68
394.32	15.68
394.685	15.55
395.05	15.8
395.414	15.83
395.779	16
396.143	15.76
396.508	15.92
396.872	15.82
397.236	16.16
397.601	15.83
397.965	16.01
398.329	16.29
398.694	16.18
399.058	16.11
399.422	16.19
399.786	16.29
400.15	16.56
400.514	16.45
400.878	16.35
401.242	16.26
401.605	16.49
401.969	16.1
402.333	16.73
402.697	16.63
403.06	16.28
403.424	16.48
403.787	16.59
404.151	16.44
404.514	16.82
404.878	16.91
405.241	16.95
405.604	16.52
405.968	16.82
406.331	16.73
406.694	16.79
407.057	16.7
407.42	16.85
407.783	16.88
408.146	16.83
408.509	16.91
408.872	16.93
409.235	17.2
409.598	16.71
409.961	17.33
410.323	17.34
410.686	17.3
411.049	17.59
411.411	17.5
411.774	17.36
412.136	17.15
412.499	17.3
412.861	17.38
413.223	17.54
413.586	17.18
413.948	17.88
414.31	17.59
414.672	17.6
415.035	17.64
415.397	17.79
415.759	18.06
416.121	17.62
416.483	17.77
416.845	17.73
417.206	17.75
417.568	17.69
417.93	17.56
418.292	17.69
418.653	17.71
419.015	17.88
419.377	17.76
419.738	17.9
420.1	17.96
420.461	17.89
420.822	17.99
421.184	17.75
421.545	17.93
421.906	17.95
422.267	17.96
422.629	18.01
422.99	17.87
423.351	17.84
423.712	17.87
424.073	17.95
424.434	18.17
424.795	18.06
425.155	18.33
425.516	18.27
425.877	18.33
426.238	18.21
426.598	18.28
426.959	18.32
427.32	18.42
427.68	18.28
428.041	18.55
428.401	18.64
428.761	18.73
429.122	18.67
429.482	18.87
429.842	18.97
430.202	18.89
430.563	19.21
430.923	19.08
431.283	19.2
431.643	19.38
432.003	19.32
432.363	19.42
432.722	19.54
433.082	19.34
433.442	19.35
433.802	19.64
434.161	19.49
434.521	19.4
434.881	19.59
435.24	19.55
435.6	19.5
435.959	19.42
436.319	19.64
436.678	19.97
437.037	19.8
437.396	19.88
437.756	19.85
438.115	19.93
438.474	19.99
438.833	20.05
439.192	19.87
439.551	20.05
439.91	20.05
440.269	20.11
440.628	20.07
440.987	20.11
441.345	20.19
441.704	20.22
442.063	20.22
442.421	20.09
442.78	20.16
443.138	20.25
443.497	20.23
443.855	20.26
444.214	20.19
444.572	20.43
444.93	20.45
445.288	20.66
445.647	20.79
446.005	20.63
446.363	20.55
446.721	20.71
447.079	20.64
447.437	20.78
447.795	20.68
448.153	20.7
448.51	20.57
448.868	20.58
449.226	20.73
449.584	20.68
449.941	20.85
450.299	20.94
450.656	21.16
451.014	20.99
451.371	21.17
451.729	21.11
452.086	21.12
452.443	21.41
452.801	21.51
453.158	21.44
453.515	21.58
453.872	21.68
454.229	21.64
454.586	21.74
454.943	21.6
455.3	21.7
455.657	21.62
456.014	21.57
456.371	21.82
456.727	21.98
457.084	21.92
457.441	22
457.797	22
458.154	22.07
458.51	22.03
458.867	22.05
459.223	22.22
459.58	22.23
459.936	22.32
460.292	22.35
460.648	22.39
461.005	22.18
461.361	22.26
461.717	21.95
462.073	22.1
462.429	22.04
462.785	22.21
463.141	22.16
463.496	22.35
463.852	22.35
464.208	22.43
464.564	22.67
464.919	22.78
465.275	22.97
465.631	22.86
465.986	23.03
466.342	23.03
466.697	23.05
467.052	23.09
467.408	23.29
467.763	23.06
468.118	23.18
468.473	23.22
468.829	23.28
469.184	23.25
469.539	23.25
469.894	23.19
470.249	23.4
470.603	23.37
470.958	23.6
471.313	23.54
471.668	23.65
472.023	23.64
472.377	23.69
472.732	23.84
473.086	23.75
473.441	23.63
473.795	24
474.15	23.83
474.504	23.82
474.859	24
475.213	23.75
475.567	23.88
475.921	23.89
476.275	23.97
476.63	24.05
476.984	23.85
477.338	24.45
477.692	24.15
478.045	24.25
478.399	24.2
478.753	24.17
479.107	24.31
479.461	24.33
479.814	24.48
480.168	24.38
480.521	24.42
480.875	24.49
481.228	24.43
481.582	24.48
481.935	24.62
482.289	24.64
482.642	24.44
482.995	24.54
483.348	24.51
483.701	24.66
484.055	24.54
484.408	24.39
484.761	24.35
485.114	24.08
485.466	23.82
485.819	23.73
486.172	23.76
486.525	23.89
486.878	24.03
487.23	24.08
487.583	24.19
487.936	24.37
488.288	24.44
488.641	24.56
488.993	24.41
489.345	24.34
489.698	24.38
490.05	24.25
490.402	24.39
490.754	24.35
491.107	24.55
491.459	24.72
491.811	24.89
492.163	24.99
492.515	25.07
492.866	25.08
493.218	25.12
493.57	24.8
493.922	24.86
494.274	24.83
494.625	25
494.977	25.26
495.328	25.49
495.68	25.58
496.031	25.63
496.383	25.81
496.734	25.97
497.086	26.1
497.437	26.12
497.788	26.25
498.139	26.16
498.49	26.11
498.842	26.02
499.193	25.99
499.544	26.02
499.894	26.1
500.245	26.23
500.596	26.15
500.947	26.47
501.298	26.36
501.648	26.4
501.999	26.54
502.35	26.58
502.7	26.56
503.051	26.76
503.401	27.05
503.752	26.72
504.102	26.89
504.452	26.93
504.803	26.95
505.153	26.99
505.503	27.07
505.853	27.09
506.203	26.88
506.553	27.1
506.903	27.21
507.253	26.95
507.603	27.19
507.953	27.37
508.303	27.35
508.652	27.51
509.002	27.39
509.352	27.27
509.701	27.45
510.051	27.5
510.4	27.51
510.75	27.45
511.099	27.4
511.449	27.52
511.798	27.39
512.147	27.57
512.496	27.46
512.846	27.4
513.195	27.8
513.544	27.85
513.893	27.62
514.242	27.57
514.591	27.72
514.939	27.89
515.288	27.91
515.637	27.94
515.986	28.04
516.334	28.08
516.683	28.26
517.032	28.11
517.38	28.22
517.729	28.27
518.077	28.12
518.426	28.37
518.774	28.39
519.122	28.34
519.47	28.39
519.819	28.15
520.167	28.17
520.515	28.11
520.863	28.06
521.211	28.13
521.559	28.29
521.907	28.28
522.255	28.49
522.602	28.51
522.95	28.6
523.298	28.79
523.645	28.76
523.993	28.76
524.341	29.03
524.688	28.92
525.036	29
525.383	29.02
525.73	29.21
526.078	29
526.425	29.05
526.772	28.97
527.119	28.92
527.466	28.78
527.814	28.81
528.161	28.75
528.508	29
528.854	28.86
529.201	28.88
529.548	28.99
529.895	28.8
530.242	28.69
530.588	28.44
530.935	28.57
531.282	28.7
531.628	28.79
531.975	28.75
532.321	28.88
532.667	29.05
533.014	29.31
533.36	29.38
533.706	29.45
534.052	29.63
534.399	29.58
534.745	29.5
535.091	29.33
535.437	29.16
535.783	29.32
536.129	29.43
536.474	29.5
536.82	29.63
537.166	29.92
537.512	29.99
537.857	30.05
538.203	30.02
538.549	29.85
538.894	29.76
539.239	29.92
539.585	30.24
539.93	30.16
540.276	30.27
540.621	30.28
540.966	30.45
541.311	30.57
541.656	30.69
542.001	30.69
542.346	30.42
542.691	30.36
543.036	30.08
543.381	30
543.726	30.01
544.071	30.14
544.415	30.19
544.76	30.28
545.105	30.42
545.449	30.51
545.794	30.55
546.138	30.69
546.483	30.89
546.827	30.91
547.171	31.11
547.516	31.15
547.86	31.11
548.204	31.2
548.548	31.26
548.892	31.24
549.236	31.3
549.58	31.38
549.924	31.41
550.268	31.53
550.612	31.7
550.956	31.62
551.3	31.84
551.643	31.84
551.987	32.14
552.33	32.24
552.674	32.04
553.017	32.21
553.361	32.62
553.704	32.46
554.048	32.15
554.391	32.2
554.734	32.29
555.077	32.14
555.42	32.47
555.764	32.38
556.107	32.46
556.45	32.51
556.793	32.36
557.135	32.59
557.478	32.72
557.821	32.59
558.164	32.98
558.507	33.05
558.849	33.1
559.192	32.88
559.534	33.09
559.877	33.05
560.219	33.04
560.562	33.12
560.904	33.23
561.246	33.07
561.589	33.35
561.931	33.43
562.273	33.08
562.615	33.31
562.957	33.26
563.299	33.31
563.641	33.22
563.983	33.29
564.325	33.45
564.667	33.49
565.008	33.46
565.35	33.67
565.692	33.46
566.033	33.64
566.375	33.74
566.716	33.8
567.058	33.57
567.399	33.66
567.741	33.66
568.082	33.79
568.423	33.86
568.764	33.77
569.105	33.59
569.447	34
569.788	33.82
570.129	33.72
570.47	34.06
570.811	34.01
571.151	33.92
571.492	33.91
571.833	34.13
572.174	33.92
572.514	34.08
572.855	34.26
573.195	34.34
573.536	34.44
573.876	34.5
574.217	34.24
574.557	34.19
574.898	34.29
575.238	34.51
575.578	34.4
575.918	34.52
576.258	34.48
576.598	34.67
576.938	34.74
577.278	34.66
577.618	34.56
577.958	34.52
578.298	34.7
578.638	34.73
578.977	35.03
579.317	34.94
579.657	34.87
579.996	35.2
580.336	35.31
580.675	35.07
581.014	35.23
581.354	35.4
581.693	35.65
582.032	35.39
582.372	35.56
582.711	35.53
583.05	35.6
583.389	35.53
583.728	35.35
584.067	35.3
584.406	35.98
584.745	35.43
585.083	36.03
585.422	35.88
585.761	35.65
586.1	35.71
586.438	36.23
586.777	36.05
587.115	35.86
587.454	35.72
587.792	36.2
588.13	36.43
588.469	35.9
588.807	36.54
589.145	36.28
589.483	36.22
589.821	36.6
590.159	36.33
590.497	36.28
590.835	36.26
591.173	36.26
591.511	36.52
591.849	36.6
592.187	36.04
592.524	36.29
592.862	36.6
593.2	36.54
593.537	36.4
593.875	36.51
594.212	36.94
594.55	37.03
594.887	36.73
595.224	36.75
595.561	36.85
595.899	36.84
596.236	36.75
596.573	37.26
596.91	36.92
597.247	36.8
597.584	36.97
597.921	37.04
598.258	37.23
598.594	37.1
598.931	36.95
599.268	36.87
599.604	37.06
599.941	36.75
600.277	36.79
600.614	37.17
600.95	37.26
601.287	37.31
601.623	37.27
601.959	37.49
602.296	37.41
602.632	37.21
602.968	37.68
603.304	37.87
603.64	37.74
603.976	37.47
604.312	37.32
604.648	37.85
604.984	37.82
605.319	37.39
605.655	37.34
605.991	37.83
606.326	37.64
606.662	37.49
606.998	37.76
607.333	37.77
607.668	37.74
608.004	37.81
608.339	37.87
608.674	38.12
609.01	38.12
609.345	37.88
609.68	38.5
610.015	38.18
610.35	38.2
610.685	38.7
611.02	38.54
611.355	38.23
611.689	38.28
612.024	38.14
612.359	38.09
612.694	38.28
613.028	38.48
613.363	38.66
613.697	38.55
614.032	38.59
614.366	38.72
614.7	39.1
615.035	38.91
615.369	38.73
615.703	38.63
616.037	38.92
616.371	38.77
616.705	39.4
617.039	39.18
617.373	39.04
617.707	39.15
618.041	39.33
618.375	39.03
618.709	39.43
619.042	39.72
619.376	39.41
619.71	39.66
620.043	39.02
620.377	39.35
620.71	39.75
621.043	39.53
621.377	39.61
621.71	39.5
622.043	39.76
622.376	39.7
622.709	39.67
623.043	39.61
623.376	39.78
623.709	39.81
624.041	40.09
624.374	39.85
624.707	40.37
625.04	40.04
625.373	39.84
625.705	39.89
626.038	40.18
626.37	40.19
626.703	39.8
627.035	40.26
627.368	40.24
627.7	40.2
628.032	39.88
628.365	40.33
628.697	40.44
629.029	40.12
629.361	40.18
629.693	40.53
630.025	40.35
630.357	40.48
630.689	40.41
631.021	40.47
631.353	40.15
631.684	40.51
632.016	40.48
632.348	40.61
632.679	40.86
633.011	40.47
633.342	40.6
633.674	40.62
634.005	40.58
634.336	40.61
634.668	40.85
634.999	40.77
635.33	40.97
635.661	40.64
635.992	40.56
636.323	40.95
636.654	40.35
636.985	40.84
637.316	40.59
637.647	40.72
637.977	41.08
638.308	41.39
638.639	40.69
638.969	41.48
639.3	40.93
639.63	41.26
639.961	41.53
640.291	41.42
640.622	41.46
640.952	41.27
641.282	41.42
641.612	41.23
641.943	41.39
642.273	41.74
642.603	41.61
642.933	41.03
643.263	41.45
643.592	41.42
643.922	41.34
644.252	41.69
644.582	41.65
644.911	41.86
645.241	41.96
645.571	42.03
645.9	41.55
646.23	42.42
646.559	41.87
646.888	41.88
647.218	41.98
647.547	41.69
647.876	42.2
648.205	41.98
648.534	42.42
648.863	42.23
649.192	42.21
649.521	42.2
649.85	42.34
650.179	41.91
650.508	41.99
650.837	42.39
651.165	42.51
651.494	41.7
651.822	42.55
652.151	42.71
652.479	42.09
652.808	42.47
653.136	42.8
653.465	42.73
653.793	42.35
654.121	42.72
654.449	42.34
654.777	43.08
655.105	42.31
655.433	42.25
655.761	42.67
656.089	42.75
656.417	42.8
656.745	42.78
657.073	43.04
657.4	43.39
657.728	43.13
658.056	42.87
658.383	43.54
658.711	43.11
659.038	42.97
659.365	42.95
659.693	42.69
660.02	43.06
660.347	42.62
660.674	43.19
661.001	43.12
661.329	42.49
661.656	43.09
661.982	42.93
662.309	43.46
662.636	43.49
662.963	43.25
663.29	43.2
663.616	43.9
663.943	43.67
664.27	43.16
664.596	43.1
664.923	43.53
665.249	43.31
665.576	42.85
665.902	43.41
666.228	43.35
666.554	43.15
666.881	43.63
667.207	43.05
667.533	43.3
667.859	43.45
668.185	43.68
668.511	43.8
668.837	43.38
669.162	43.79
669.488	44.04
669.814	43.75
670.139	43.45
670.465	44.35
670.791	44.19
671.116	43.82
671.442	44.45
671.767	43.27
672.092	44.17
672.418	44.18
672.743	44.13
673.068	44
673.393	44.1
673.718	44.96
674.043	45.08
674.368	43.86
674.693	44.54
675.018	44.47
675.343	44.54
675.667	44.12
675.992	44.32
676.317	44.37
676.641	44.56
676.966	45.04
677.29	43.92
677.615	44.4
677.939	44.37
678.264	45.49
678.588	45.11
678.912	44.61
679.236	44.51
679.56	44.47
679.885	44.57
680.209	44.68
680.532	44.29
680.856	44.71
681.18	44.72
681.504	44.93
681.828	44.81
682.152	44.59
682.475	45.28
682.799	45.08
683.122	44.52
683.446	44.86
683.769	44.83
684.093	44.99
684.416	45.03
684.739	45.19
685.062	45.13
685.386	44.8
685.709	45.46
686.032	45.4
686.355	44.9
686.678	44.94
687.001	45.5
687.324	45.09
687.646	45.52
687.969	46.35
688.292	45.22
688.614	45.9
688.937	44.99
689.26	45.21
689.582	45.17
689.904	44.86
690.227	45.24
690.549	46.08
690.871	45.13
691.194	45.83
691.516	45.65
691.838	45.8
692.16	45.66
692.482	45.27
692.804	45.16
693.126	45.25
693.448	45.91
693.769	45.37
694.091	45.45
694.413	45.71
694.735	45.7
695.056	46.34
695.378	45.85
695.699	45.33
696.021	45.89
696.342	46.68
696.663	45.8
696.984	45.85
697.306	45.88
697.627	45.71
697.948	46.1
698.269	45.58
698.59	46.24
698.911	47
699.232	46.4
699.553	45.68
699.873	44.92
700.194	45.98
700.515	45.43
700.835	46.04
701.156	46
701.477	46.25
701.797	46.19
702.117	46.39
702.438	46.64
702.758	45.78
703.078	46.74
703.398	46.75
703.719	45.22
704.039	46.04
704.359	47.31
704.679	45.74
704.999	46.18
705.319	46.13
705.638	46.59
705.958	46
706.278	45.81
706.597	47.28
706.917	46.18
707.237	46.7
707.556	46.24
707.876	46.18
708.195	46.56
708.514	46.45
708.834	45.91
709.153	47.03
709.472	47.03
709.791	46.71
710.11	45.9
710.429	45.77
710.748	47.79
711.067	47.96
711.386	47.54
711.705	47.03
712.023	47.27
712.342	46.68
712.661	47.25
712.979	47.14
713.298	46.5
713.616	46.56
713.935	47.16
714.253	47.07
714.572	47.59
714.89	47.44
715.208	47.04
715.526	46.62
715.844	47.25
716.162	46.67
716.48	47.19
716.798	47.1
717.116	48.53
717.434	48.06
717.752	48.24
718.069	47.03
718.387	47.86
718.705	47.75
719.022	47.68
719.34	48.68
719.657	46.64
719.975	47.45
720.292	47.23
720.609	48.44
720.927	48.04
721.244	47.59
721.561	49.54
721.878	48.88
722.195	47.26
722.512	47.2
722.829	48.75
723.146	48.86
723.463	48.32
723.779	47.71
724.096	47.65
724.413	48.39
724.729	48.2
725.046	48.64
725.362	48.69
725.679	49.26
725.995	47.88
726.311	47.65
726.628	47.77
726.944	47.69
727.26	48.17
727.576	48.41
727.892	47.19
728.208	47.62
728.524	50.29
728.84	48.13
729.156	48
729.472	49.78
729.787	47.66
730.103	47.26
730.419	48.38
730.734	48.63
731.05	48.04
731.365	47.41
731.681	48.66
731.996	48.15
732.311	48.28
732.626	47.85
732.942	47.49
733.257	49.32
733.572	49.51
733.887	49.48
734.202	48.72
734.517	48.46
734.832	48.42
735.146	49.3
735.461	49.78
735.776	47.4
736.091	48.23
736.405	49.17
736.72	49.78
737.034	48.41
737.349	48.56
737.663	49.01
737.977	50.08
738.292	50.59
738.606	49.65
738.92	50.03
739.234	49.42
739.548	49.88
739.862	49.04
740.176	48.72
740.49	49.18
740.804	48.51
741.117	49.09
741.431	49.35
741.745	49.65
742.058	49.12
742.372	49.62
742.685	49.08
742.999	49.24
743.312	48.91
743.626	48.77
743.939	49.07
744.252	48.73
744.565	47.5
744.878	48.21
745.191	52.05
745.505	49.25
745.817	50.03
746.13	50.81
746.443	50.08
746.756	49.55
747.069	49.17
747.381	48.23
747.694	49.46
748.007	48.76
748.319	49.24
748.632	49.83
748.944	52.64
749.256	50.87
749.569	50.63
749.881	50.98
750.193	49.95
750.505	49.61
750.817	50.44
751.129	50.19
751.441	49.53
751.753	51.54
752.065	49.62
752.377	50.74
752.689	51.16
753	49
753.312	51.2
753.624	50.41
753.935	49.78
754.247	49.32
754.558	50.16
754.869	50.28
755.181	51.32
755.492	49.68
755.803	50.11
756.114	50.74
756.425	50.24
756.736	49.71
757.047	49.48
757.358	50
757.669	48.85
757.98	49.69
758.291	49.54
758.601	49.49
758.912	49.29
759.223	51.57
759.533	51.57
759.844	51.99
760.154	48.98
760.464	48.9
760.775	51
761.085	50.19
761.395	49.53
761.705	50.91
762.016	49.91
762.326	49.99
762.636	51.4
762.945	50.52
763.255	49.29
763.565	48.76
763.875	50.88
764.185	50.76
764.494	51.84
764.804	50.23
765.113	51.91
765.423	51.52
765.732	51.08
766.042	50.85
766.351	49.67
766.66	49.81
766.97	50.94
767.279	52.21
767.588	49.6
767.897	50.97
768.206	52.54
768.515	50.24
768.824	51.74
769.133	52.05
769.441	50.5
769.75	50.79
770.059	52.21
770.367	51.53
770.676	52.12
770.984	50.94
771.293	51.5
771.601	50.6
771.91	54.96
772.218	51.32
772.526	53.93
772.834	53.04
773.142	54.22
773.45	50.4
773.758	48.79
774.066	51.04
774.374	51.25
774.682	51.27
774.99	50.39
775.298	49.78
775.605	50.54
775.913	52.54
776.22	50.25
776.528	51.78
776.835	55.58
777.143	54.24
777.45	53.69
777.757	50.6
778.065	51.68
778.372	52.52
778.679	52.23
778.986	49.08
779.293	49.18
779.6	47.73
779.907	53.47
780.214	55.61
780.52	51.4
780.827	51.41
781.134	50.78
781.44	51.9
781.747	49.28
782.053	52.34
782.36	52.41
782.666	49.44
782.973	53.42
783.279	54.41
783.585	51.94
783.891	54.4
784.197	53.25
784.503	51.6
784.809	52.78
785.115	52.93
785.421	49.94
785.727	52.82
786.033	50.66
786.339	50.77
786.644	53.28
786.95	56.21
787.255	50.01
787.561	52.26
787.866	49.41
788.172	49.66
788.477	50.04
788.782	49.48
789.088	51.43
789.393	49.52
789.698	54.69
790.003	54
790.308	54.14
790.613	55.43
790.918	52.88
791.223	51.25
791.527	50.91
791.832	52.68
792.137	51.4
792.441	51.91
792.746	56.94
793.05	57.66
793.355	53.21
793.659	52.38
793.963	57.31
794.268	52.32
794.572	54.75
794.876	52.31
795.18	52.95
795.484	56.1
795.788	58.29
796.092	55.28
796.396	50.58
796.7	53.66
797.004	50
797.307	50.19
797.611	52.61
797.915	54.25
798.218	52.62
798.522	51.21
798.825	51.39
799.128	54.03
799.432	48.6
799.735	52.27
800.038	56.64
800.341	51.84
800.644	53.3
800.947	52.63
801.25	54.38
801.553	55.84
801.856	54.63
802.159	51.56
802.462	50.88
802.764	51.99
803.067	54.9
803.37	55.83
803.672	52.35
803.975	51.95
804.277	55.3
804.579	52.69
804.882	49.27
805.184	48.42
805.486	47.42
805.788	57.5
806.09	51.98
806.392	53.99
806.694	53.1
806.996	52.97
807.298	50.68
807.6	51.84
807.902	51.84
808.203	49.46
808.505	53.91
808.807	56.83
809.108	56.55
809.409	54.78
809.711	54.66
810.012	49.82
810.313	52.6
810.615	57.35
810.916	51.97
811.217	55.55
811.518	55.35
811.819	54.52
812.12	56.41
812.421	52.68
812.722	55.27
813.023	55.83
813.323	58.45
813.624	54.8
813.925	51.6
814.225	61.81
814.526	58.1
814.826	49.81
815.126	54.29
815.427	52.47
815.727	57.04
816.027	59.49
816.327	46.94
816.627	54.16
816.927	58.9
817.227	54.11
817.527	52.12
817.827	49.51
818.127	60.32
818.427	59.19
818.727	53.54
819.026	56.83
819.326	61.12
819.625	54.03
819.925	59.23
820.224	59.67
820.524	50.56
820.823	54.51
821.122	57.87
821.421	53.91
821.72	52.23
822.019	50.8
822.318	58.51
822.617	53.42
822.916	54.18
823.215	58.04
823.514	54.57
823.813	55.5
824.111	55.5
824.41	51.44
824.709	52.67
825.007	53.43
825.306	53.78
825.604	53.95
825.902	54.3
826.201	53.44
826.499	54.06
826.797	54
827.095	54.72
827.393	54.23
827.691	54.41
827.989	53.73
828.287	56.92
828.585	54.3
828.882	57.15
829.18	54.11
829.478	56.74
829.775	52.47
830.073	53.66
830.37	54.16
830.668	55.98
830.965	56.88
831.263	54.15
831.56	55.97
831.857	58.01
832.154	53.41
832.451	56.69
832.748	57.12
833.045	56.61
833.342	52.48
833.639	57.79
833.936	53.17
834.232	54.34
834.529	58.29
834.826	60.6
835.122	61.62
835.419	52.48
835.715	51.57
836.012	53.77
836.308	54.4
836.604	56.56
836.901	56.45
837.197	55.88
837.493	58.3
837.789	55.97
838.085	57.35
838.381	56.19
838.677	52.61
838.972	59.8
839.268	57.91
839.564	55.19
839.86	56.33
840.155	56.01
840.451	59.9
840.746	49.45
841.042	62.77
841.337	54.02
841.632	53.15
841.928	51.65
842.223	57.34
842.518	59.23
842.813	57.93
843.108	48.35
843.403	54.85
843.698	61.27
843.993	49.05
844.287	55.16
844.582	58.2
844.877	50.38
845.171	63.58
845.466	64.62
845.761	56.19
846.055	58.44
846.349	57.29
846.644	57.09
846.938	48.92
847.232	56.15
847.526	71.79
847.82	64.28
848.114	51.89
848.408	64.89
848.702	50.33
848.996	67.75
849.29	50.41
849.584	55.75
849.877	76.08
850.171	61.06
850.465	56.9
850.758	59.83
851.052	58.2
851.345	57.97
851.638	72.15
851.932	62.68
852.225	58.88
852.518	58.76
852.811	52.24
853.104	74.9
853.397	64.16
853.69	63.04
853.983	62.56
854.276	55.36
854.569	63.58
854.861	66.74
855.154	55.88
855.447	67.85
855.739	38.67
856.032	59.24
856.324	46.51
856.616	55.33
856.909	68.15
857.201	76.53
857.493	57.02
857.785	81.39
858.077	71.58
858.369	43.06
858.661	78.46
858.953	62.9
859.245	63.41
859.537	59.93
859.829	50.32
860.12	49.23
860.412	57.4
860.703	52.88
860.995	60.96
861.286	67.48
861.578	80.02
861.869	54.97
862.16	46.85
862.452	59.73
862.743	69.31
863.034	78.04
863.325	78.66
863.616	48.16
863.907	68.18
864.198	82.6
864.488	65.01
864.779	49.91
865.07	46.68
865.36	83.9
865.651	68.19
865.941	46.45
866.232	54.94
866.522	57.45
866.813	63.35
867.103	64.4
867.393	64.92
867.683	33.51
867.973	47.97
868.263	63.72
868.553	61.25
868.843	41.7
869.133	68.74
869.423	53.44
869.713	65.73
870.002	62.08
870.292	51.79
870.582	74.82
870.871	37.27
871.161	44.47
871.45	69.41
871.739	71.21
872.029	61.94
872.318	66.89
872.607	61.9
872.896	71.25
873.185	62.83
873.474	61.15
873.763	46.85
874.052	47.67
874.341	59.24
874.63	77.17
874.918	45.02
875.207	78.66
875.496	60.68
875.784	81.54
876.073	49.91
876.361	98.85
876.649	44.79
876.938	65.6
877.226	54.61
877.514	95.4
877.802	31.01
878.09	58.79
878.378	103.76
878.666	64.1
878.954	65.12
879.242	61.67
879.53	62.57
879.817	71.87
880.105	38.27
880.392	59.91
880.68	47.18
880.967	101.29
881.255	78.92
881.542	82.81
881.83	64.69
882.117	80.01
882.404	96.23
882.691	43.14
882.978	46.62
883.265	42.51
883.552	55.2
883.839	47.82
884.126	64.66
884.413	53.42
884.699	60.89
884.986	50.95
885.273	61.78
885.559	61.78
885.846	61.78
