Data from 0153_chest_Reflection__2__38.txt Node

Date: Fri Sep 22 20:38:36 CDT 2023
User: ToomeyLab
Spectrometer: FLMS14357
Trigger mode: 0
Integration Time (sec): 1.000000E-2
Scans to average: 100
Electric dark correction enabled: true
Nonlinearity correction enabled: false
Boxcar width: 0
XAxis mode: Wavelengths
Number of Pixels in Spectrum: 2048
>>>>>Begin Spectral Data<<<<<
189.047	-119.72
189.435	-119.72
189.823	-119.72
190.211	225.05
190.599	169.31
190.987	139.05
191.375	543.14
191.763	54.04
192.151	140.19
192.538	85.26
192.926	-28
193.314	85.64
193.702	-63.39
194.089	65.08
194.477	-66.03
194.864	216.77
195.252	189.63
195.639	64.12
196.027	299.11
196.414	-152.49
196.801	108.73
197.189	32.34
197.576	128.22
197.963	-28.98
198.351	18.56
198.738	35.47
199.125	18.98
199.512	-7.25
199.899	19.54
200.286	-8.51
200.673	15.27
201.06	39.41
201.447	38.15
201.833	-58.1
202.22	31.95
202.607	3.63
202.994	43.05
203.38	28.17
203.767	-8.2
204.154	29.86
204.54	36.13
204.927	24.02
205.313	2
205.699	27.26
206.086	27.33
206.472	34.89
206.858	10.34
207.245	-4.94
207.631	39.08
208.017	-3.93
208.403	26.46
208.789	10.93
209.175	35.08
209.561	41.42
209.947	25.92
210.333	17.32
210.719	8.74
211.105	18.9
211.491	16.31
211.876	24.13
212.262	19.56
212.648	2.52
213.034	21.89
213.419	41.44
213.805	-18.4
214.19	28.7
214.576	2.58
214.961	15.01
215.346	16.21
215.732	9.46
216.117	6.73
216.502	15.76
216.888	25.42
217.273	23.65
217.658	26.39
218.043	1.55
218.428	11.13
218.813	-12.94
219.198	3.5
219.583	-6.29
219.968	-16.14
220.353	37.28
220.738	0.15
221.122	11.32
221.507	6.8
221.892	3.49
222.276	3.06
222.661	-18.54
223.046	14.72
223.43	24.78
223.815	5.25
224.199	-8.42
224.583	8.01
224.968	8.94
225.352	2.93
225.736	8.69
226.121	-2.85
226.505	4.26
226.889	4.28
227.273	3.13
227.657	-0.7
228.041	4.14
228.425	4.33
228.809	0.64
229.193	2
229.577	3.18
229.961	1.91
230.344	2.21
230.728	0.75
231.112	1.85
231.495	1.28
231.879	1.47
232.263	2.08
232.646	2.61
233.03	1.44
233.413	2.23
233.797	1.85
234.18	2.77
234.563	3.74
234.946	2.35
235.33	-0.44
235.713	0.25
236.096	0.24
236.479	0.27
236.862	4.05
237.245	1.42
237.628	2.64
238.011	4.48
238.394	2.07
238.777	4.06
239.16	-0.44
239.543	2.74
239.925	3.75
240.308	2.75
240.691	3.05
241.073	2.52
241.456	2.51
241.838	0.94
242.221	1.74
242.603	1.82
242.986	0.9
243.368	1.26
243.75	2.52
244.133	2.28
244.515	1.62
244.897	1.5
245.279	1.77
245.661	1.47
246.043	1.34
246.425	2.09
246.807	1.57
247.189	0.86
247.571	2.62
247.953	2.04
248.335	1.63
248.717	2.07
249.098	1.81
249.48	1.67
249.862	1.58
250.243	1.55
250.625	1.6
251.006	1.31
251.388	1.85
251.769	1.75
252.151	0.81
252.532	1.95
252.913	2.62
253.295	2.31
253.676	1.64
254.057	2.86
254.438	2.23
254.819	1.37
255.2	2.32
255.581	1.88
255.962	2.13
256.343	1.86
256.724	1.63
257.105	1.82
257.486	1.84
257.867	0.95
258.247	1.95
258.628	2.39
259.009	0.34
259.389	1.38
259.77	2.17
260.15	2.26
260.531	1.53
260.911	1.66
261.292	1.48
261.672	1.29
262.052	1.78
262.432	1.87
262.813	1.82
263.193	1.36
263.573	2.11
263.953	1.37
264.333	1.97
264.713	1.88
265.093	1.49
265.473	1.82
265.853	1.24
266.233	2.08
266.612	1.85
266.992	1.57
267.372	1.89
267.752	1.88
268.131	1.52
268.511	1.48
268.89	1.54
269.27	1.6
269.649	2.15
270.029	1.43
270.408	1.64
270.787	1.77
271.167	1.66
271.546	1.14
271.925	1.63
272.304	1.41
272.683	2.03
273.062	1.85
273.441	1.54
273.82	2.09
274.199	1.83
274.578	1.95
274.957	1.19
275.336	1.47
275.715	1.66
276.093	1.33
276.472	1.32
276.851	1.51
277.229	0.82
277.608	1.6
277.986	1.46
278.365	1.87
278.743	1.58
279.122	0.99
279.5	2.26
279.878	1.69
280.257	2.02
280.635	1.42
281.013	1.96
281.391	1.37
281.769	0.95
282.147	1.7
282.525	1.45
282.903	1.16
283.281	1.58
283.659	2.18
284.037	1.05
284.415	1.52
284.792	1.52
285.17	1.97
285.548	2.09
285.925	1.91
286.303	1.48
286.68	1.1
287.058	1.13
287.435	1.41
287.813	1.48
288.19	1.02
288.567	1.66
288.945	1.41
289.322	1.53
289.699	1.54
290.076	2.05
290.453	1.29
290.83	1.25
291.207	1.59
291.584	1.29
291.961	1.39
292.338	1.89
292.715	1.82
293.092	1.66
293.469	1.74
293.845	1.71
294.222	1.8
294.599	2.03
294.975	1.8
295.352	2.15
295.728	1.96
296.105	1.89
296.481	2
296.858	1.77
297.234	1.98
297.61	1.9
297.986	2.14
298.363	1.76
298.739	1.97
299.115	1.68
299.491	1.84
299.867	1.87
300.243	1.98
300.619	1.85
300.995	1.63
301.371	1.99
301.746	1.78
302.122	2.08
302.498	1.74
302.874	1.53
303.249	1.17
303.625	1.52
304	1.88
304.376	1.85
304.751	1.86
305.127	1.9
305.502	2.06
305.878	1.69
306.253	1.76
306.628	2.08
307.003	1.95
307.378	1.55
307.754	1.7
308.129	1.52
308.504	1.98
308.879	2.02
309.254	2.2
309.629	2.32
310.003	2.79
310.378	2.3
310.753	1.96
311.128	1.93
311.502	2.27
311.877	1.55
312.252	2.16
312.626	1.9
313.001	1.78
313.375	2.03
313.75	2.38
314.124	2.36
314.498	1.84
314.873	2.33
315.247	2.57
315.621	2.12
315.995	2.51
316.369	2.26
316.743	2.29
317.117	2.43
317.491	2.51
317.865	1.73
318.239	2.41
318.613	2.43
318.987	1.8
319.361	2.08
319.734	1.58
320.108	1.71
320.482	1.57
320.855	1.55
321.229	2.83
321.602	2.45
321.976	1.85
322.349	2.46
322.723	2.54
323.096	2.22
323.469	1.75
323.843	1.97
324.216	2.17
324.589	2.07
324.962	1.9
325.335	1.64
325.708	1.82
326.081	2.46
326.454	1.42
326.827	2.16
327.2	2
327.573	2.68
327.945	2.43
328.318	2.32
328.691	2.22
329.063	2.09
329.436	2.27
329.809	2.29
330.181	2.58
330.553	2.25
330.926	2.43
331.298	2.32
331.671	2.26
332.043	1.53
332.415	2.25
332.787	2.91
333.159	2.17
333.532	2.04
333.904	2.54
334.276	1.91
334.648	1.58
335.02	2.16
335.391	2.33
335.763	2.36
336.135	2.49
336.507	2.53
336.879	2.14
337.25	2.33
337.622	2.73
337.993	2.37
338.365	2.39
338.736	2.28
339.108	2.37
339.479	2.24
339.851	1.93
340.222	1.91
340.593	2.1
340.964	1.69
341.336	1.82
341.707	2.1
342.078	1.81
342.449	2.51
342.82	1.88
343.191	2.21
343.562	2.14
343.933	2.14
344.303	2.16
344.674	2.73
345.045	2.17
345.416	2.32
345.786	1.81
346.157	2.31
346.527	2.44
346.898	2.23
347.268	2.01
347.639	2.35
348.009	2.06
348.38	2.36
348.75	2.51
349.12	2.13
349.49	2.8
349.861	2.31
350.231	2.27
350.601	2.36
350.971	2.52
351.341	2.18
351.711	2.14
352.081	2.02
352.45	2.27
352.82	2.39
353.19	2.51
353.56	2.38
353.929	2.65
354.299	2.39
354.669	2.24
355.038	2.48
355.408	2.22
355.777	2.5
356.147	2.34
356.516	2.62
356.885	2.55
357.254	2.53
357.624	2.03
357.993	2.28
358.362	2.39
358.731	1.97
359.1	2.12
359.469	2.28
359.838	2.03
360.207	2.1
360.576	2.67
360.945	2.22
361.314	2.58
361.682	2.39
362.051	2.37
362.42	2.3
362.788	2.17
363.157	2.34
363.525	2.26
363.894	2.13
364.262	2.28
364.631	2.14
364.999	2.37
365.367	2.49
365.735	2.18
366.104	2.2
366.472	2.44
366.84	2.32
367.208	2.54
367.576	2.55
367.944	2.22
368.312	2.46
368.68	2.25
369.048	2.75
369.416	2.27
369.783	2.31
370.151	2.16
370.519	2.75
370.886	2.23
371.254	2.51
371.621	2.11
371.989	2.39
372.356	2.28
372.724	2.56
373.091	2.68
373.458	2.48
373.826	2.52
374.193	2.6
374.56	2.37
374.927	2.45
375.294	2.14
375.661	2.34
376.028	2.38
376.395	2.33
376.762	2.08
377.129	2.62
377.496	2.7
377.863	2.8
378.229	2.51
378.596	2.32
378.963	2.7
379.329	2.42
379.696	2.25
380.062	2.15
380.429	2.52
380.795	2.64
381.161	2.33
381.528	2.2
381.894	2.21
382.26	2.39
382.626	2.44
382.993	2.49
383.359	2.16
383.725	2.33
384.091	2.34
384.457	2.39
384.823	2.24
385.188	2.37
385.554	2.5
385.92	2.74
386.286	2.48
386.651	2.38
387.017	2.28
387.383	2.41
387.748	2.44
388.114	2.48
388.479	2.53
388.845	2.12
389.21	2.41
389.575	2.84
389.94	2.3
390.306	2.59
390.671	2.75
391.036	2.33
391.401	2.31
391.766	2.17
392.131	2.53
392.496	2.54
392.861	2.41
393.226	2.49
393.591	2.56
393.956	2.58
394.32	2.39
394.685	2.44
395.05	2.71
395.414	2.52
395.779	2.46
396.143	2.7
396.508	2.5
396.872	2.35
397.236	2.41
397.601	2.32
397.965	2.64
398.329	2.31
398.694	2.37
399.058	2.48
399.422	2.49
399.786	2.43
400.15	2.71
400.514	2.74
400.878	2.48
401.242	2.74
401.605	2.53
401.969	2.26
402.333	2.68
402.697	2.39
403.06	2.34
403.424	2.33
403.787	2.79
404.151	2.54
404.514	2.62
404.878	2.28
405.241	2.47
405.604	2.62
405.968	2.53
406.331	2.65
406.694	2.41
407.057	2.34
407.42	2.6
407.783	2.43
408.146	2.54
408.509	2.52
408.872	2.61
409.235	2.53
409.598	2.11
409.961	2.7
410.323	2.56
410.686	2.47
411.049	2.73
411.411	2.58
411.774	2.4
412.136	2.48
412.499	2.38
412.861	2.6
413.223	2.52
413.586	2.41
413.948	2.63
414.31	2.34
414.672	2.62
415.035	2.59
415.397	2.87
415.759	3.07
416.121	2.66
416.483	2.45
416.845	2.31
417.206	2.36
417.568	2.65
417.93	2.53
418.292	2.43
418.653	2.43
419.015	2.53
419.377	2.61
419.738	2.68
420.1	2.49
420.461	2.6
420.822	2.45
421.184	2.47
421.545	2.58
421.906	2.48
422.267	2.5
422.629	2.48
422.99	2.44
423.351	2.38
423.712	2.5
424.073	2.48
424.434	2.57
424.795	2.47
425.155	2.57
425.516	2.58
425.877	2.53
426.238	2.47
426.598	2.45
426.959	2.54
427.32	2.5
427.68	2.62
428.041	2.56
428.401	2.65
428.761	2.79
429.122	2.59
429.482	2.53
429.842	2.59
430.202	2.54
430.563	2.59
430.923	2.7
431.283	2.73
431.643	2.68
432.003	2.69
432.363	2.85
432.722	2.81
433.082	2.82
433.442	2.59
433.802	2.8
434.161	2.64
434.521	2.59
434.881	2.78
435.24	2.7
435.6	2.65
435.959	2.66
436.319	2.66
436.678	2.83
437.037	2.7
437.396	2.58
437.756	2.69
438.115	2.64
438.474	2.76
438.833	2.71
439.192	2.71
439.551	2.82
439.91	2.76
440.269	2.77
440.628	2.64
440.987	2.81
441.345	2.72
441.704	2.75
442.063	2.7
442.421	2.71
442.78	2.72
443.138	2.78
443.497	2.68
443.855	2.71
444.214	2.65
444.572	2.8
444.93	2.82
445.288	2.79
445.647	2.9
446.005	2.78
446.363	2.55
446.721	2.71
447.079	2.65
447.437	2.88
447.795	3
448.153	2.65
448.51	2.68
448.868	2.75
449.226	2.77
449.584	2.77
449.941	2.68
450.299	2.78
450.656	2.82
451.014	2.86
451.371	2.8
451.729	2.93
452.086	2.78
452.443	2.9
452.801	2.76
453.158	2.92
453.515	2.86
453.872	2.75
454.229	2.86
454.586	2.86
454.943	2.84
455.3	2.97
455.657	2.76
456.014	2.89
456.371	3.05
456.727	3.16
457.084	3.01
457.441	2.87
457.797	3.05
458.154	2.94
458.51	2.79
458.867	2.69
459.223	2.92
459.58	2.94
459.936	2.95
460.292	3.1
460.648	3.07
461.005	2.92
461.361	3.03
461.717	2.67
462.073	2.88
462.429	2.81
462.785	2.85
463.141	2.99
463.496	2.98
463.852	2.86
464.208	2.94
464.564	3.07
464.919	2.94
465.275	3.14
465.631	3.13
465.986	3.06
466.342	3.1
466.697	2.95
467.052	2.95
467.408	3.01
467.763	3.19
468.118	3.23
468.473	3.18
468.829	3.05
469.184	2.94
469.539	2.97
469.894	3.03
470.249	3.01
470.603	2.95
470.958	3.01
471.313	3.13
471.668	3.17
472.023	3.02
472.377	3.18
472.732	3.13
473.086	3.37
473.441	2.93
473.795	3.12
474.15	3.04
474.504	2.97
474.859	3.22
475.213	2.99
475.567	2.97
475.921	3.01
476.275	3.05
476.63	3
476.984	3.04
477.338	3.24
477.692	3.2
478.045	3.22
478.399	3.17
478.753	3
479.107	3.17
479.461	3.09
479.814	3.17
480.168	3.23
480.521	3.23
480.875	3.28
481.228	3.16
481.582	3.08
481.935	3.09
482.289	3.06
482.642	3.07
482.995	3.04
483.348	3.1
483.701	3.18
484.055	3.08
484.408	3.1
484.761	3.14
485.114	3
485.466	2.95
485.819	2.89
486.172	2.91
486.525	2.92
486.878	2.97
487.23	3.03
487.583	3.07
487.936	3.07
488.288	3.14
488.641	3.12
488.993	3.05
489.345	3.03
489.698	2.99
490.05	3.05
490.402	3.06
490.754	3.03
491.107	3.03
491.459	3.19
491.811	3.17
492.163	3.15
492.515	3.17
492.866	3.1
493.218	3.18
493.57	3.13
493.922	3.05
494.274	3.06
494.625	3.11
494.977	3.21
495.328	3.3
495.68	3.25
496.031	3.24
496.383	3.27
496.734	3.25
497.086	3.35
497.437	3.4
497.788	3.27
498.139	3.37
498.49	3.5
498.842	3.21
499.193	3.15
499.544	3.32
499.894	3.18
500.245	3.31
500.596	3.31
500.947	3.34
501.298	3.37
501.648	3.44
501.999	3.46
502.35	3.36
502.7	3.5
503.051	3.53
503.401	3.49
503.752	3.45
504.102	3.37
504.452	3.3
504.803	3.38
505.153	3.44
505.503	3.28
505.853	3.57
506.203	3.4
506.553	3.49
506.903	3.58
507.253	3.32
507.603	3.43
507.953	3.63
508.303	3.49
508.652	3.51
509.002	3.54
509.352	3.45
509.701	3.58
510.051	3.46
510.4	3.47
510.75	3.51
511.099	3.49
511.449	3.47
511.798	3.52
512.147	3.47
512.496	3.51
512.846	3.47
513.195	3.6
513.544	3.54
513.893	3.54
514.242	3.47
514.591	3.52
514.939	3.47
515.288	3.52
515.637	3.62
515.986	3.47
516.334	3.66
516.683	3.7
517.032	3.67
517.38	3.68
517.729	3.67
518.077	3.71
518.426	3.69
518.774	3.62
519.122	3.56
519.47	3.57
519.819	3.61
520.167	3.66
520.515	3.61
520.863	3.56
521.211	3.62
521.559	3.69
521.907	3.63
522.255	3.66
522.602	3.67
522.95	3.6
523.298	3.76
523.645	3.75
523.993	3.73
524.341	3.72
524.688	3.82
525.036	3.71
525.383	3.76
525.73	3.91
526.078	3.8
526.425	3.8
526.772	3.84
527.119	3.73
527.466	3.61
527.814	3.68
528.161	3.61
528.508	3.73
528.854	3.81
529.201	3.76
529.548	3.75
529.895	3.73
530.242	3.69
530.588	3.61
530.935	3.53
531.282	3.62
531.628	3.72
531.975	3.7
532.321	3.68
532.667	3.82
533.014	3.85
533.36	3.91
533.706	3.9
534.052	3.91
534.399	3.94
534.745	3.87
535.091	3.83
535.437	3.8
535.783	3.71
536.129	3.82
536.474	3.92
536.82	3.84
537.166	4.02
537.512	4.03
537.857	3.97
538.203	4.01
538.549	3.94
538.894	3.97
539.239	3.93
539.585	3.95
539.93	4.11
540.276	4.04
540.621	3.99
540.966	4.11
541.311	4.27
541.656	4.01
542.001	4.14
542.346	4.14
542.691	4.12
543.036	4.06
543.381	4
543.726	3.91
544.071	4.02
544.415	4.06
544.76	4.01
545.105	4.04
545.449	4.04
545.794	4.13
546.138	4.16
546.483	4.2
546.827	4.21
547.171	4.27
547.516	4.31
547.86	4.27
548.204	4.3
548.548	4.28
548.892	4.34
549.236	4.22
549.58	4.41
549.924	4.37
550.268	4.5
550.612	4.4
550.956	4.38
551.3	4.5
551.643	4.5
551.987	4.46
552.33	4.57
552.674	4.49
553.017	4.39
553.361	4.58
553.704	4.6
554.048	4.6
554.391	4.5
554.734	4.61
555.077	4.45
555.42	4.49
555.764	4.61
556.107	4.52
556.45	4.57
556.793	4.62
557.135	4.68
557.478	4.64
557.821	4.68
558.164	4.82
558.507	4.87
558.849	4.71
559.192	4.8
559.534	4.95
559.877	4.68
560.219	4.81
560.562	4.75
560.904	4.92
561.246	4.97
561.589	4.88
561.931	4.72
562.273	4.86
562.615	4.75
562.957	4.87
563.299	4.9
563.641	4.97
563.983	5
564.325	5
564.667	5.03
565.008	4.97
565.35	5.01
565.692	4.98
566.033	5.1
566.375	4.95
566.716	5.05
567.058	5.15
567.399	4.94
567.741	5.22
568.082	5.04
568.423	5.14
568.764	5.19
569.105	4.94
569.447	5.17
569.788	4.99
570.129	5.18
570.47	5.22
570.811	5.22
571.151	5.29
571.492	5.11
571.833	5.27
572.174	5.45
572.514	5.3
572.855	5.15
573.195	5.12
573.536	5.38
573.876	5.27
574.217	5.37
574.557	5.28
574.898	5.41
575.238	5.49
575.578	5.49
575.918	5.51
576.258	5.41
576.598	5.53
576.938	5.41
577.278	5.66
577.618	5.38
577.958	5.61
578.298	5.54
578.638	5.42
578.977	5.59
579.317	5.6
579.657	5.76
579.996	5.52
580.336	5.89
580.675	5.78
581.014	5.6
581.354	5.49
581.693	5.94
582.032	5.92
582.372	5.82
582.711	5.76
583.05	5.86
583.389	5.85
583.728	5.98
584.067	5.91
584.406	6.1
584.745	5.65
585.083	6.19
585.422	6.04
585.761	5.95
586.1	5.99
586.438	5.89
586.777	5.93
587.115	6.01
587.454	6.04
587.792	5.95
588.13	6.01
588.469	5.98
588.807	6.12
589.145	6.2
589.483	6.25
589.821	6.06
590.159	6.25
590.497	6.3
590.835	6.17
591.173	6.33
591.511	6.41
591.849	6.3
592.187	6.22
592.524	6.42
592.862	6.26
593.2	6.13
593.537	6.06
593.875	6.44
594.212	6.63
594.55	6.59
594.887	6.53
595.224	6.55
595.561	6.58
595.899	6.55
596.236	6.7
596.573	6.55
596.91	6.48
597.247	6.53
597.584	6.77
597.921	6.77
598.258	6.68
598.594	6.88
598.931	6.72
599.268	6.56
599.604	6.73
599.941	6.67
600.277	6.68
600.614	6.92
600.95	6.8
601.287	6.6
601.623	6.94
601.959	6.86
602.296	6.94
602.632	6.82
602.968	6.95
603.304	7.13
603.64	7.11
603.976	7.09
604.312	7.14
604.648	6.95
604.984	7.1
605.319	7.18
605.655	7.07
605.991	7.13
606.326	7.19
606.662	6.91
606.998	6.93
607.333	7.14
607.668	6.97
608.004	7.13
608.339	7.2
608.674	7.3
609.01	7.32
609.345	7.25
609.68	7.37
610.015	7.35
610.35	7.42
610.685	7.8
611.02	7.35
611.355	7.57
611.689	7.39
612.024	7.44
612.359	7.31
612.694	7.3
613.028	7.45
613.363	7.38
613.697	7.5
614.032	7.42
614.366	7.47
614.7	7.56
615.035	7.73
615.369	7.54
615.703	7.91
616.037	7.77
616.371	7.58
616.705	7.96
617.039	8.08
617.373	7.69
617.707	7.85
618.041	7.76
618.375	8
618.709	8.11
619.042	7.48
619.376	7.71
619.71	7.91
620.043	7.67
620.377	8.06
620.71	8.12
621.043	8.3
621.377	8.14
621.71	8.21
622.043	8.13
622.376	8.45
622.709	7.99
623.043	8.47
623.376	8.36
623.709	8.3
624.041	8.03
624.374	8.28
624.707	8.47
625.04	8.07
625.373	8.19
625.705	8.33
626.038	8.65
626.37	8.63
626.703	8.64
627.035	8.12
627.368	8.74
627.7	8.95
628.032	8.88
628.365	8.57
628.697	8.41
629.029	8.78
629.361	8.64
629.693	8.65
630.025	8.56
630.357	8.33
630.689	8.64
631.021	8.63
631.353	8.48
631.684	8.72
632.016	8.8
632.348	8.8
632.679	8.72
633.011	8.99
633.342	8.77
633.674	8.91
634.005	8.56
634.336	9.02
634.668	9.15
634.999	9.1
635.33	9.05
635.661	8.85
635.992	8.85
636.323	9.17
636.654	8.84
636.985	9.06
637.316	9.17
637.647	9.15
637.977	8.83
638.308	9.29
638.639	9.04
638.969	9.27
639.3	9.13
639.63	9.3
639.961	8.92
640.291	9.04
640.622	9.69
640.952	9.32
641.282	9.75
641.612	9.33
641.943	9.73
642.273	9.56
642.603	9.67
642.933	9.58
643.263	9.33
643.592	9.35
643.922	9.91
644.252	9.27
644.582	10.15
644.911	9.48
645.241	9.59
645.571	10.02
645.9	9.93
646.23	10.11
646.559	10
646.888	9.87
647.218	9.84
647.547	9.45
647.876	9.95
648.205	9.75
648.534	10.06
648.863	9.95
649.192	9.68
649.521	10.15
649.85	10.59
650.179	9.94
650.508	9.61
650.837	10.55
651.165	10.12
651.494	10.28
651.822	10.2
652.151	9.94
652.479	10.15
652.808	10.07
653.136	10.54
653.465	10.25
653.793	10
654.121	10.51
654.449	10.1
654.777	10.52
655.105	10.55
655.433	10.87
655.761	10.96
656.089	10.32
656.417	10.39
656.745	10.47
657.073	10.57
657.4	10.94
657.728	10.85
658.056	10.39
658.383	11.04
658.711	10.4
659.038	10.53
659.365	10.55
659.693	10.66
660.02	10.91
660.347	11
660.674	11.04
661.001	10.37
661.329	10.44
661.656	10.82
661.982	10.49
662.309	11.21
662.636	10.93
662.963	10.92
663.29	10.81
663.616	10.88
663.943	11.18
664.27	11.18
664.596	11.26
664.923	11.11
665.249	11.55
665.576	10.73
665.902	10.89
666.228	10.86
666.554	10.73
666.881	11.68
667.207	11.19
667.533	11.19
667.859	11.11
668.185	11.5
668.511	11.84
668.837	10.89
669.162	11.51
669.488	11.02
669.814	11.76
670.139	11.34
670.465	11.56
670.791	11.2
671.116	12.12
671.442	11.93
671.767	10.9
672.092	11.95
672.418	12.5
672.743	11.55
673.068	11.66
673.393	11.83
673.718	12.11
674.043	11.67
674.368	11.94
674.693	12.27
675.018	12.08
675.343	12.4
675.667	11.96
675.992	11.24
676.317	12.29
676.641	11.79
676.966	12.3
677.29	11.36
677.615	12.41
677.939	12.97
678.264	12.67
678.588	12.46
678.912	12.38
679.236	12.52
679.56	12.57
679.885	12.04
680.209	12.58
680.532	12.53
680.856	12.43
681.18	12.25
681.504	12.74
681.828	12.58
682.152	11.71
682.475	12.8
682.799	12.31
683.122	12.34
683.446	12.3
683.769	12.68
684.093	12.77
684.416	12.32
684.739	12.18
685.062	12.77
685.386	12.45
685.709	12.54
686.032	12.2
686.355	12.77
686.678	12.71
687.001	13.24
687.324	13.24
687.646	13.26
687.969	13.62
688.292	13.31
688.614	13.65
688.937	13.05
689.26	12.83
689.582	13.3
689.904	12.63
690.227	12.85
690.549	13.5
690.871	12.5
691.194	13.07
691.516	13.31
691.838	13.17
692.16	13.19
692.482	13.24
692.804	12.69
693.126	12.76
693.448	14.27
693.769	13.27
694.091	13.44
694.413	13.48
694.735	13.54
695.056	13.87
695.378	13.84
695.699	13.76
696.021	12.98
696.342	14.63
696.663	12.91
696.984	12.89
697.306	13.32
697.627	13.12
697.948	13.19
698.269	13.09
698.59	13.5
698.911	13.96
699.232	14.21
699.553	13.67
699.873	14.88
700.194	13.04
700.515	12.92
700.835	14.48
701.156	13.95
701.477	13.92
701.797	13.81
702.117	14.62
702.438	13.78
702.758	13.36
703.078	13.74
703.398	14.42
703.719	14.23
704.039	14.24
704.359	14.21
704.679	13.03
704.999	14.1
705.319	13.82
705.638	13.72
705.958	14.19
706.278	15.1
706.597	14.83
706.917	14.37
707.237	14.09
707.556	13.51
707.876	14.21
708.195	14.57
708.514	14.27
708.834	14.69
709.153	15.68
709.472	13.95
709.791	15.2
710.11	14.35
710.429	15.06
710.748	14.94
711.067	14.69
711.386	15.26
711.705	14.04
712.023	14.77
712.342	14.97
712.661	15.33
712.979	14.82
713.298	14.61
713.616	14.29
713.935	15.91
714.253	15.82
714.572	15.98
714.89	15.64
715.208	16.04
715.526	15.21
715.844	15.32
716.162	15.35
716.48	15.8
716.798	14.93
717.116	15.56
717.434	15.58
717.752	15.75
718.069	14.62
718.387	15.93
718.705	14.97
719.022	15.77
719.34	15.72
719.657	14.93
719.975	16.31
720.292	15.42
720.609	16.64
720.927	17.15
721.244	15.01
721.561	16.34
721.878	15.1
722.195	15.04
722.512	16.33
722.829	16.23
723.146	16.62
723.463	15.53
723.779	14.83
724.096	14.95
724.413	16.57
724.729	16.7
725.046	16.65
725.362	15.82
725.679	14.96
725.995	15.71
726.311	15.29
726.628	15.87
726.944	15.8
727.26	15.33
727.576	16.22
727.892	14.95
728.208	17.55
728.524	17.85
728.84	15.57
729.156	16.02
729.472	17.88
729.787	15.83
730.103	15.76
730.419	16.38
730.734	15.79
731.05	15.42
731.365	15.76
731.681	16.62
731.996	16.91
732.311	16.03
732.626	15.1
732.942	15.67
733.257	16.4
733.572	15.99
733.887	15.96
734.202	17.08
734.517	16.82
734.832	16.7
735.146	15.94
735.461	17.78
735.776	16.39
736.091	16.92
736.405	16.75
736.72	17.7
737.034	16.36
737.349	16.34
737.663	16.4
737.977	17.89
738.292	17
738.606	15.51
738.92	16.64
739.234	16.47
739.548	17.52
739.862	16.82
740.176	16.58
740.49	16.09
740.804	16.92
741.117	17.92
741.431	17.57
741.745	16.95
742.058	15.66
742.372	15.7
742.685	16.66
742.999	16.82
743.312	17.56
743.626	15.77
743.939	16.16
744.252	16.05
744.565	14.85
744.878	17.38
745.191	17.44
745.505	17.25
745.817	16.7
746.13	19.01
746.443	18.78
746.756	17.54
747.069	18.61
747.381	16.79
747.694	16.03
748.007	18.06
748.319	16.88
748.632	18.19
748.944	18.2
749.256	18.57
749.569	17.24
749.881	18.81
750.193	19.27
750.505	18.54
750.817	16.78
751.129	18.68
751.441	17.99
751.753	20.02
752.065	21.19
752.377	20.32
752.689	17.02
753	16.51
753.312	16.79
753.624	18.34
753.935	19.43
754.247	17.49
754.558	19.9
754.869	18.4
755.181	16.87
755.492	17.66
755.803	19.74
756.114	19.62
756.425	21.11
756.736	17.51
757.047	18.66
757.358	19
757.669	16.39
757.98	17.73
758.291	18.47
758.601	19.14
758.912	18.5
759.223	20.73
759.533	17.49
759.844	20.59
760.154	18.04
760.464	18.31
760.775	21.47
761.085	21.17
761.395	18.66
761.705	18.96
762.016	18.64
762.326	18.82
762.636	19.78
762.945	17.6
763.255	19.43
763.565	18.9
763.875	17.93
764.185	21.22
764.494	20.37
764.804	18.03
765.113	19.21
765.423	18.17
765.732	18.59
766.042	19.92
766.351	19.45
766.66	19.68
766.97	20.21
767.279	19.98
767.588	20.36
767.897	20.63
768.206	21.05
768.515	19.71
768.824	21.63
769.133	19.68
769.441	19.47
769.75	20.74
770.059	19.91
770.367	18
770.676	20.45
770.984	19.24
771.293	20.41
771.601	23.69
771.91	22.43
772.218	19.4
772.526	19.65
772.834	18.55
773.142	18.97
773.45	18.38
773.758	19.44
774.066	18.36
774.374	20.79
774.682	19.3
774.99	18.83
775.298	20.55
775.605	23.23
775.913	23.73
776.22	19.73
776.528	21.25
776.835	17.57
777.143	23.04
777.45	22.56
777.757	19.37
778.065	23.2
778.372	18.59
778.679	20.54
778.986	21.74
779.293	17.65
779.6	21.31
779.907	21.38
780.214	23.15
780.52	19.49
780.827	20.75
781.134	21.11
781.44	20.3
781.747	21.05
782.053	20.44
782.36	22.31
782.666	22.02
782.973	26.27
783.279	21.41
783.585	20.64
783.891	22.32
784.197	23.13
784.503	21.54
784.809	22.85
785.115	22.67
785.421	23.32
785.727	23.23
786.033	20.85
786.339	22.53
786.644	23.02
786.95	21.51
787.255	22.62
787.561	21.93
787.866	20.04
788.172	20.53
788.477	20.85
788.782	18.34
789.088	18.87
789.393	17.39
789.698	21.21
790.003	24.14
790.308	20.68
790.613	21.33
790.918	20.27
791.223	20.04
791.527	18.45
791.832	23.61
792.137	20.25
792.441	22.2
792.746	25.2
793.05	24.43
793.355	26.88
793.659	22.43
793.963	27.78
794.268	18.78
794.572	21.35
794.876	21.04
795.18	23.14
795.484	20.01
795.788	20.37
796.092	20.54
796.396	20.88
796.7	23.44
797.004	19.57
797.307	18.04
797.611	19.59
797.915	21.1
798.218	20.73
798.522	20.05
798.825	27.78
799.128	27.62
799.432	22.84
799.735	23.07
800.038	23.03
800.341	19.41
800.644	23.98
800.947	21.37
801.25	26.77
801.553	23.68
801.856	26.59
802.159	24.18
802.462	23.55
802.764	22.44
803.067	21.58
803.37	22.63
803.672	21.64
803.975	21.11
804.277	24.74
804.579	27.73
804.882	23.13
805.184	22.8
805.486	20.61
805.788	23.3
806.09	23.8
806.392	26.73
806.694	22.82
806.996	19.01
807.298	24.93
807.6	29.06
807.902	21.93
808.203	27.1
808.505	23.47
808.807	24.87
809.108	29.19
809.409	26.67
809.711	23.73
810.012	23.46
810.313	20.59
810.615	24.82
810.916	21.38
811.217	23.97
811.518	21.44
811.819	24.93
812.12	26.81
812.421	24.11
812.722	22.04
813.023	21.11
813.323	22.55
813.624	30.1
813.925	28.77
814.225	28.5
814.526	24.51
814.826	26.61
815.126	29.22
815.427	22.02
815.727	24.99
816.027	22.57
816.327	23.79
816.627	24.52
816.927	28.1
817.227	22.29
817.527	24.17
817.827	24.09
818.127	22.42
818.427	26.45
818.727	19.71
819.026	26.76
819.326	25.93
819.625	22.9
819.925	26.11
820.224	28.15
820.524	24.71
820.823	18.76
821.122	18.06
821.421	26.17
821.72	23.9
822.019	28.68
822.318	22.83
822.617	20.53
822.916	24.95
823.215	22.47
823.514	25.88
823.813	26.19
824.111	28.37
824.41	24.93
824.709	25.44
825.007	24.87
825.306	25.51
825.604	24.03
825.902	24.78
826.201	25.26
826.499	25.37
826.797	25.34
827.095	26.09
827.393	25.68
827.691	26.22
827.989	25.4
828.287	27.72
828.585	25.84
828.882	26.66
829.18	26.96
829.478	24.91
829.775	22.45
830.073	25.34
830.37	25.36
830.668	24.71
830.965	28.67
831.263	26.28
831.56	27.56
831.857	28.36
832.154	26.87
832.451	23.98
832.748	26.37
833.045	26.83
833.342	29.17
833.639	29.46
833.936	25.02
834.232	24.85
834.529	34.52
834.826	21.51
835.122	28.8
835.419	22.62
835.715	26.33
836.012	26.15
836.308	26.92
836.604	25.95
836.901	25.24
837.197	29.31
837.493	26.29
837.789	22.97
838.085	26.31
838.381	26.9
838.677	27.91
838.972	27.46
839.268	26.53
839.564	28.83
839.86	27.74
840.155	27.36
840.451	26.03
840.746	26.7
841.042	27.85
841.337	28.13
841.632	37.3
841.928	38.52
842.223	27.17
842.518	35.67
842.813	27.41
843.108	17.3
843.403	35.43
843.698	38.52
843.993	24.83
844.287	27.61
844.582	30.13
844.877	23.35
845.171	32.95
845.466	23.5
845.761	22.71
846.055	28.17
846.349	36.24
846.644	22.48
846.938	33.1
847.232	34.18
847.526	30.97
847.82	30.38
848.114	24.86
848.408	20.75
848.702	10.41
848.996	15.11
849.29	30.46
849.584	23.92
849.877	36.93
850.171	27.14
850.465	1.82
850.758	22.89
851.052	36.49
851.345	25.42
851.638	23.15
851.932	35.88
852.225	41.45
852.518	37.15
852.811	37.33
853.104	39.84
853.397	23.81
853.69	5.32
853.983	25.85
854.276	11.75
854.569	32.95
854.861	32.23
855.154	33.54
855.447	27.52
855.739	11.15
856.032	32.99
856.324	37.25
856.616	13.32
856.909	35.99
857.201	14.59
857.493	30.01
857.785	16.34
858.077	41.61
858.369	33.15
858.661	30.69
858.953	28.31
859.245	38.14
859.537	26.68
859.829	35.17
860.12	19.95
860.412	40.75
860.703	11.3
860.995	21.75
861.286	31.73
861.578	35.92
861.869	40.88
862.16	28.27
862.452	-3.2
862.743	43.15
863.034	45.73
863.325	34.7
863.616	28.68
863.907	18.7
864.198	-2.64
864.488	33.17
864.779	18.73
865.07	22.87
865.36	20.02
865.651	37.34
865.941	9.16
866.232	21.78
866.522	33.25
866.813	45.52
867.103	42.47
867.393	49.06
867.683	22.79
867.973	28.09
868.263	25.02
868.553	18.97
868.843	34.38
869.133	13.44
869.423	13.66
869.713	23.33
870.002	45.23
870.292	21.83
870.582	26.88
870.871	17.49
871.161	32.47
871.45	15.54
871.739	8.69
872.029	46.11
872.318	27.07
872.607	47.37
872.896	7.22
873.185	24.15
873.474	37.65
873.763	15.3
874.052	20.85
874.341	45.44
874.63	34.1
874.918	40.46
875.207	50.94
875.496	20.93
875.784	22.78
876.073	30.51
876.361	46.8
876.649	19.51
876.938	44.64
877.226	-4.27
877.514	46.71
877.802	31.22
878.09	40.84
878.378	28.17
878.666	37.43
878.954	25.88
879.242	32.65
879.53	48.71
879.817	17.26
880.105	33.14
880.392	38.45
880.68	43.43
880.967	51.03
881.255	8.12
881.542	39.38
881.83	34.25
882.117	31.94
882.404	38.9
882.691	5.24
882.978	11.76
883.265	13.66
883.552	41.75
883.839	14.5
884.126	33.25
884.413	15.16
884.699	33.17
884.986	33.16
885.273	20.9
885.559	20.9
885.846	20.9
