Data from 0153_forehead_Reflection__2__48.txt Node

Date: Fri Sep 22 20:42:22 CDT 2023
User: ToomeyLab
Spectrometer: FLMS14357
Trigger mode: 0
Integration Time (sec): 1.000000E-2
Scans to average: 100
Electric dark correction enabled: true
Nonlinearity correction enabled: false
Boxcar width: 0
XAxis mode: Wavelengths
Number of Pixels in Spectrum: 2048
>>>>>Begin Spectral Data<<<<<
189.047	-38.14
189.435	-38.14
189.823	-38.14
190.211	-74.95
190.599	319.44
190.987	585.71
191.375	622.19
191.763	62.81
192.151	248.19
192.538	110.36
192.926	27.16
193.314	3.67
193.702	68.89
194.089	156.98
194.477	71.65
194.864	263.17
195.252	-21.89
195.639	89.88
196.027	-72.41
196.414	93.3
196.801	-3.12
197.189	20.52
197.576	65.1
197.963	-59.86
198.351	75.14
198.738	33.21
199.125	71.75
199.512	20.74
199.899	81.54
200.286	67.4
200.673	19.52
201.06	16.78
201.447	49.55
201.833	14.91
202.22	30.35
202.607	75.25
202.994	68.92
203.38	38.18
203.767	5.89
204.154	42.19
204.54	28.52
204.927	8.68
205.313	47.68
205.699	40.78
206.086	39.34
206.472	43.57
206.858	30
207.245	41.06
207.631	31.62
208.017	17.42
208.403	31.19
208.789	29.18
209.175	55.09
209.561	28.85
209.947	49.95
210.333	30.4
210.719	13.19
211.105	48.65
211.491	8.56
211.876	30.45
212.262	39.06
212.648	34.05
213.034	28.65
213.419	19.57
213.805	14.17
214.19	23.55
214.576	20.93
214.961	22.77
215.346	24.19
215.732	27.75
216.117	13.95
216.502	33.97
216.888	26.06
217.273	23.9
217.658	15.34
218.043	38.38
218.428	46.71
218.813	17.67
219.198	6.73
219.583	3.95
219.968	20.59
220.353	34.36
220.738	19.34
221.122	12.44
221.507	13.51
221.892	11.52
222.276	19.74
222.661	-14.53
223.046	24.26
223.43	32.78
223.815	12.96
224.199	-0.73
224.583	13.86
224.968	13.63
225.352	6.26
225.736	20.58
226.121	9.34
226.505	17.53
226.889	9.22
227.273	3.85
227.657	12.42
228.041	12.48
228.425	16.3
228.809	6.02
229.193	7.7
229.577	8.29
229.961	7.77
230.344	7.3
230.728	4.88
231.112	6.68
231.495	6.03
231.879	6.18
232.263	5.88
232.646	6.5
233.03	4.75
233.413	6.18
233.797	7.67
234.18	6.96
234.563	9.91
234.946	8.73
235.33	5.34
235.713	3.89
236.096	6.67
236.479	4.86
236.862	8.38
237.245	5.45
237.628	6.78
238.011	9.61
238.394	6.26
238.777	7.28
239.16	7.23
239.543	7.04
239.925	7.52
240.308	6.88
240.691	6.41
241.073	7.88
241.456	6.64
241.838	6.27
242.221	6.52
242.603	5.63
242.986	6.85
243.368	5.21
243.75	6.37
244.133	6.34
244.515	5.56
244.897	5.34
245.279	5.28
245.661	5.85
246.043	5.67
246.425	5.1
246.807	5.75
247.189	5.64
247.571	6.98
247.953	6.46
248.335	5.87
248.717	6.06
249.098	5.17
249.48	5.29
249.862	5.73
250.243	5.56
250.625	6.13
251.006	5.19
251.388	6.11
251.769	6.31
252.151	5.38
252.532	5.69
252.913	5.92
253.295	6.37
253.676	5.75
254.057	5.59
254.438	5.8
254.819	5.62
255.2	6.07
255.581	6.23
255.962	6.54
256.343	6.36
256.724	5.67
257.105	7.16
257.486	5.7
257.867	5.2
258.247	5.78
258.628	6.76
259.009	5.74
259.389	5.36
259.77	6.09
260.15	5.96
260.531	6.02
260.911	5.39
261.292	5.19
261.672	5.25
262.052	5.24
262.432	5.48
262.813	5.54
263.193	5.2
263.573	6.32
263.953	6.04
264.333	5.7
264.713	5.44
265.093	6.36
265.473	5.56
265.853	5.74
266.233	5.33
266.612	5.77
266.992	6.13
267.372	5.83
267.752	5.61
268.131	5.81
268.511	5.4
268.89	5.85
269.27	5.25
269.649	5.36
270.029	5.67
270.408	5.76
270.787	5.38
271.167	5.69
271.546	4.82
271.925	5.61
272.304	5.35
272.683	5.44
273.062	5.45
273.441	5.36
273.82	5.8
274.199	5.46
274.578	5.75
274.957	5.44
275.336	5.32
275.715	5.78
276.093	5.34
276.472	5.34
276.851	5.61
277.229	4.6
277.608	5.06
277.986	5.44
278.365	5.57
278.743	5.55
279.122	5.49
279.5	5.95
279.878	5.57
280.257	5.96
280.635	5.5
281.013	5.75
281.391	5.54
281.769	5.96
282.147	5.71
282.525	5.07
282.903	5.54
283.281	5.41
283.659	5.44
284.037	4.65
284.415	5.53
284.792	5.38
285.17	5.1
285.548	6.12
285.925	5.25
286.303	5.64
286.68	5.09
287.058	4.95
287.435	5.4
287.813	4.99
288.19	5.12
288.567	5.64
288.945	5.51
289.322	5.41
289.699	5.66
290.076	5.54
290.453	5.18
290.83	5.43
291.207	5.22
291.584	5.32
291.961	5.56
292.338	5.73
292.715	5.84
293.092	5.65
293.469	5.74
293.845	5.55
294.222	6.12
294.599	6.52
294.975	5.81
295.352	6.3
295.728	6.02
296.105	6.26
296.481	5.86
296.858	6.2
297.234	5.67
297.61	6.07
297.986	6.14
298.363	5.75
298.739	6.14
299.115	6.22
299.491	6.07
299.867	6.32
300.243	6.3
300.619	6.17
300.995	6.2
301.371	6.81
301.746	6.84
302.122	6.47
302.498	6.86
302.874	6.29
303.249	6.52
303.625	6.84
304	6.88
304.376	6.81
304.751	6.99
305.127	7.22
305.502	7.33
305.878	7.34
306.253	6.88
306.628	7.08
307.003	7.11
307.378	6.71
307.754	7.25
308.129	7.12
308.504	7.09
308.879	7.74
309.254	7.17
309.629	7.34
310.003	7.91
310.378	8.65
310.753	7.75
311.128	7.87
311.502	7.83
311.877	7.27
312.252	7.71
312.626	7.55
313.001	8.16
313.375	8.02
313.75	8.1
314.124	8.41
314.498	7.92
314.873	8
315.247	8.49
315.621	8.21
315.995	8.19
316.369	8.44
316.743	8.48
317.117	8.99
317.491	8.89
317.865	8.04
318.239	9.16
318.613	8.58
318.987	8.2
319.361	8.49
319.734	8.95
320.108	8.87
320.482	8.42
320.855	9.01
321.229	9.66
321.602	9.2
321.976	9.25
322.349	9.19
322.723	9.38
323.096	9.24
323.469	8.96
323.843	9.57
324.216	9.56
324.589	9.5
324.962	9.21
325.335	9.17
325.708	9.71
326.081	10.16
326.454	9.26
326.827	9.74
327.2	9.49
327.573	10.33
327.945	9.79
328.318	9.9
328.691	10.06
329.063	9.7
329.436	10.01
329.809	9.82
330.181	10.59
330.553	10.24
330.926	10.48
331.298	10.31
331.671	10.57
332.043	9.68
332.415	10.24
332.787	11.01
333.159	10.19
333.532	10.32
333.904	10.82
334.276	10.77
334.648	9.96
335.02	10.26
335.391	10.59
335.763	10.48
336.135	10.73
336.507	10.71
336.879	11.13
337.25	10.96
337.622	11.36
337.993	10.74
338.365	11.55
338.736	11.09
339.108	10.66
339.479	11.15
339.851	11.14
340.222	10.87
340.593	11.21
340.964	11.02
341.336	11.08
341.707	11.1
342.078	11.68
342.449	11.26
342.82	11.44
343.191	10.86
343.562	11.31
343.933	11.33
344.303	11.72
344.674	11.85
345.045	11.5
345.416	11.76
345.786	11.44
346.157	11.58
346.527	11.62
346.898	11.61
347.268	11.5
347.639	11.78
348.009	11.58
348.38	12.37
348.75	11.66
349.12	12.12
349.49	12.3
349.861	12.09
350.231	12.16
350.601	12.38
350.971	12.19
351.341	12.22
351.711	12.35
352.081	11.99
352.45	12.35
352.82	12.53
353.19	12.71
353.56	12.31
353.929	12.68
354.299	12.46
354.669	12.65
355.038	12.36
355.408	12.1
355.777	13.1
356.147	12.5
356.516	12.46
356.885	12.28
357.254	13.12
357.624	12.68
357.993	12.62
358.362	12.83
358.731	13.11
359.1	12.62
359.469	13.04
359.838	12.72
360.207	12.98
360.576	13.31
360.945	12.96
361.314	13.14
361.682	13.41
362.051	13.51
362.42	13.19
362.788	13.05
363.157	13.34
363.525	13.17
363.894	13.22
364.262	13.37
364.631	13.44
364.999	13.48
365.367	13.88
365.735	13.79
366.104	14.04
366.472	13.72
366.84	13.71
367.208	13.94
367.576	13.99
367.944	13.74
368.312	13.98
368.68	14
369.048	14.19
369.416	14.04
369.783	14.13
370.151	14.34
370.519	14.42
370.886	14.14
371.254	14.3
371.621	14.08
371.989	14.42
372.356	14.39
372.724	14.45
373.091	14.46
373.458	14.61
373.826	14.96
374.193	14.43
374.56	14.67
374.927	14.9
375.294	14.62
375.661	14.5
376.028	15.01
376.395	14.79
376.762	14.9
377.129	15.21
377.496	15.16
377.863	15.04
378.229	14.85
378.596	14.94
378.963	15.53
379.329	15.42
379.696	15.3
380.062	14.87
380.429	15.08
380.795	15.16
381.161	15.33
381.528	15.24
381.894	15.15
382.26	15.41
382.626	15.29
382.993	15.69
383.359	15.32
383.725	15.53
384.091	15.8
384.457	15.8
384.823	15.63
385.188	15.85
385.554	16.04
385.92	16.01
386.286	15.86
386.651	15.91
387.017	15.87
387.383	15.93
387.748	15.86
388.114	15.78
388.479	16.18
388.845	15.83
389.21	16.12
389.575	16.34
389.94	16.32
390.306	16.28
390.671	16.66
391.036	16.12
391.401	16.22
391.766	16.32
392.131	16.28
392.496	16.53
392.861	16.37
393.226	16.71
393.591	16.66
393.956	16.39
394.32	16.52
394.685	16.56
395.05	16.99
395.414	16.79
395.779	16.82
396.143	16.62
396.508	16.8
396.872	16.78
397.236	16.92
397.601	16.74
397.965	17.23
398.329	17.14
398.694	17.02
399.058	17.08
399.422	17.02
399.786	17.15
400.15	17.4
400.514	17.32
400.878	17.23
401.242	17.44
401.605	17.14
401.969	17.03
402.333	17.6
402.697	17.49
403.06	17.37
403.424	17.79
403.787	17.58
404.151	17.62
404.514	17.85
404.878	17.84
405.241	17.78
405.604	17.88
405.968	17.78
406.331	17.82
406.694	17.84
407.057	17.65
407.42	17.88
407.783	17.94
408.146	17.84
408.509	17.66
408.872	18.05
409.235	18.16
409.598	18.01
409.961	18.47
410.323	18.21
410.686	18.4
411.049	18.24
411.411	18.53
411.774	18.37
412.136	18.4
412.499	18.32
412.861	18.28
413.223	18.33
413.586	18.59
413.948	18.59
414.31	18.46
414.672	18.47
415.035	18.57
415.397	18.86
415.759	18.87
416.121	18.62
416.483	18.79
416.845	18.55
417.206	18.68
417.568	18.8
417.93	18.66
418.292	18.98
418.653	18.8
419.015	19.03
419.377	18.91
419.738	19.2
420.1	18.94
420.461	18.83
420.822	18.96
421.184	18.9
421.545	18.92
421.906	18.94
422.267	18.97
422.629	19.06
422.99	18.99
423.351	18.85
423.712	19.05
424.073	19.04
424.434	19.28
424.795	19.24
425.155	19.37
425.516	19.27
425.877	19.34
426.238	19.3
426.598	19.36
426.959	19.46
427.32	19.57
427.68	19.6
428.041	19.64
428.401	19.77
428.761	19.91
429.122	20.09
429.482	20.09
429.842	20.08
430.202	20.22
430.563	20.28
430.923	20.38
431.283	20.4
431.643	20.67
432.003	20.29
432.363	20.57
432.722	20.51
433.082	20.56
433.442	20.58
433.802	20.86
434.161	20.49
434.521	20.76
434.881	20.85
435.24	20.77
435.6	20.59
435.959	20.82
436.319	20.79
436.678	21.03
437.037	20.84
437.396	20.95
437.756	20.96
438.115	20.94
438.474	21.32
438.833	21.37
439.192	21.22
439.551	21.23
439.91	21.45
440.269	21.35
440.628	21.32
440.987	21.49
441.345	21.46
441.704	21.52
442.063	21.36
442.421	21.4
442.78	21.45
443.138	21.5
443.497	21.32
443.855	21.52
444.214	21.56
444.572	21.73
444.93	21.88
445.288	21.72
445.647	22.15
446.005	21.83
446.363	21.83
446.721	22
447.079	21.95
447.437	21.97
447.795	22.03
448.153	21.76
448.51	21.96
448.868	21.93
449.226	22.02
449.584	22.12
449.941	22.15
450.299	22.19
450.656	22.44
451.014	22.44
451.371	22.48
451.729	22.56
452.086	22.59
452.443	22.76
452.801	22.96
453.158	22.88
453.515	22.93
453.872	22.83
454.229	22.84
454.586	23
454.943	22.94
455.3	22.89
455.657	23.06
456.014	23.07
456.371	23.14
456.727	23.29
457.084	23.28
457.441	23.31
457.797	23.52
458.154	23.57
458.51	23.48
458.867	23.51
459.223	23.57
459.58	23.49
459.936	23.82
460.292	23.75
460.648	23.73
461.005	23.59
461.361	23.7
461.717	23.43
462.073	23.45
462.429	23.33
462.785	23.54
463.141	23.69
463.496	23.84
463.852	23.98
464.208	23.98
464.564	24.15
464.919	24.04
465.275	24.18
465.631	24.4
465.986	24.44
466.342	24.5
466.697	24.55
467.052	24.49
467.408	24.45
467.763	24.69
468.118	24.69
468.473	24.86
468.829	24.76
469.184	24.52
469.539	24.88
469.894	24.76
470.249	24.67
470.603	24.62
470.958	24.95
471.313	25.14
471.668	25.11
472.023	25.2
472.377	25.22
472.732	25.07
473.086	25.27
473.441	25.15
473.795	25.52
474.15	25.31
474.504	25.22
474.859	25.74
475.213	25.27
475.567	25.37
475.921	25.54
476.275	25.47
476.63	25.3
476.984	25.67
477.338	25.86
477.692	25.75
478.045	25.79
478.399	25.87
478.753	25.61
479.107	25.82
479.461	25.7
479.814	25.92
480.168	25.88
480.521	26.11
480.875	25.99
481.228	26.05
481.582	26.04
481.935	25.99
482.289	26.14
482.642	26.17
482.995	26.25
483.348	26.11
483.701	26.04
484.055	25.94
484.408	25.91
484.761	25.83
485.114	25.64
485.466	25.54
485.819	25.39
486.172	25.36
486.525	25.46
486.878	25.65
487.23	25.76
487.583	25.92
487.936	26.02
488.288	26.17
488.641	26.21
488.993	26.1
489.345	26
489.698	25.92
490.05	25.93
490.402	26
490.754	26.07
491.107	26.36
491.459	26.46
491.811	26.66
492.163	26.82
492.515	26.92
492.866	26.87
493.218	26.63
493.57	26.49
493.922	26.56
494.274	26.59
494.625	26.77
494.977	26.93
495.328	27.14
495.68	27.31
496.031	27.3
496.383	27.73
496.734	27.61
497.086	27.84
497.437	27.97
497.788	27.88
498.139	27.98
498.49	27.85
498.842	27.8
499.193	27.81
499.544	27.95
499.894	27.71
500.245	27.95
500.596	28.06
500.947	28.19
501.298	28.11
501.648	28.09
501.999	28.23
502.35	28.3
502.7	28.63
503.051	28.65
503.401	28.68
503.752	28.53
504.102	28.57
504.452	28.72
504.803	28.59
505.153	28.81
505.503	28.64
505.853	28.99
506.203	28.85
506.553	28.91
506.903	28.93
507.253	28.81
507.603	29.14
507.953	29.06
508.303	29.16
508.652	29.26
509.002	29.31
509.352	29.17
509.701	29.37
510.051	29.26
510.4	29.33
510.75	29.08
511.099	29.24
511.449	29.28
511.798	29.19
512.147	29.31
512.496	29.42
512.846	29.5
513.195	29.48
513.544	29.76
513.893	29.72
514.242	29.64
514.591	29.6
514.939	29.72
515.288	29.67
515.637	29.92
515.986	29.82
516.334	29.89
516.683	29.93
517.032	30.14
517.38	30.26
517.729	30.26
518.077	30.18
518.426	30.32
518.774	30.2
519.122	30.29
519.47	30.26
519.819	30.19
520.167	30.06
520.515	30.02
520.863	29.94
521.211	30.03
521.559	30.1
521.907	30.35
522.255	30.45
522.602	30.48
522.95	30.64
523.298	30.62
523.645	30.86
523.993	30.98
524.341	30.78
524.688	30.95
525.036	31.16
525.383	30.86
525.73	31.17
526.078	31.02
526.425	31.06
526.772	31
527.119	30.88
527.466	30.64
527.814	30.66
528.161	30.81
528.508	31.04
528.854	31.05
529.201	31.1
529.548	31.06
529.895	30.94
530.242	30.62
530.588	30.4
530.935	30.54
531.282	30.67
531.628	30.86
531.975	30.81
532.321	31.04
532.667	31.12
533.014	31.36
533.36	31.46
533.706	31.56
534.052	31.62
534.399	31.62
534.745	31.65
535.091	31.47
535.437	31.36
535.783	31.43
536.129	31.58
536.474	31.65
536.82	31.75
537.166	31.99
537.512	32.06
537.857	32.16
538.203	32.24
538.549	31.92
538.894	32.09
539.239	32.07
539.585	32.21
539.93	32.52
540.276	32.57
540.621	32.67
540.966	32.76
541.311	32.93
541.656	32.81
542.001	32.94
542.346	32.77
542.691	32.73
543.036	32.5
543.381	32.28
543.726	32.37
544.071	32.44
544.415	32.51
544.76	32.5
545.105	32.67
545.449	32.83
545.794	32.89
546.138	32.93
546.483	33.07
546.827	33.2
547.171	33.33
547.516	33.43
547.86	33.4
548.204	33.46
548.548	33.35
548.892	33.48
549.236	33.37
549.58	33.59
549.924	33.78
550.268	33.73
550.612	33.9
550.956	34.08
551.3	34.24
551.643	34.37
551.987	34.31
552.33	34.66
552.674	34.43
553.017	34.32
553.361	34.66
553.704	34.81
554.048	34.51
554.391	34.7
554.734	34.7
555.077	34.49
555.42	34.63
555.764	34.82
556.107	34.91
556.45	34.83
556.793	35.02
557.135	34.81
557.478	34.89
557.821	35.08
558.164	35.26
558.507	35.18
558.849	35.37
559.192	35.17
559.534	35.37
559.877	35.37
560.219	35.65
560.562	35.42
560.904	35.61
561.246	35.54
561.589	35.72
561.931	35.64
562.273	35.63
562.615	35.91
562.957	35.67
563.299	35.72
563.641	35.68
563.983	35.87
564.325	35.95
564.667	36.03
565.008	35.93
565.35	35.75
565.692	36.12
566.033	36.37
566.375	35.92
566.716	36.18
567.058	36.04
567.399	36.21
567.741	36.39
568.082	36.13
568.423	36.38
568.764	36.22
569.105	36.2
569.447	36.11
569.788	36.2
570.129	36.3
570.47	36.82
570.811	36.67
571.151	36.51
571.492	36.71
571.833	36.83
572.174	36.83
572.514	36.72
572.855	36.64
573.195	36.54
573.536	36.85
573.876	36.92
574.217	36.85
574.557	36.81
574.898	36.94
575.238	36.97
575.578	37.18
575.918	37.08
576.258	36.99
576.598	37.26
576.938	37.14
577.278	37.44
577.618	37.01
577.958	37.17
578.298	37.48
578.638	37.41
578.977	37.44
579.317	37.68
579.657	37.62
579.996	37.76
580.336	37.92
580.675	38.17
581.014	37.82
581.354	37.92
581.693	38.13
582.032	38.14
582.372	38.2
582.711	38.58
583.05	38.22
583.389	38.02
583.728	38.13
584.067	38.58
584.406	38.66
584.745	38.36
585.083	38.88
585.422	38.88
585.761	38.56
586.1	38.57
586.438	38.86
586.777	38.9
587.115	38.96
587.454	38.77
587.792	38.98
588.13	38.79
588.469	38.75
588.807	38.82
589.145	39.05
589.483	39.19
589.821	39.15
590.159	39.11
590.497	39.16
590.835	39.16
591.173	38.98
591.511	39.24
591.849	38.95
592.187	39.52
592.524	39.07
592.862	39.04
593.2	39.4
593.537	39.47
593.875	39.25
594.212	39.78
594.55	39.69
594.887	39.99
595.224	39.36
595.561	39.73
595.899	39.87
596.236	39.89
596.573	39.93
596.91	39.94
597.247	39.76
597.584	40.14
597.921	39.96
598.258	39.85
598.594	39.96
598.931	39.66
599.268	39.92
599.604	40.15
599.941	40.1
600.277	39.83
600.614	40.18
600.95	40.19
601.287	40.15
601.623	39.98
601.959	40.63
602.296	40.54
602.632	39.91
602.968	40.75
603.304	40.56
603.64	40.66
603.976	40.83
604.312	40.56
604.648	40.95
604.984	40.8
605.319	40.81
605.655	40.34
605.991	40.73
606.326	40.74
606.662	40.4
606.998	40.87
607.333	40.93
607.668	40.7
608.004	40.93
608.339	40.99
608.674	41.22
609.01	41.1
609.345	41.19
609.68	41.3
610.015	41.24
610.35	41.43
610.685	41.75
611.02	41.29
611.355	41.52
611.689	41.64
612.024	41.6
612.359	41.33
612.694	41.54
613.028	41.46
613.363	41.63
613.697	41.52
614.032	41.62
614.366	41.98
614.7	41.93
615.035	42.1
615.369	42.04
615.703	42.08
616.037	42.18
616.371	42.06
616.705	42.58
617.039	42.5
617.373	42.18
617.707	42.68
618.041	42.47
618.375	42.49
618.709	42.51
619.042	42.73
619.376	42.83
619.71	42.44
620.043	42.23
620.377	42.73
620.71	42.87
621.043	42.82
621.377	43.01
621.71	42.52
622.043	43.12
622.376	43.12
622.709	42.63
623.043	43.3
623.376	43.2
623.709	43.31
624.041	43.18
624.374	43.09
624.707	43.12
625.04	42.97
625.373	43.09
625.705	43.04
626.038	43.48
626.37	43.69
626.703	43.01
627.035	43.5
627.368	43.53
627.7	43.61
628.032	43.38
628.365	43.66
628.697	43.72
629.029	43.68
629.361	43.77
629.693	43.74
630.025	43.63
630.357	43.83
630.689	43.6
631.021	43.45
631.353	43.68
631.684	43.86
632.016	43.58
632.348	43.9
632.679	44.05
633.011	44.41
633.342	43.77
633.674	44.09
634.005	43.93
634.336	44.42
634.668	44.01
634.999	44.41
635.33	44.17
635.661	43.95
635.992	44.15
636.323	44.19
636.654	44.26
636.985	44.21
637.316	44.5
637.647	44.52
637.977	44.48
638.308	44.76
638.639	44.4
638.969	44.5
639.3	44.32
639.63	45.25
639.961	44.65
640.291	45.15
640.622	44.48
640.952	44.5
641.282	44.84
641.612	44.77
641.943	44.71
642.273	45.28
642.603	44.94
642.933	44.74
643.263	44.85
643.592	45.15
643.922	45.26
644.252	45.12
644.582	45.34
644.911	45.56
645.241	45.93
645.571	45.69
645.9	45.39
646.23	45.69
646.559	45.55
646.888	45.94
647.218	45.35
647.547	45.88
647.876	45.62
648.205	45.65
648.534	46.09
648.863	46.01
649.192	45.34
649.521	45.93
649.85	46.2
650.179	45.99
650.508	45.23
650.837	46.14
651.165	45.97
651.494	46.08
651.822	45.65
652.151	45.99
652.479	45.69
652.808	46.27
653.136	46.19
653.465	46.56
653.793	45.67
654.121	46.14
654.449	45.7
654.777	46.16
655.105	46.53
655.433	46.33
655.761	46.94
656.089	46.14
656.417	46.6
656.745	45.71
657.073	46.4
657.4	46.53
657.728	46.55
658.056	46.76
658.383	46.74
658.711	46.18
659.038	46.82
659.365	47.05
659.693	46.57
660.02	47.13
660.347	46.99
660.674	46.69
661.001	46.7
661.329	46.52
661.656	47.05
661.982	46.46
662.309	47.29
662.636	46.82
662.963	47.06
663.29	47.02
663.616	47.28
663.943	46.97
664.27	47.19
664.596	47.17
664.923	46.99
665.249	47.66
665.576	47.1
665.902	47.41
666.228	47.14
666.554	46.41
666.881	47.69
667.207	46.44
667.533	47.16
667.859	47.29
668.185	46.78
668.511	47.2
668.837	47.29
669.162	47.32
669.488	47.59
669.814	47.46
670.139	47.35
670.465	47.5
670.791	47.59
671.116	47.51
671.442	48.12
671.767	47.28
672.092	48.06
672.418	48.09
672.743	47.41
673.068	47.35
673.393	47.68
673.718	48.4
674.043	48.23
674.368	48.01
674.693	48.55
675.018	48.19
675.343	47.48
675.667	47.26
675.992	48.05
676.317	47.81
676.641	48.36
676.966	48.31
677.29	48.18
677.615	49.21
677.939	48.98
678.264	49.3
678.588	48.82
678.912	48.66
679.236	48.72
679.56	48.35
679.885	48.75
680.209	49.45
680.532	49.04
680.856	48.72
681.18	48.62
681.504	48.69
681.828	49.27
682.152	48.71
682.475	49.53
682.799	48.49
683.122	48.88
683.446	48.98
683.769	49.53
684.093	48.68
684.416	48.7
684.739	49.24
685.062	49.06
685.386	48.99
685.709	49.85
686.032	48.95
686.355	49
686.678	49.61
687.001	48.57
687.324	49.78
687.646	50.02
687.969	49.25
688.292	49.3
688.614	49.4
688.937	48.78
689.26	49.36
689.582	49.53
689.904	49.13
690.227	49.51
690.549	49.65
690.871	49.03
691.194	49.57
691.516	49.45
691.838	48.96
692.16	49.17
692.482	49.45
692.804	49.66
693.126	48.55
693.448	49.98
693.769	49.52
694.091	49.61
694.413	49.79
694.735	49.27
695.056	49.92
695.378	49.83
695.699	49.21
696.021	49.69
696.342	50.43
696.663	48.97
696.984	49.62
697.306	49.85
697.627	49.54
697.948	51.01
698.269	49.93
698.59	50.53
698.911	49.95
699.232	49.99
699.553	50.52
699.873	48.9
700.194	49.89
700.515	49.84
700.835	50.43
701.156	50.53
701.477	50.14
701.797	50.89
702.117	50.87
702.438	50.59
702.758	50.11
703.078	50.76
703.398	50.35
703.719	49.67
704.039	50.84
704.359	50.82
704.679	49.74
704.999	50.58
705.319	49.58
705.638	50.8
705.958	51.15
706.278	51.1
706.597	51.78
706.917	50.06
707.237	50.26
707.556	50.81
707.876	50.85
708.195	51.16
708.514	51.42
708.834	51.21
709.153	51.36
709.472	50.97
709.791	50.83
710.11	49.82
710.429	51.76
710.748	50.34
711.067	52.34
711.386	50.62
711.705	50.88
712.023	51.82
712.342	51.05
712.661	51.17
712.979	51.24
713.298	51.99
713.616	50.41
713.935	51.25
714.253	51.28
714.572	50.84
714.89	51.5
715.208	51.16
715.526	51.47
715.844	51.25
716.162	51.69
716.48	51.96
716.798	50.31
717.116	51.91
717.434	51.17
717.752	51.41
718.069	50.78
718.387	51.19
718.705	50.61
719.022	52.48
719.34	51.47
719.657	51.21
719.975	52.82
720.292	50.74
720.609	51.46
720.927	52.31
721.244	52.09
721.561	51.77
721.878	52.63
722.195	51.96
722.512	52.23
722.829	53.08
723.146	51.96
723.463	52.64
723.779	52.51
724.096	50.82
724.413	53.41
724.729	52.24
725.046	52.81
725.362	52.36
725.679	52.75
725.995	51.41
726.311	51.02
726.628	53.63
726.944	52.14
727.26	53.13
727.576	52.38
727.892	51.84
728.208	52.37
728.524	52.59
728.84	51.9
729.156	52.12
729.472	53.65
729.787	52.62
730.103	53.09
730.419	51.91
730.734	52.85
731.05	50.89
731.365	52.31
731.681	53.99
731.996	53.12
732.311	52.65
732.626	52.28
732.942	51.86
733.257	53.11
733.572	52.13
733.887	52.62
734.202	53.33
734.517	54.04
734.832	52.62
735.146	52.89
735.461	53.62
735.776	54.25
736.091	52.9
736.405	53.78
736.72	54.39
737.034	53.4
737.349	52.6
737.663	52.57
737.977	53.97
738.292	52.57
738.606	52.18
738.92	53.59
739.234	53.51
739.548	53.94
739.862	53.39
740.176	52
740.49	52.94
740.804	54.41
741.117	53.64
741.431	51.18
741.745	53.81
742.058	53.96
742.372	52.48
742.685	53.06
742.999	53.33
743.312	54.39
743.626	52.01
743.939	52.52
744.252	53.55
744.565	54.35
744.878	52.77
745.191	54.86
745.505	53.14
745.817	54.67
746.13	54.74
746.443	52.22
746.756	54.74
747.069	54.13
747.381	52.22
747.694	55.02
748.007	55.05
748.319	52.69
748.632	53.14
748.944	54.67
749.256	57.12
749.569	55.16
749.881	53.24
750.193	53.41
750.505	53.51
750.817	56.01
751.129	55.37
751.441	54.81
751.753	55.52
752.065	56.15
752.377	55.86
752.689	54.11
753	55.13
753.312	55.05
753.624	53.95
753.935	55.02
754.247	53.36
754.558	54.71
754.869	53.19
755.181	53.47
755.492	53.52
755.803	55.88
756.114	54.53
756.425	55.03
756.736	53.5
757.047	53.27
757.358	55.65
757.669	54.16
757.98	54.85
758.291	52.76
758.601	54.12
758.912	55.39
759.223	54.62
759.533	54.16
759.844	54.14
760.154	55.11
760.464	55.17
760.775	54.63
761.085	53.82
761.395	53.17
761.705	54.08
762.016	52.28
762.326	54.08
762.636	55.38
762.945	55.04
763.255	53.94
763.565	53.73
763.875	53.78
764.185	55.57
764.494	56.08
764.804	54.94
765.113	53.29
765.423	54.92
765.732	56.41
766.042	55.45
766.351	54.49
766.66	54.84
766.97	55.53
767.279	56.39
767.588	56.48
767.897	55.53
768.206	55.25
768.515	55.28
768.824	55.45
769.133	54.75
769.441	54.16
769.75	55.02
770.059	55.77
770.367	55.14
770.676	56.76
770.984	53.84
771.293	54.98
771.601	56.26
771.91	56.87
772.218	55.37
772.526	55.38
772.834	55.81
773.142	57.42
773.45	54.48
773.758	54.07
774.066	56.05
774.374	54.15
774.682	51.19
774.99	53.14
775.298	56
775.605	55.87
775.913	56.8
776.22	52.84
776.528	57.98
776.835	55.3
777.143	57.85
777.45	55.25
777.757	56.93
778.065	57.14
778.372	59.66
778.679	56.03
778.986	57.45
779.293	54.62
779.6	57.14
779.907	55.67
780.214	57.41
780.52	55.89
780.827	52.95
781.134	52.09
781.44	54.57
781.747	56.35
782.053	58.77
782.36	56.67
782.666	54.77
782.973	56.72
783.279	53.53
783.585	57.43
783.891	54.88
784.197	58
784.503	54.44
784.809	60.2
785.115	54.02
785.421	55.25
785.727	56.17
786.033	54.83
786.339	56.65
786.644	59.97
786.95	57.03
787.255	56.36
787.561	57.42
787.866	54.69
788.172	61.57
788.477	54.85
788.782	57.69
789.088	54.78
789.393	53.73
789.698	56.65
790.003	56.32
790.308	54.07
790.613	57.06
790.918	55.47
791.223	56.96
791.527	55.72
791.832	56.44
792.137	57.19
792.441	56.82
792.746	58.59
793.05	60.89
793.355	58.9
793.659	55.38
793.963	56.43
794.268	54.53
794.572	53.61
794.876	54.58
795.18	54.84
795.484	56.12
795.788	59.67
796.092	55.63
796.396	59.36
796.7	56.82
797.004	54.26
797.307	62.51
797.611	55.81
797.915	58.78
798.218	54.53
798.522	55.34
798.825	58.53
799.128	56.09
799.432	56
799.735	60.28
800.038	57.01
800.341	55.89
800.644	55.3
800.947	52.61
801.25	57.27
801.553	61.81
801.856	55.48
802.159	61.17
802.462	57.28
802.764	58.4
803.067	53.7
803.37	61.11
803.672	57.87
803.975	54.94
804.277	60.52
804.579	60.76
804.882	57.39
805.184	54.82
805.486	55.1
805.788	58.79
806.09	57.43
806.392	55.36
806.694	58.17
806.996	57.1
807.298	50.34
807.6	55.68
807.902	57.29
808.203	55.55
808.505	57.13
808.807	58.68
809.108	59.53
809.409	62.59
809.711	57.78
810.012	54.54
810.313	55.67
810.615	57.16
810.916	52.39
811.217	57.63
811.518	61.86
811.819	52.03
812.12	57.24
812.421	58.61
812.722	55.88
813.023	56.5
813.323	57.06
813.624	55.93
813.925	56.56
814.225	65.67
814.526	63.58
814.826	57.15
815.126	59.02
815.427	52.21
815.727	63.37
816.027	56.11
816.327	54.54
816.627	53.36
816.927	53.49
817.227	56.55
817.527	59.34
817.827	56.87
818.127	51.29
818.427	62.82
818.727	59.65
819.026	56.6
819.326	55.24
819.625	59.62
819.925	54.58
820.224	58.86
820.524	61.77
820.823	55.72
821.122	57.56
821.421	53.79
821.72	54.64
822.019	56.65
822.318	60.19
822.617	53.16
822.916	59.09
823.215	58.8
823.514	57.91
823.813	62.15
824.111	57.93
824.41	60.96
824.709	57.56
825.007	57.96
825.306	56.93
825.604	57.1
825.902	57.84
826.201	58.52
826.499	58.2
826.797	58.82
827.095	59.34
827.393	57.61
827.691	58.16
827.989	56.3
828.287	58.31
828.585	58.63
828.882	61.9
829.18	56.57
829.478	59.88
829.775	56.16
830.073	59.22
830.37	60
830.668	59.21
830.965	59.27
831.263	58.9
831.56	57.76
831.857	57.97
832.154	56.89
832.451	62.14
832.748	55.24
833.045	57.96
833.342	57.4
833.639	61.28
833.936	55.9
834.232	57.92
834.529	55.85
834.826	58.01
835.122	56.94
835.419	55.29
835.715	53.27
836.012	58.14
836.308	63.92
836.604	62.82
836.901	60.37
837.197	58.76
837.493	58.28
837.789	56.92
838.085	60.06
838.381	62.92
838.677	55.93
838.972	57.02
839.268	59.68
839.564	61.35
839.86	56.98
840.155	56.81
840.451	57.48
840.746	57.64
841.042	69.05
841.337	62.15
841.632	56.89
841.928	54.45
842.223	60.27
842.518	64.84
842.813	74.05
843.108	48.32
843.403	63.01
843.698	65.59
843.993	57.21
844.287	64.13
844.582	63.88
844.877	55.05
845.171	57.23
845.466	62.65
845.761	54.15
846.055	59.72
846.349	66.97
846.644	62.2
846.938	57.83
847.232	55.4
847.526	61.48
847.82	70.03
848.114	47.29
848.408	66.56
848.702	63.32
848.996	58.81
849.29	56.95
849.584	72.21
849.877	59.73
850.171	68.28
850.465	55.08
850.758	65.14
851.052	55.6
851.345	60.94
851.638	45.61
851.932	61.27
852.225	56.6
852.518	56.5
852.811	70.81
853.104	62.59
853.397	56.09
853.69	54.87
853.983	73.09
854.276	61.9
854.569	72.07
854.861	62.11
855.154	72.11
855.447	52.21
855.739	33.54
856.032	56.11
856.324	59.27
856.616	71.91
856.909	60.08
857.201	72.38
857.493	54.76
857.785	63.74
858.077	54.33
858.369	67.61
858.661	77.67
858.953	55.88
859.245	65.79
859.537	56.3
859.829	45.02
860.12	50.28
860.412	53.29
860.703	76.24
860.995	53.45
861.286	58.61
861.578	69.99
861.869	75.27
862.16	59.66
862.452	86.76
862.743	61.3
863.034	58.91
863.325	68.67
863.616	47.8
863.907	68.4
864.198	86.09
864.488	95.5
864.779	47.21
865.07	57.24
865.36	80.72
865.651	65.27
865.941	77.52
866.232	45.91
866.522	52.9
866.813	59.66
867.103	67.89
867.393	70.73
867.683	56.04
867.973	55.73
868.263	77.8
868.553	60.49
868.843	66.72
869.133	59.54
869.423	61.52
869.713	52.19
870.002	72.27
870.292	53.82
870.582	67.78
870.871	60.47
871.161	50.5
871.45	59.14
871.739	64.45
872.029	50.46
872.318	76.46
872.607	78.81
872.896	64.12
873.185	60.21
873.474	53.66
873.763	80.58
874.052	51.85
874.341	49.11
874.63	72.88
874.918	47.9
875.207	58.62
875.496	56.55
875.784	71.6
876.073	71.55
876.361	73.11
876.649	47.98
876.938	80.39
877.226	46.44
877.514	85.51
877.802	72.87
878.09	55.5
878.378	90.87
878.666	69.32
878.954	50.33
879.242	79.81
879.53	66.59
879.817	53.4
880.105	32.76
880.392	60.56
880.68	39.43
880.967	79.67
881.255	51.72
881.542	54.53
881.83	61.3
882.117	78.37
882.404	86.31
882.691	53.57
882.978	53.12
883.265	58.45
883.552	59.21
883.839	55.8
884.126	57.45
884.413	30.2
884.699	67.35
884.986	60.07
885.273	55.63
885.559	55.63
885.846	55.63
