Data from 0369_crown_Reflection__2__286.txt Node

Date: Fri Oct 20 23:00:32 CDT 2023
User: ToomeyLab
Spectrometer: FLMS14357
Trigger mode: 0
Integration Time (sec): 1.000000E-2
Scans to average: 100
Electric dark correction enabled: true
Nonlinearity correction enabled: false
Boxcar width: 0
XAxis mode: Wavelengths
Number of Pixels in Spectrum: 2048
>>>>>Begin Spectral Data<<<<<
189.047	405.99
189.435	405.99
189.823	405.99
190.211	6.17
190.599	-108.33
190.987	-18
191.375	28.95
191.763	111.78
192.151	42.08
192.538	-86.33
192.926	18.95
193.314	36.75
193.702	578.02
194.089	161.54
194.477	-6.98
194.864	115.18
195.252	17.34
195.639	-291
196.027	50.36
196.414	98.96
196.801	492.33
197.189	-145.63
197.576	31.76
197.963	-124.2
198.351	50.07
198.738	-6.4
199.125	21.87
199.512	49.32
199.899	11.43
200.286	-57.47
200.673	43.15
201.06	21.09
201.447	1.34
201.833	9.11
202.22	3.87
202.607	39.78
202.994	10.57
203.38	7.05
203.767	11.49
204.154	36.86
204.54	46.68
204.927	4.29
205.313	-16.44
205.699	19.17
206.086	16.39
206.472	18.68
206.858	31.12
207.245	-59.95
207.631	32.74
208.017	0.91
208.403	4.75
208.789	11.94
209.175	5.32
209.561	33.36
209.947	-6.52
210.333	8.69
210.719	9.47
211.105	13.25
211.491	15.43
211.876	18.47
212.262	9.53
212.648	43.47
213.034	0.13
213.419	19.2
213.805	5.58
214.19	10.2
214.576	13.68
214.961	-11.03
215.346	27.33
215.732	15.29
216.117	-11.11
216.502	19.88
216.888	17.84
217.273	-13.75
217.658	-3.9
218.043	-7
218.428	24.6
218.813	-3.99
219.198	5.17
219.583	-30.78
219.968	7.45
220.353	11.87
220.738	11.47
221.122	-18.89
221.507	-8.5
221.892	-7.7
222.276	0.91
222.661	14.45
223.046	6.67
223.43	-2.78
223.815	17.62
224.199	15.88
224.583	4.95
224.968	-0.35
225.352	1.27
225.736	6.05
226.121	7.82
226.505	2.98
226.889	13.3
227.273	7.73
227.657	8.54
228.041	6.41
228.425	3.12
228.809	13.13
229.193	6.61
229.577	10.48
229.961	5.88
230.344	8.16
230.728	7.69
231.112	8.54
231.495	7.07
231.879	8.01
232.263	7.4
232.646	5.7
233.03	6.79
233.413	7.97
233.797	6.43
234.18	8.43
234.563	7.85
234.946	8.5
235.33	5.43
235.713	8.49
236.096	9.61
236.479	6.58
236.862	7.31
237.245	7.75
237.628	7.46
238.011	6.59
238.394	5.84
238.777	8.88
239.16	6.79
239.543	7.92
239.925	6.82
240.308	6.73
240.691	6.78
241.073	8.42
241.456	8.99
241.838	7.61
242.221	8.02
242.603	7.01
242.986	7.24
243.368	6.81
243.75	7
244.133	7.05
244.515	6.77
244.897	6.85
245.279	7.39
245.661	6.88
246.043	7.03
246.425	7.28
246.807	6.87
247.189	6.49
247.571	6.96
247.953	6.81
248.335	7.26
248.717	6.97
249.098	7.02
249.48	6.99
249.862	7.3
250.243	7.3
250.625	7.24
251.006	7.19
251.388	6.82
251.769	7.52
252.151	6.42
252.532	7.38
252.913	7
253.295	6.68
253.676	7.08
254.057	7.09
254.438	7.21
254.819	7.14
255.2	6.86
255.581	7.32
255.962	7.04
256.343	6.89
256.724	6.27
257.105	6.96
257.486	6.95
257.867	7.88
258.247	7.25
258.628	7.2
259.009	5.5
259.389	6.37
259.77	6.64
260.15	6.98
260.531	6.98
260.911	6.9
261.292	6.55
261.672	6.59
262.052	6.83
262.432	6.53
262.813	6.61
263.193	6.56
263.573	6.53
263.953	6.48
264.333	7
264.713	7.4
265.093	6.64
265.473	7.15
265.853	6.36
266.233	6.18
266.612	6.04
266.992	6.75
267.372	6.01
267.752	5.75
268.131	6.96
268.511	6.01
268.89	6.44
269.27	5.94
269.649	5.65
270.029	6.54
270.408	6.54
270.787	6.52
271.167	6.2
271.546	6.8
271.925	6.73
272.304	6.77
272.683	6.66
273.062	6.34
273.441	6.11
273.82	6.47
274.199	6.72
274.578	5.96
274.957	6.11
275.336	6.33
275.715	6.42
276.093	5.78
276.472	6.57
276.851	6.51
277.229	6.15
277.608	5.74
277.986	5.94
278.365	6.58
278.743	5.99
279.122	5.93
279.5	6.57
279.878	5.57
280.257	5.93
280.635	6.02
281.013	5.79
281.391	5.65
281.769	5.59
282.147	5.68
282.525	5.75
282.903	6.05
283.281	6.14
283.659	6.06
284.037	6.31
284.415	5.12
284.792	5.66
285.17	5.98
285.548	6.03
285.925	5.49
286.303	5.7
286.68	5.99
287.058	6.5
287.435	6
287.813	5.38
288.19	5.82
288.567	5.82
288.945	6.11
289.322	6.01
289.699	5.14
290.076	6.27
290.453	5.61
290.83	5.57
291.207	6.46
291.584	5.6
291.961	5.52
292.338	5.38
292.715	5.58
293.092	5.55
293.469	5.88
293.845	5.71
294.222	5.52
294.599	5.43
294.975	6.62
295.352	5.71
295.728	5.67
296.105	5.78
296.481	5.68
296.858	5.46
297.234	5.67
297.61	5.22
297.986	5.3
298.363	5.57
298.739	5.84
299.115	5.4
299.491	5.61
299.867	5.58
300.243	5.41
300.619	5.5
300.995	5.71
301.371	5.92
301.746	5.4
302.122	5.55
302.498	5.31
302.874	5.1
303.249	4.97
303.625	5.27
304	5.94
304.376	5
304.751	4.97
305.127	4.77
305.502	5.78
305.878	5.31
306.253	5.26
306.628	5.22
307.003	5.44
307.378	5.2
307.754	5.61
308.129	5.48
308.504	5.4
308.879	5.52
309.254	5.51
309.629	4.57
310.003	5.16
310.378	5.66
310.753	5.3
311.128	5.36
311.502	5.25
311.877	5.29
312.252	4.93
312.626	5.41
313.001	5.1
313.375	5.09
313.75	5.15
314.124	4.98
314.498	5.11
314.873	4.58
315.247	5.31
315.621	5.34
315.995	5.41
316.369	4.89
316.743	5.85
317.117	4.95
317.491	4.58
317.865	4.98
318.239	5.76
318.613	5.38
318.987	5.01
319.361	4.53
319.734	4.34
320.108	4.57
320.482	5.27
320.855	5.69
321.229	5.25
321.602	4.89
321.976	5.1
322.349	5.7
322.723	5.08
323.096	4.99
323.469	4.65
323.843	4.53
324.216	5.26
324.589	5.05
324.962	5.29
325.335	4.81
325.708	5.14
326.081	5.19
326.454	5.16
326.827	5.15
327.2	5.3
327.573	5.41
327.945	4.41
328.318	4.76
328.691	4.59
329.063	5.44
329.436	5.07
329.809	5.18
330.181	5.46
330.553	5.5
330.926	5.12
331.298	5.03
331.671	5.41
332.043	4.63
332.415	5.03
332.787	5.05
333.159	4.59
333.532	5.38
333.904	5.22
334.276	4.69
334.648	4.96
335.02	5.26
335.391	4.5
335.763	5.12
336.135	4.91
336.507	4.83
336.879	5
337.25	5.13
337.622	5.29
337.993	5.25
338.365	4.99
338.736	5.63
339.108	5.17
339.479	4.82
339.851	5.25
340.222	5.11
340.593	4.79
340.964	4.81
341.336	5.49
341.707	5.28
342.078	5.08
342.449	4.55
342.82	5.12
343.191	4.86
343.562	5.23
343.933	5.18
344.303	5.13
344.674	5.87
345.045	5.56
345.416	5.23
345.786	4.69
346.157	5.06
346.527	4.95
346.898	4.99
347.268	5.18
347.639	5.37
348.009	4.9
348.38	5.62
348.75	5.42
349.12	4.96
349.49	5
349.861	5.59
350.231	5.27
350.601	4.55
350.971	5.33
351.341	5.35
351.711	5.54
352.081	5.45
352.45	5.28
352.82	4.92
353.19	5.26
353.56	5.2
353.929	5.1
354.299	5.08
354.669	5.23
355.038	5.07
355.408	5.07
355.777	5.14
356.147	4.76
356.516	4.66
356.885	5.43
357.254	5.33
357.624	5.1
357.993	5.23
358.362	5.31
358.731	4.71
359.1	4.8
359.469	5.05
359.838	5.06
360.207	5.11
360.576	5.47
360.945	4.87
361.314	5.39
361.682	5.34
362.051	4.88
362.42	5
362.788	5.26
363.157	5.42
363.525	5.1
363.894	4.95
364.262	5.15
364.631	5.37
364.999	5.07
365.367	5.39
365.735	5.22
366.104	5.17
366.472	5.25
366.84	5.28
367.208	5.33
367.576	5.17
367.944	5.32
368.312	5.12
368.68	5.53
369.048	5.33
369.416	5.56
369.783	5.61
370.151	5.47
370.519	5.44
370.886	5.57
371.254	5.44
371.621	5.81
371.989	5.33
372.356	5.51
372.724	5.58
373.091	5.36
373.458	5.33
373.826	5.46
374.193	5.43
374.56	5.63
374.927	5.5
375.294	5.56
375.661	5.26
376.028	5.77
376.395	5.68
376.762	5.31
377.129	5.58
377.496	5.6
377.863	5.7
378.229	5.49
378.596	5.69
378.963	5.82
379.329	5.76
379.696	5.41
380.062	5.32
380.429	5.25
380.795	5.53
381.161	5.49
381.528	6.02
381.894	5.36
382.26	5.94
382.626	5.84
382.993	5.59
383.359	5.81
383.725	5.46
384.091	5.66
384.457	5.61
384.823	5.68
385.188	5.66
385.554	5.73
385.92	5.67
386.286	5.93
386.651	5.73
387.017	5.86
387.383	5.6
387.748	5.46
388.114	5.67
388.479	5.66
388.845	6
389.21	5.67
389.575	5.51
389.94	5.68
390.306	5.74
390.671	5.6
391.036	5.73
391.401	5.65
391.766	5.94
392.131	5.59
392.496	5.91
392.861	5.75
393.226	5.96
393.591	5.78
393.956	5.98
394.32	6.01
394.685	5.85
395.05	5.99
395.414	6.16
395.779	5.79
396.143	5.88
396.508	5.72
396.872	5.9
397.236	5.9
397.601	5.73
397.965	5.76
398.329	5.67
398.694	5.91
399.058	5.46
399.422	5.91
399.786	5.67
400.15	5.83
400.514	5.82
400.878	6.18
401.242	6.06
401.605	5.92
401.969	5.85
402.333	5.96
402.697	5.97
403.06	5.92
403.424	6.02
403.787	5.71
404.151	6.03
404.514	5.95
404.878	6.14
405.241	6.1
405.604	5.88
405.968	5.86
406.331	6.05
406.694	6.06
407.057	5.72
407.42	6.02
407.783	6.04
408.146	5.93
408.509	6.09
408.872	6.13
409.235	5.97
409.598	6.05
409.961	6.25
410.323	6.08
410.686	6.02
411.049	5.97
411.411	6.03
411.774	6.31
412.136	5.86
412.499	6.1
412.861	6.15
413.223	6.24
413.586	6.31
413.948	6.18
414.31	6.33
414.672	6.12
415.035	6.13
415.397	6.12
415.759	6.11
416.121	6.22
416.483	6.27
416.845	6.14
417.206	6.11
417.568	6.25
417.93	6.36
418.292	5.85
418.653	6.35
419.015	6.21
419.377	6.19
419.738	6.11
420.1	6.02
420.461	6.16
420.822	6.11
421.184	6.15
421.545	6.08
421.906	6.07
422.267	6.14
422.629	6.08
422.99	5.98
423.351	6.13
423.712	6.16
424.073	6.14
424.434	6.13
424.795	6.11
425.155	6.14
425.516	6.12
425.877	6.23
426.238	6.09
426.598	6.12
426.959	6.12
427.32	6.12
427.68	6.26
428.041	6.21
428.401	6.23
428.761	6.33
429.122	6.22
429.482	6.13
429.842	6.46
430.202	6.3
430.563	6.23
430.923	6.47
431.283	6.1
431.643	6.39
432.003	6.7
432.363	6.3
432.722	6.52
433.082	6.32
433.442	6.22
433.802	6.59
434.161	6.15
434.521	6.47
434.881	6.36
435.24	6.39
435.6	6.34
435.959	6.29
436.319	6.48
436.678	6.27
437.037	6.34
437.396	6.45
437.756	6.5
438.115	6.29
438.474	6.48
438.833	6.62
439.192	6.25
439.551	6.21
439.91	6.42
440.269	6.47
440.628	6.43
440.987	6.32
441.345	6.22
441.704	6.43
442.063	6.38
442.421	6.26
442.78	6.31
443.138	6.52
443.497	6.45
443.855	6.47
444.214	6.38
444.572	6.41
444.93	6.49
445.288	6.46
445.647	6.67
446.005	6.42
446.363	6.45
446.721	6.44
447.079	6.48
447.437	6.4
447.795	6.41
448.153	6.38
448.51	6.36
448.868	6.35
449.226	6.4
449.584	6.46
449.941	6.37
450.299	6.5
450.656	6.42
451.014	6.47
451.371	6.53
451.729	6.47
452.086	6.5
452.443	6.6
452.801	6.47
453.158	6.74
453.515	6.56
453.872	6.51
454.229	6.62
454.586	6.69
454.943	6.62
455.3	6.49
455.657	6.62
456.014	6.55
456.371	6.72
456.727	6.7
457.084	6.66
457.441	6.66
457.797	6.75
458.154	6.51
458.51	6.53
458.867	6.62
459.223	6.64
459.58	6.57
459.936	6.72
460.292	6.69
460.648	6.5
461.005	6.54
461.361	6.6
461.717	6.36
462.073	6.53
462.429	6.52
462.785	6.53
463.141	6.58
463.496	6.49
463.852	6.74
464.208	6.77
464.564	6.8
464.919	6.63
465.275	6.82
465.631	6.71
465.986	6.63
466.342	6.79
466.697	6.68
467.052	6.87
467.408	6.72
467.763	6.73
468.118	6.96
468.473	6.79
468.829	6.89
469.184	6.74
469.539	6.79
469.894	6.71
470.249	6.76
470.603	6.51
470.958	6.72
471.313	6.86
471.668	6.72
472.023	6.67
472.377	6.83
472.732	6.73
473.086	6.86
473.441	6.86
473.795	6.97
474.15	6.77
474.504	6.72
474.859	6.72
475.213	6.97
475.567	6.86
475.921	6.79
476.275	6.8
476.63	6.79
476.984	6.68
477.338	6.88
477.692	6.88
478.045	6.64
478.399	6.7
478.753	6.82
479.107	6.74
479.461	6.73
479.814	6.92
480.168	6.83
480.521	6.81
480.875	6.77
481.228	6.95
481.582	6.89
481.935	6.86
482.289	6.88
482.642	6.83
482.995	6.8
483.348	6.8
483.701	6.73
484.055	6.68
484.408	6.66
484.761	6.59
485.114	6.54
485.466	6.47
485.819	6.42
486.172	6.28
486.525	6.35
486.878	6.43
487.23	6.46
487.583	6.53
487.936	6.52
488.288	6.62
488.641	6.68
488.993	6.55
489.345	6.52
489.698	6.48
490.05	6.44
490.402	6.43
490.754	6.52
491.107	6.52
491.459	6.65
491.811	6.68
492.163	6.68
492.515	6.79
492.866	6.69
493.218	6.55
493.57	6.55
493.922	6.54
494.274	6.51
494.625	6.57
494.977	6.56
495.328	6.75
495.68	6.78
496.031	6.77
496.383	6.92
496.734	6.98
497.086	6.79
497.437	6.89
497.788	6.82
498.139	7.02
498.49	6.84
498.842	6.66
499.193	6.88
499.544	6.82
499.894	6.88
500.245	6.74
500.596	6.92
500.947	6.78
501.298	6.8
501.648	6.9
501.999	6.82
502.35	6.88
502.7	7.07
503.051	6.92
503.401	6.82
503.752	7.06
504.102	7.09
504.452	6.86
504.803	6.93
505.153	6.95
505.503	6.94
505.853	7.06
506.203	6.89
506.553	6.81
506.903	6.84
507.253	7.02
507.603	6.95
507.953	6.88
508.303	6.94
508.652	6.96
509.002	6.94
509.352	6.98
509.701	6.89
510.051	6.77
510.4	6.91
510.75	6.92
511.099	6.8
511.449	6.95
511.798	7.01
512.147	6.93
512.496	6.94
512.846	6.79
513.195	6.95
513.544	6.97
513.893	6.83
514.242	6.91
514.591	7.02
514.939	6.91
515.288	6.92
515.637	6.89
515.986	6.95
516.334	6.87
516.683	6.95
517.032	6.73
517.38	6.75
517.729	7.07
518.077	6.99
518.426	6.88
518.774	6.88
519.122	6.97
519.47	6.89
519.819	6.79
520.167	6.79
520.515	6.78
520.863	6.87
521.211	6.81
521.559	6.91
521.907	6.88
522.255	6.76
522.602	6.94
522.95	6.85
523.298	7.03
523.645	6.86
523.993	6.94
524.341	7.05
524.688	6.89
525.036	6.98
525.383	6.85
525.73	7.09
526.078	6.96
526.425	6.98
526.772	6.9
527.119	6.85
527.466	6.73
527.814	6.84
528.161	6.77
528.508	6.79
528.854	6.73
529.201	6.77
529.548	6.73
529.895	6.8
530.242	6.69
530.588	6.55
530.935	6.55
531.282	6.58
531.628	6.65
531.975	6.61
532.321	6.71
532.667	6.8
533.014	6.78
533.36	6.9
533.706	6.85
534.052	6.91
534.399	6.81
534.745	6.65
535.091	6.67
535.437	6.65
535.783	6.66
536.129	6.7
536.474	6.71
536.82	6.76
537.166	6.74
537.512	6.91
537.857	6.91
538.203	6.8
538.549	6.89
538.894	6.78
539.239	6.77
539.585	6.78
539.93	6.87
540.276	7.02
540.621	6.91
540.966	6.96
541.311	7.01
541.656	6.87
542.001	7.05
542.346	6.92
542.691	6.74
543.036	6.7
543.381	6.65
543.726	6.65
544.071	6.69
544.415	6.64
544.76	6.77
545.105	6.77
545.449	6.71
545.794	6.84
546.138	6.84
546.483	6.92
546.827	6.87
547.171	6.89
547.516	6.95
547.86	6.95
548.204	6.75
548.548	6.95
548.892	6.87
549.236	6.89
549.58	6.82
549.924	6.75
550.268	6.88
550.612	6.9
550.956	7.19
551.3	7.05
551.643	6.89
551.987	7.1
552.33	6.97
552.674	6.99
553.017	6.96
553.361	7.16
553.704	6.99
554.048	6.99
554.391	6.99
554.734	7
555.077	6.91
555.42	6.9
555.764	6.94
556.107	7.07
556.45	7.11
556.793	6.83
557.135	6.93
557.478	6.79
557.821	7.1
558.164	7.11
558.507	7.01
558.849	7.17
559.192	6.97
559.534	7.13
559.877	6.89
560.219	7.07
560.562	6.93
560.904	6.9
561.246	6.94
561.589	6.93
561.931	7.02
562.273	7.2
562.615	7.22
562.957	6.99
563.299	6.98
563.641	7.01
563.983	6.92
564.325	6.93
564.667	7.12
565.008	6.96
565.35	6.97
565.692	7.03
566.033	7.06
566.375	6.86
566.716	6.98
567.058	6.87
567.399	7.02
567.741	6.85
568.082	6.95
568.423	6.97
568.764	6.9
569.105	7.02
569.447	6.82
569.788	6.71
570.129	6.97
570.47	6.83
570.811	7.01
571.151	6.9
571.492	6.94
571.833	6.98
572.174	7.03
572.514	6.91
572.855	6.85
573.195	7.03
573.536	6.82
573.876	6.83
574.217	6.72
574.557	6.82
574.898	6.8
575.238	6.78
575.578	6.91
575.918	6.72
576.258	7.04
576.598	6.88
576.938	6.82
577.278	6.85
577.618	6.76
577.958	6.6
578.298	6.85
578.638	6.94
578.977	6.98
579.317	6.93
579.657	6.87
579.996	6.94
580.336	6.95
580.675	6.89
581.014	6.89
581.354	6.83
581.693	6.91
582.032	6.92
582.372	6.92
582.711	6.99
583.05	7.13
583.389	7.07
583.728	6.86
584.067	6.92
584.406	6.87
584.745	7.01
585.083	6.82
585.422	6.84
585.761	7.02
586.1	7.17
586.438	6.53
586.777	7.07
587.115	7.05
587.454	6.82
587.792	6.82
588.13	6.87
588.469	7.03
588.807	6.59
589.145	6.79
589.483	6.9
589.821	6.89
590.159	6.87
590.497	6.89
590.835	6.74
591.173	6.9
591.511	6.87
591.849	6.9
592.187	6.8
592.524	6.73
592.862	6.68
593.2	6.84
593.537	6.79
593.875	6.97
594.212	6.93
594.55	7.18
594.887	7.04
595.224	6.8
595.561	6.69
595.899	6.92
596.236	6.82
596.573	7.02
596.91	6.92
597.247	6.7
597.584	6.49
597.921	6.95
598.258	6.64
598.594	6.89
598.931	6.67
599.268	6.67
599.604	6.65
599.941	6.7
600.277	6.63
600.614	6.67
600.95	6.9
601.287	6.69
601.623	6.54
601.959	6.78
602.296	6.79
602.632	6.98
602.968	6.41
603.304	6.9
603.64	6.52
603.976	6.91
604.312	6.81
604.648	6.44
604.984	6.89
605.319	6.62
605.655	6.67
605.991	6.54
606.326	6.61
606.662	6.53
606.998	6.68
607.333	6.67
607.668	6.49
608.004	6.78
608.339	6.53
608.674	6.78
609.01	6.61
609.345	6.85
609.68	6.71
610.015	6.81
610.35	6.66
610.685	6.76
611.02	6.77
611.355	6.6
611.689	6.5
612.024	6.78
612.359	6.82
612.694	6.6
613.028	6.83
613.363	6.47
613.697	6.9
614.032	6.85
614.366	6.61
614.7	6.63
615.035	6.62
615.369	6.77
615.703	6.5
616.037	6.86
616.371	6.55
616.705	6.73
617.039	6.85
617.373	6.45
617.707	6.91
618.041	6.91
618.375	6.8
618.709	6.63
619.042	6.7
619.376	6.77
619.71	7.13
620.043	6.63
620.377	6.71
620.71	6.63
621.043	6.89
621.377	6.5
621.71	6.54
622.043	6.9
622.376	6.81
622.709	6.94
623.043	6.55
623.376	6.68
623.709	6.46
624.041	6.75
624.374	6.96
624.707	6.24
625.04	6.58
625.373	6.98
625.705	6.41
626.038	6.6
626.37	6.61
626.703	6.62
627.035	6.47
627.368	6.34
627.7	6.89
628.032	6.32
628.365	6.72
628.697	6.66
629.029	6.6
629.361	6.53
629.693	6.58
630.025	6.67
630.357	6.78
630.689	6.53
631.021	6.88
631.353	6.42
631.684	6.32
632.016	6.7
632.348	6.69
632.679	6.37
633.011	6.82
633.342	6.36
633.674	6.33
634.005	6.7
634.336	6.89
634.668	6.61
634.999	6.74
635.33	6.65
635.661	7.05
635.992	6.57
636.323	6.7
636.654	6.92
636.985	6.52
637.316	6.84
637.647	6.6
637.977	6.09
638.308	6.73
638.639	6.61
638.969	6.63
639.3	6.35
639.63	6.61
639.961	6.54
640.291	6.45
640.622	6.5
640.952	6.5
641.282	6.42
641.612	6.48
641.943	6.54
642.273	6.61
642.603	7.08
642.933	6.81
643.263	6.84
643.592	6.5
643.922	6.87
644.252	6.3
644.582	6.68
644.911	6.53
645.241	6.61
645.571	6.82
645.9	6.16
646.23	6.6
646.559	6.37
646.888	6.97
647.218	6.48
647.547	6.36
647.876	6.96
648.205	6.63
648.534	7.17
648.863	6.74
649.192	6.27
649.521	6.41
649.85	6.58
650.179	6.33
650.508	6.3
650.837	6.75
651.165	6.78
651.494	6.34
651.822	6.5
652.151	6.59
652.479	6.38
652.808	6.64
653.136	6.62
653.465	6.72
653.793	6.52
654.121	6.9
654.449	6.87
654.777	6.44
655.105	6.58
655.433	6.91
655.761	6.74
656.089	6.75
656.417	6.74
656.745	6.68
657.073	6.94
657.4	7.32
657.728	7.32
658.056	6.59
658.383	6.67
658.711	6.06
659.038	6.67
659.365	6.87
659.693	6.8
660.02	6.5
660.347	6.35
660.674	6.92
661.001	6.21
661.329	6.45
661.656	6.41
661.982	6.43
662.309	6.56
662.636	6.64
662.963	6.79
663.29	6.61
663.616	6.54
663.943	6.07
664.27	6.93
664.596	6.35
664.923	6.82
665.249	6.14
665.576	6.4
665.902	6.75
666.228	6.9
666.554	7.09
666.881	5.91
667.207	6.36
667.533	6.63
667.859	6.81
668.185	7
668.511	6.53
668.837	6.49
669.162	6.92
669.488	6.5
669.814	6.18
670.139	6.36
670.465	6.63
670.791	6.95
671.116	6.96
671.442	6.92
671.767	6.59
672.092	6.59
672.418	6.73
672.743	6.8
673.068	6.95
673.393	6.71
673.718	6.81
674.043	6.76
674.368	6.45
674.693	6.76
675.018	7.05
675.343	7.08
675.667	7
675.992	6.83
676.317	6.79
676.641	7.57
676.966	6.97
677.29	6.66
677.615	6.16
677.939	6.21
678.264	7.04
678.588	6.14
678.912	6.54
679.236	6.73
679.56	6.6
679.885	7.03
680.209	6.41
680.532	6.26
680.856	6.36
681.18	7.05
681.504	6.45
681.828	6.87
682.152	6.8
682.475	6.28
682.799	6.39
683.122	6.63
683.446	6.69
683.769	6.82
684.093	7.03
684.416	6.99
684.739	6.67
685.062	6.21
685.386	6.23
685.709	6.38
686.032	6.14
686.355	7.28
686.678	6.16
687.001	6.98
687.324	6.29
687.646	6.82
687.969	6.93
688.292	6.67
688.614	6.74
688.937	6.18
689.26	6.97
689.582	6.53
689.904	6.35
690.227	6.67
690.549	6.49
690.871	6.58
691.194	6.97
691.516	6.44
691.838	7.13
692.16	6.17
692.482	6.98
692.804	6.74
693.126	7.1
693.448	7.31
693.769	6.63
694.091	7.23
694.413	6.24
694.735	6.8
695.056	6.47
695.378	6.63
695.699	6.37
696.021	7.08
696.342	6.32
696.663	7.34
696.984	6.01
697.306	6.67
697.627	6.42
697.948	6.69
698.269	6.97
698.59	6.38
698.911	6.94
699.232	5.86
699.553	6.99
699.873	7.07
700.194	7.58
700.515	6.05
700.835	6.9
701.156	7.05
701.477	6.27
701.797	6.22
702.117	6.41
702.438	6.58
702.758	6.66
703.078	6.81
703.398	7.22
703.719	7.02
704.039	6.56
704.359	6.61
704.679	6.87
704.999	6.15
705.319	6.71
705.638	7.18
705.958	6.9
706.278	6.38
706.597	6.4
706.917	5.88
707.237	8.02
707.556	5.86
707.876	7.22
708.195	8.13
708.514	6.75
708.834	5.16
709.153	6.81
709.472	6.93
709.791	8.52
710.11	6.73
710.429	7.23
710.748	6.93
711.067	5.68
711.386	6.76
711.705	6.88
712.023	6.86
712.342	7.23
712.661	6.76
712.979	6.16
713.298	7.3
713.616	6.11
713.935	6.99
714.253	7.09
714.572	6.4
714.89	6.96
715.208	7.73
715.526	7.48
715.844	6.83
716.162	6.71
716.48	8.02
716.798	6.08
717.116	6.84
717.434	6.22
717.752	6.1
718.069	6.89
718.387	6.7
718.705	6.45
719.022	7.83
719.34	6.92
719.657	6.46
719.975	6.31
720.292	6.97
720.609	6.87
720.927	6.59
721.244	7.3
721.561	8.13
721.878	6.38
722.195	6.75
722.512	7.07
722.829	7.53
723.146	7.55
723.463	7.46
723.779	8.37
724.096	7.96
724.413	6.16
724.729	6.68
725.046	8.04
725.362	8.47
725.679	5.54
725.995	6.86
726.311	7.97
726.628	7.14
726.944	7.8
727.26	6.22
727.576	7.45
727.892	7.89
728.208	6.66
728.524	5.59
728.84	6.4
729.156	8.46
729.472	6.21
729.787	7.3
730.103	7.41
730.419	7.32
730.734	7.54
731.05	7.32
731.365	7.22
731.681	6.76
731.996	6.73
732.311	7.8
732.626	6.33
732.942	5.9
733.257	6.51
733.572	7.67
733.887	7.08
734.202	7.66
734.517	7.58
734.832	6.24
735.146	8.35
735.461	6.7
735.776	7.2
736.091	8.21
736.405	6.76
736.72	8.76
737.034	7.07
737.349	7.32
737.663	7.64
737.977	6.42
738.292	6.62
738.606	7
738.92	8.14
739.234	6.49
739.548	6.94
739.862	7.69
740.176	7.23
740.49	6.07
740.804	8.38
741.117	7.38
741.431	7.48
741.745	7.26
742.058	7.11
742.372	7.37
742.685	6.3
742.999	7.82
743.312	7.84
743.626	5.92
743.939	8.66
744.252	7.3
744.565	6.49
744.878	6.78
745.191	6.76
745.505	6.7
745.817	8.07
746.13	7.11
746.443	7.52
746.756	8.26
747.069	5.33
747.381	8.11
747.694	8.33
748.007	6.08
748.319	9.68
748.632	6.61
748.944	8.44
749.256	7.43
749.569	6.17
749.881	7.48
750.193	5.6
750.505	6.32
750.817	9.26
751.129	7.57
751.441	7.73
751.753	5.04
752.065	10.28
752.377	7.58
752.689	9.51
753	8.41
753.312	4.65
753.624	4.84
753.935	7.99
754.247	7.85
754.558	8.24
754.869	8.7
755.181	7.16
755.492	7.71
755.803	7.85
756.114	7.11
756.425	7.25
756.736	7.36
757.047	8.52
757.358	7.57
757.669	7.15
757.98	6.59
758.291	8.3
758.601	7.61
758.912	8.9
759.223	4.68
759.533	8.96
759.844	8.39
760.154	8.88
760.464	8.19
760.775	6.88
761.085	7.55
761.395	7.87
761.705	7.98
762.016	7.44
762.326	8.26
762.636	7.16
762.945	5.34
763.255	7.97
763.565	7.34
763.875	8.46
764.185	6.34
764.494	8.62
764.804	8.77
765.113	6.81
765.423	7.51
765.732	7.09
766.042	7.51
766.351	7
766.66	6.44
766.97	8.28
767.279	6.52
767.588	6.84
767.897	6.36
768.206	6.94
768.515	6.89
768.824	8.14
769.133	5.8
769.441	6.32
769.75	9.41
770.059	8.23
770.367	7.95
770.676	9.15
770.984	6.49
771.293	7.52
771.601	8.55
771.91	8.2
772.218	12
772.526	9.56
772.834	6.76
773.142	8.15
773.45	6.33
773.758	6.63
774.066	6.35
774.374	4.96
774.682	6.9
774.99	9.23
775.298	3.28
775.605	9.89
775.913	9.17
776.22	4.04
776.528	9.79
776.835	8.72
777.143	4.01
777.45	7.9
777.757	5.28
778.065	8.39
778.372	11.13
778.679	8.41
778.986	7.18
779.293	9.12
779.6	8.24
779.907	5.63
780.214	9.6
780.52	6.91
780.827	5.48
781.134	6.31
781.44	8.98
781.747	7.21
782.053	6.99
782.36	5.69
782.666	1.5
782.973	9.61
783.279	5.31
783.585	4.73
783.891	3.95
784.197	9.36
784.503	9.27
784.809	6.73
785.115	4.82
785.421	6.44
785.727	11.38
786.033	7.78
786.339	5.5
786.644	8.58
786.95	10.8
787.255	9.74
787.561	6
787.866	7.43
788.172	10.55
788.477	7.81
788.782	3.75
789.088	9.24
789.393	8.45
789.698	2.59
790.003	7.73
790.308	10.3
790.613	3.78
790.918	9.24
791.223	6.91
791.527	6.66
791.832	11.96
792.137	10.68
792.441	9.99
792.746	10.02
793.05	6.08
793.355	9.08
793.659	10.2
793.963	9.68
794.268	6.38
794.572	6.87
794.876	6.06
795.18	8.6
795.484	8
795.788	7.4
796.092	1.07
796.396	11.01
796.7	7.91
797.004	6.57
797.307	8.29
797.611	10.07
797.915	5.78
798.218	4.78
798.522	9.34
798.825	9.6
799.128	12.13
799.432	8.05
799.735	5.03
800.038	5.27
800.341	3.21
800.644	6.92
800.947	7.51
801.25	7.25
801.553	10.8
801.856	9.27
802.159	3.41
802.462	6.42
802.764	9.39
803.067	12.3
803.37	3.45
803.672	9.81
803.975	9.85
804.277	9.84
804.579	4.75
804.882	8.84
805.184	8.98
805.486	9.89
805.788	13.69
806.09	11.47
806.392	11.81
806.694	6.32
806.996	12.81
807.298	6.4
807.6	9.03
807.902	7.55
808.203	8.87
808.505	12.6
808.807	3.29
809.108	3.16
809.409	6.88
809.711	6.78
810.012	8.95
810.313	4.78
810.615	6.8
810.916	8.48
811.217	6.01
811.518	3.82
811.819	5.72
812.12	12.09
812.421	2.7
812.722	7.42
813.023	10.46
813.323	5.15
813.624	6.54
813.925	9.15
814.225	2.01
814.526	11.17
814.826	6.24
815.126	9.46
815.427	7.89
815.727	9.22
816.027	11.76
816.327	10.36
816.627	16.68
816.927	4.34
817.227	9.72
817.527	4.87
817.827	11.5
818.127	13.72
818.427	11.9
818.727	-0.67
819.026	-0.94
819.326	3.05
819.625	4.7
819.925	12.91
820.224	9.13
820.524	12.27
820.823	8.01
821.122	5.59
821.421	11.33
821.72	11.12
822.019	5.14
822.318	7.65
822.617	3.23
822.916	10.12
823.215	7.66
823.514	8.32
823.813	9.89
824.111	7.78
824.41	8.39
824.709	10.07
825.007	6.6
825.306	8.91
825.604	9.28
825.902	8.93
826.201	9.5
826.499	9.96
826.797	8.59
827.095	8.26
827.393	9.32
827.691	11.4
827.989	8.09
828.287	9.26
828.585	8.39
828.882	8.63
829.18	9.01
829.478	11.79
829.775	8.85
830.073	9.76
830.37	10.14
830.668	8.44
830.965	10.93
831.263	10.91
831.56	10.44
831.857	9.5
832.154	11.05
832.451	12
832.748	12.39
833.045	6.23
833.342	11.13
833.639	9.44
833.936	9.67
834.232	12.81
834.529	9.29
834.826	9.6
835.122	9.48
835.419	13.29
835.715	7.86
836.012	10.53
836.308	9.46
836.604	9.78
836.901	11.28
837.197	8.61
837.493	12.41
837.789	9.81
838.085	6.03
838.381	13
838.677	12.16
838.972	11.44
839.268	8.63
839.564	7.18
839.86	14.55
840.155	10.7
840.451	12.99
840.746	11.89
841.042	10.11
841.337	5.6
841.632	11.3
841.928	12.26
842.223	15.62
842.518	4.84
842.813	-0.65
843.108	5.86
843.403	3.06
843.698	13.85
843.993	19.74
844.287	5.94
844.582	8.68
844.877	16.32
845.171	9.87
845.466	8.95
845.761	3.72
846.055	12.19
846.349	13.95
846.644	9.5
846.938	17.92
847.232	21.97
847.526	4.22
847.82	-10.47
848.114	21.19
848.408	22.83
848.702	-8.46
848.996	14.6
849.29	12.91
849.584	7.41
849.877	18.35
850.171	14.53
850.465	4.1
850.758	-5.08
851.052	-5.59
851.345	10.6
851.638	-8.34
851.932	-9.63
852.225	21.04
852.518	20.65
852.811	19.76
853.104	27.72
853.397	-5.44
853.69	18.14
853.983	-17.95
854.276	15.88
854.569	13.4
854.861	-9.57
855.154	19.01
855.447	11.76
855.739	3.21
856.032	9.39
856.324	2.6
856.616	-12.62
856.909	20.41
857.201	22.34
857.493	17.47
857.785	3.02
858.077	23.55
858.369	11.41
858.661	12.04
858.953	-2.16
859.245	7.09
859.537	13.43
859.829	1.54
860.12	-5.63
860.412	1.22
860.703	15.23
860.995	38.55
861.286	-12.91
861.578	3.78
861.869	-6.21
862.16	8.73
862.452	15.7
862.743	10.24
863.034	-2.12
863.325	12.96
863.616	-23.92
863.907	-16.45
864.198	16.45
864.488	29.96
864.779	14.7
865.07	15.93
865.36	0.01
865.651	9.43
865.941	6.15
866.232	7.47
866.522	8.75
866.813	0.18
867.103	-9.69
867.393	18.76
867.683	31.84
867.973	42.91
868.263	27.93
868.553	7.36
868.843	-1.82
869.133	19.15
869.423	-11.79
869.713	6.27
870.002	11.04
870.292	11.81
870.582	11.78
870.871	-5.42
871.161	0.57
871.45	12.96
871.739	-8.66
872.029	-1.47
872.318	20.05
872.607	28.05
872.896	19.12
873.185	10.55
873.474	6.05
873.763	23.55
874.052	16.66
874.341	24.91
874.63	24.99
874.918	14.37
875.207	22.81
875.496	-14.8
875.784	35.71
876.073	-5.08
876.361	13.52
876.649	-8.17
876.938	-3.57
877.226	10.96
877.514	4.73
877.802	-12.2
878.09	14.71
878.378	30.63
878.666	-8.95
878.954	1.8
879.242	9.52
879.53	17.42
879.817	17.64
880.105	-0.33
880.392	20.55
880.68	17.57
880.967	-4.83
881.255	14.2
881.542	18.45
881.83	20.94
882.117	28.04
882.404	4.16
882.691	17.59
882.978	15.99
883.265	-10.37
883.552	22
883.839	0.88
884.126	1.31
884.413	15.97
884.699	9.47
884.986	16.46
885.273	22.97
885.559	22.97
885.846	22.97
