Data from 0369_forehead_Reflection__4__293.txt Node

Date: Fri Oct 20 23:02:14 CDT 2023
User: ToomeyLab
Spectrometer: FLMS14357
Trigger mode: 0
Integration Time (sec): 1.000000E-2
Scans to average: 100
Electric dark correction enabled: true
Nonlinearity correction enabled: false
Boxcar width: 0
XAxis mode: Wavelengths
Number of Pixels in Spectrum: 2048
>>>>>Begin Spectral Data<<<<<
189.047	-447
189.435	-447
189.823	-447
190.211	112.2
190.599	5.71
190.987	53.15
191.375	340.07
191.763	61.55
192.151	-126.97
192.538	2.45
192.926	69.53
193.314	73.9
193.702	550.46
194.089	274.77
194.477	26.27
194.864	71.97
195.252	167.92
195.639	269.53
196.027	-124.58
196.414	49.17
196.801	221.8
197.189	421.61
197.576	24.83
197.963	606.62
198.351	58.49
198.738	21.95
199.125	33.15
199.512	38.69
199.899	28.46
200.286	-17.09
200.673	21.33
201.06	50.26
201.447	-10.22
201.833	23.72
202.22	15
202.607	41.39
202.994	19.84
203.38	24.05
203.767	37.53
204.154	38.32
204.54	61.4
204.927	56.43
205.313	33.08
205.699	60.2
206.086	39.42
206.472	43.35
206.858	66.55
207.245	53.21
207.631	36.49
208.017	5.71
208.403	17.2
208.789	58.25
209.175	31.9
209.561	58.86
209.947	16.04
210.333	55.8
210.719	29.21
211.105	53.88
211.491	8.15
211.876	-1.28
212.262	44.45
212.648	48.69
213.034	-11.99
213.419	30.18
213.805	5.89
214.19	-0.92
214.576	13.41
214.961	31.34
215.346	34.93
215.732	18.88
216.117	-23.13
216.502	39.7
216.888	9.12
217.273	-25.12
217.658	15.27
218.043	34.6
218.428	9.67
218.813	2.1
219.198	21.1
219.583	6.13
219.968	14.84
220.353	27.92
220.738	24.91
221.122	-0.67
221.507	15.35
221.892	11.71
222.276	7.68
222.661	26.79
223.046	25.8
223.43	19.38
223.815	23.05
224.199	16.11
224.583	-2.15
224.968	1.14
225.352	11.19
225.736	1.31
226.121	3.34
226.505	1.31
226.889	12.34
227.273	6.88
227.657	9.31
228.041	11.91
228.425	8.26
228.809	6.55
229.193	6.32
229.577	5.91
229.961	4.22
230.344	4.56
230.728	3.27
231.112	4.83
231.495	3.8
231.879	4.35
232.263	5.61
232.646	3.54
233.03	3.19
233.413	3.4
233.797	3.44
234.18	5.46
234.563	6.34
234.946	7.23
235.33	4.44
235.713	4.79
236.096	6.11
236.479	6.1
236.862	4.57
237.245	4.5
237.628	3.85
238.011	5
238.394	3.51
238.777	6.26
239.16	3.97
239.543	6.06
239.925	7.63
240.308	5.14
240.691	5.36
241.073	5.99
241.456	5.74
241.838	3.19
242.221	4.92
242.603	4.33
242.986	4.72
243.368	4.35
243.75	4.25
244.133	3.36
244.515	3.5
244.897	3.79
245.279	4.31
245.661	4.07
246.043	3.59
246.425	3.96
246.807	3.13
247.189	4
247.571	3.94
247.953	4.25
248.335	4.25
248.717	3.79
249.098	3.79
249.48	3.74
249.862	4.03
250.243	4.28
250.625	4.19
251.006	4.15
251.388	4.28
251.769	4.77
252.151	3.32
252.532	3.56
252.913	4.1
253.295	2.94
253.676	4.44
254.057	3.81
254.438	4.38
254.819	4.08
255.2	4.19
255.581	4.41
255.962	4.68
256.343	3.92
256.724	2.69
257.105	3.7
257.486	4.64
257.867	3.72
258.247	4.37
258.628	4.44
259.009	3.11
259.389	3.63
259.77	3.93
260.15	4.16
260.531	4.18
260.911	4.55
261.292	4.12
261.672	4.07
262.052	4.18
262.432	3.87
262.813	4.05
263.193	4.1
263.573	4.09
263.953	4.27
264.333	4.58
264.713	4.78
265.093	4.54
265.473	4.36
265.853	3.98
266.233	4.35
266.612	3.64
266.992	5.26
267.372	4.07
267.752	3.76
268.131	4.8
268.511	4.1
268.89	4.66
269.27	4.55
269.649	4.39
270.029	4.24
270.408	4.11
270.787	4.01
271.167	3.69
271.546	4.47
271.925	4.75
272.304	4.13
272.683	4.11
273.062	4.5
273.441	4.01
273.82	3.98
274.199	4.36
274.578	4.33
274.957	4.22
275.336	4.43
275.715	4.42
276.093	4.03
276.472	4.11
276.851	4.37
277.229	4.37
277.608	4.26
277.986	3.34
278.365	4.27
278.743	4.82
279.122	4.75
279.5	4.02
279.878	3.91
280.257	4.45
280.635	4.05
281.013	3.75
281.391	4.66
281.769	3.79
282.147	3.95
282.525	4.5
282.903	4.21
283.281	3.74
283.659	4.3
284.037	4.04
284.415	3.54
284.792	3.95
285.17	4.64
285.548	4.55
285.925	4.31
286.303	4.09
286.68	3.97
287.058	4.4
287.435	4.53
287.813	3.86
288.19	4.33
288.567	4.01
288.945	4.16
289.322	4.79
289.699	3.9
290.076	4.89
290.453	4.66
290.83	3.97
291.207	4.38
291.584	4.27
291.961	4.13
292.338	4.04
292.715	4.34
293.092	4.3
293.469	5.08
293.845	4.29
294.222	4.83
294.599	4.29
294.975	5.14
295.352	5.06
295.728	4.91
296.105	4.4
296.481	4.8
296.858	5.15
297.234	5.41
297.61	4.65
297.986	4.63
298.363	5.08
298.739	5.28
299.115	5.03
299.491	5.18
299.867	5.21
300.243	4.85
300.619	5.33
300.995	5.03
301.371	5.72
301.746	5.61
302.122	6.11
302.498	5.53
302.874	6.3
303.249	5.68
303.625	5.88
304	6.69
304.376	6.11
304.751	5.68
305.127	5.91
305.502	6.5
305.878	6.15
306.253	6.2
306.628	6.2
307.003	6.63
307.378	6.2
307.754	6.36
308.129	6.84
308.504	6.76
308.879	6.95
309.254	7.49
309.629	6.35
310.003	6.56
310.378	7.29
310.753	7.13
311.128	7.24
311.502	7.01
311.877	7.19
312.252	6.93
312.626	7.53
313.001	7.73
313.375	7.27
313.75	7.38
314.124	7.13
314.498	7.47
314.873	7.42
315.247	8.17
315.621	8.16
315.995	8.49
316.369	8
316.743	8.48
317.117	8.48
317.491	8.15
317.865	8.76
318.239	9.48
318.613	8.89
318.987	8.66
319.361	8.32
319.734	8.76
320.108	8.72
320.482	8.96
320.855	9.13
321.229	9.03
321.602	9.28
321.976	9.16
322.349	9.53
322.723	9.46
323.096	9.92
323.469	9.56
323.843	10.11
324.216	10.06
324.589	9.77
324.962	10.01
325.335	10.09
325.708	10.47
326.081	10.22
326.454	10.1
326.827	10.76
327.2	10.24
327.573	9.85
327.945	9.78
328.318	9.95
328.691	10.5
329.063	10.83
329.436	10.47
329.809	11.16
330.181	10.95
330.553	11.41
330.926	10.89
331.298	10.8
331.671	10.57
332.043	10.73
332.415	11.08
332.787	11.54
333.159	11.5
333.532	12.12
333.904	10.92
334.276	11.31
334.648	11.74
335.02	11.76
335.391	11.39
335.763	11.68
336.135	12.01
336.507	11.77
336.879	11.79
337.25	12.24
337.622	12.13
337.993	12.03
338.365	12.34
338.736	12.02
339.108	12.61
339.479	12.58
339.851	12.35
340.222	12.14
340.593	12.03
340.964	12.15
341.336	13.03
341.707	12.38
342.078	12.88
342.449	12.57
342.82	13.19
343.191	13.27
343.562	12.79
343.933	13.02
344.303	13.5
344.674	13.49
345.045	13.81
345.416	13.19
345.786	13.28
346.157	13.4
346.527	13.16
346.898	13.38
347.268	13.28
347.639	14.22
348.009	13.82
348.38	14.13
348.75	14.03
349.12	14.15
349.49	13.89
349.861	14.45
350.231	13.83
350.601	14.11
350.971	14.09
351.341	14.48
351.711	14.6
352.081	14.7
352.45	14.66
352.82	14.59
353.19	14.86
353.56	14.83
353.929	14.46
354.299	15.03
354.669	15.24
355.038	15.45
355.408	15.18
355.777	15.43
356.147	15.05
356.516	15.22
356.885	15.34
357.254	15.51
357.624	15.21
357.993	15.63
358.362	15.76
358.731	15.25
359.1	15.45
359.469	15.61
359.838	15.71
360.207	15.75
360.576	15.92
360.945	15.82
361.314	16.22
361.682	16.13
362.051	15.9
362.42	15.95
362.788	16.09
363.157	16.47
363.525	16.11
363.894	16.24
364.262	16.37
364.631	16.85
364.999	16.58
365.367	16.5
365.735	16.66
366.104	16.67
366.472	16.72
366.84	17.29
367.208	17.04
367.576	17.25
367.944	17.5
368.312	17.13
368.68	17.2
369.048	17.08
369.416	17.54
369.783	17.73
370.151	17.64
370.519	17.66
370.886	17.6
371.254	17.71
371.621	18
371.989	17.8
372.356	18.37
372.724	18.39
373.091	18.13
373.458	17.88
373.826	18.21
374.193	17.98
374.56	18.29
374.927	18.59
375.294	18.25
375.661	18.49
376.028	18.72
376.395	18.55
376.762	18.49
377.129	18.78
377.496	18.77
377.863	19.19
378.229	19
378.596	18.69
378.963	18.99
379.329	19.22
379.696	19.17
380.062	19.41
380.429	19.01
380.795	18.88
381.161	19.38
381.528	19.47
381.894	19.71
382.26	19.5
382.626	19.71
382.993	19.53
383.359	19.56
383.725	19.97
384.091	20.16
384.457	19.96
384.823	20.31
385.188	20.2
385.554	20.29
385.92	20.19
386.286	20.23
386.651	20.45
387.017	20.29
387.383	20.35
387.748	20.18
388.114	20.29
388.479	20.57
388.845	20.84
389.21	20.65
389.575	20.58
389.94	20.97
390.306	20.96
390.671	21.02
391.036	20.98
391.401	21.21
391.766	21.43
392.131	20.94
392.496	21.39
392.861	21.5
393.226	21.5
393.591	21.32
393.956	21.8
394.32	21.57
394.685	21.76
395.05	21.96
395.414	21.74
395.779	21.73
396.143	21.95
396.508	21.83
396.872	22.02
397.236	22.04
397.601	22.16
397.965	22.32
398.329	22.11
398.694	22.61
399.058	22.16
399.422	22.67
399.786	22.64
400.15	22.52
400.514	22.58
400.878	22.66
401.242	22.97
401.605	22.72
401.969	22.73
402.333	23.04
402.697	23.12
403.06	22.97
403.424	23.17
403.787	23.36
404.151	23.19
404.514	23.43
404.878	23.49
405.241	23.48
405.604	23.31
405.968	23.43
406.331	23.54
406.694	23.47
407.057	23.38
407.42	24.1
407.783	23.72
408.146	23.92
408.509	23.91
408.872	24.43
409.235	24.18
409.598	24.47
409.961	24.6
410.323	24.68
410.686	24.85
411.049	24.72
411.411	24.8
411.774	25.04
412.136	24.71
412.499	24.92
412.861	24.93
413.223	25.25
413.586	25.24
413.948	25.56
414.31	25.62
414.672	25.45
415.035	25.52
415.397	25.75
415.759	25.99
416.121	25.85
416.483	26.11
416.845	25.98
417.206	26.04
417.568	26.32
417.93	26.44
418.292	25.8
418.653	26.05
419.015	26.19
419.377	26.17
419.738	26.12
420.1	25.82
420.461	26.05
420.822	25.93
421.184	26
421.545	26.16
421.906	26.14
422.267	26.07
422.629	26.22
422.99	26.07
423.351	26.04
423.712	26.03
424.073	26.27
424.434	26.42
424.795	26.4
425.155	26.67
425.516	26.55
425.877	26.65
426.238	26.37
426.598	26.47
426.959	26.65
427.32	26.65
427.68	26.92
428.041	27.06
428.401	27.16
428.761	27.46
429.122	27.28
429.482	27.67
429.842	27.86
430.202	27.76
430.563	27.86
430.923	28.07
431.283	28.3
431.643	28.13
432.003	28.38
432.363	28.18
432.722	28.6
433.082	28.37
433.442	28.33
433.802	28.55
434.161	28.38
434.521	28.71
434.881	28.51
435.24	28.52
435.6	28.49
435.959	28.43
436.319	28.66
436.678	28.73
437.037	28.94
437.396	29.03
437.756	29.07
438.115	29
438.474	29.31
438.833	29.44
439.192	29.45
439.551	29.23
439.91	29.56
440.269	29.45
440.628	29.49
440.987	29.47
441.345	29.3
441.704	29.21
442.063	29.38
442.421	29.36
442.78	29.41
443.138	29.57
443.497	29.56
443.855	29.59
444.214	29.69
444.572	29.58
444.93	30.08
445.288	30.02
445.647	30.38
446.005	29.99
446.363	30.23
446.721	29.99
447.079	30.18
447.437	30.07
447.795	29.84
448.153	29.76
448.51	30.07
448.868	29.8
449.226	30
449.584	30.02
449.941	30.23
450.299	30.36
450.656	30.45
451.014	30.55
451.371	30.88
451.729	30.81
452.086	30.97
452.443	31.19
452.801	30.92
453.158	31.35
453.515	30.97
453.872	31.21
454.229	31.31
454.586	31.08
454.943	31.27
455.3	31.12
455.657	31.35
456.014	31.45
456.371	31.33
456.727	31.48
457.084	31.59
457.441	31.62
457.797	31.68
458.154	31.71
458.51	31.68
458.867	31.91
459.223	31.76
459.58	32.04
459.936	32.03
460.292	31.84
460.648	31.99
461.005	31.94
461.361	31.79
461.717	31.46
462.073	31.74
462.429	31.54
462.785	31.78
463.141	31.94
463.496	32.25
463.852	32.61
464.208	32.57
464.564	32.72
464.919	32.74
465.275	32.89
465.631	32.98
465.986	32.95
466.342	32.86
466.697	32.91
467.052	32.88
467.408	33.05
467.763	33.29
468.118	33.22
468.473	33.33
468.829	33.3
469.184	33.25
469.539	33.35
469.894	33.52
470.249	33.5
470.603	33.45
470.958	33.84
471.313	33.87
471.668	33.96
472.023	33.85
472.377	34.13
472.732	33.72
473.086	34.13
473.441	34.18
473.795	34.03
474.15	34.11
474.504	33.99
474.859	34.2
475.213	34.37
475.567	34.33
475.921	34.09
476.275	34.31
476.63	34.53
476.984	34.57
477.338	34.48
477.692	34.64
478.045	34.71
478.399	34.69
478.753	34.38
479.107	34.42
479.461	34.75
479.814	34.92
480.168	34.76
480.521	34.72
480.875	34.81
481.228	34.88
481.582	34.97
481.935	34.87
482.289	34.94
482.642	35.05
482.995	34.92
483.348	34.94
483.701	34.84
484.055	34.82
484.408	34.48
484.761	34.56
485.114	34.35
485.466	34.1
485.819	33.87
486.172	33.93
486.525	33.99
486.878	34.03
487.23	34.08
487.583	34.31
487.936	34.63
488.288	34.76
488.641	34.87
488.993	34.59
489.345	34.5
489.698	34.46
490.05	34.42
490.402	34.54
490.754	34.56
491.107	34.85
491.459	35.11
491.811	35.29
492.163	35.45
492.515	35.43
492.866	35.68
493.218	35.47
493.57	34.96
493.922	35.01
494.274	35.13
494.625	35.22
494.977	35.53
495.328	35.72
495.68	36.12
496.031	36.37
496.383	36.63
496.734	36.58
497.086	36.65
497.437	36.76
497.788	36.81
498.139	36.82
498.49	36.65
498.842	36.61
499.193	36.69
499.544	36.65
499.894	36.89
500.245	36.87
500.596	36.87
500.947	37.06
501.298	36.99
501.648	37.12
501.999	37.33
502.35	37.19
502.7	37.28
503.051	37.72
503.401	37.73
503.752	37.67
504.102	37.9
504.452	37.76
504.803	37.93
505.153	38.1
505.503	37.78
505.853	37.84
506.203	37.69
506.553	37.99
506.903	37.95
507.253	38.02
507.603	38.12
507.953	38.08
508.303	38.07
508.652	38.31
509.002	38.21
509.352	38.38
509.701	38.34
510.051	38.21
510.4	38.46
510.75	38.24
511.099	38.31
511.449	38.45
511.798	38.21
512.147	38.27
512.496	38.63
512.846	38.33
513.195	38.56
513.544	38.58
513.893	38.59
514.242	38.76
514.591	38.53
514.939	38.78
515.288	38.81
515.637	39.05
515.986	39.17
516.334	39.16
516.683	38.94
517.032	39.15
517.38	39.25
517.729	39.47
518.077	39.4
518.426	39.25
518.774	39.38
519.122	39.39
519.47	39.25
519.819	39.2
520.167	39.11
520.515	38.93
520.863	39.11
521.211	39.16
521.559	39.13
521.907	39.23
522.255	39.21
522.602	39.57
522.95	39.58
523.298	39.88
523.645	39.85
523.993	39.78
524.341	39.92
524.688	40.05
525.036	40.28
525.383	40
525.73	40.11
526.078	40.2
526.425	40.34
526.772	40.26
527.119	40.07
527.466	39.71
527.814	39.66
528.161	39.78
528.508	39.7
528.854	39.89
529.201	39.99
529.548	40.05
529.895	39.85
530.242	39.53
530.588	39.36
530.935	39.56
531.282	39.62
531.628	39.47
531.975	39.47
532.321	39.82
532.667	40.06
533.014	40.27
533.36	40.45
533.706	40.51
534.052	40.63
534.399	40.71
534.745	40.54
535.091	40.26
535.437	40.14
535.783	40.24
536.129	40.48
536.474	40.45
536.82	40.62
537.166	40.81
537.512	41.05
537.857	41.15
538.203	41.18
538.549	41.28
538.894	41.02
539.239	41.09
539.585	41.02
539.93	41.3
540.276	41.48
540.621	41.67
540.966	41.71
541.311	42.12
541.656	41.63
542.001	41.97
542.346	42.02
542.691	41.68
543.036	41.42
543.381	41.16
543.726	41.13
544.071	41.12
544.415	41.35
544.76	41.39
545.105	41.69
545.449	41.73
545.794	41.77
546.138	41.79
546.483	42.02
546.827	42.21
547.171	42.41
547.516	42.24
547.86	42.38
548.204	42.34
548.548	42.46
548.892	42.39
549.236	42.37
549.58	42.43
549.924	42.81
550.268	42.8
550.612	42.85
550.956	43.01
551.3	43.19
551.643	43.06
551.987	43.46
552.33	43.47
552.674	43.17
553.017	43.46
553.361	43.51
553.704	43.75
554.048	43.58
554.391	43.71
554.734	43.65
555.077	43.46
555.42	43.32
555.764	43.61
556.107	43.78
556.45	43.88
556.793	43.84
557.135	43.82
557.478	44.09
557.821	44.19
558.164	44.22
558.507	44.23
558.849	44.34
559.192	44.42
559.534	44.43
559.877	44.37
560.219	44.48
560.562	44.17
560.904	44.36
561.246	44.75
561.589	44.65
561.931	44.49
562.273	44.71
562.615	44.77
562.957	44.6
563.299	44.82
563.641	44.91
563.983	44.69
564.325	44.92
564.667	44.96
565.008	44.91
565.35	44.62
565.692	44.99
566.033	44.92
566.375	45.14
566.716	45.01
567.058	45.34
567.399	45.23
567.741	44.87
568.082	45.37
568.423	45.04
568.764	44.76
569.105	45.04
569.447	45.01
569.788	45.23
570.129	45.15
570.47	45.42
570.811	45.24
571.151	45.35
571.492	45.44
571.833	45.63
572.174	45.67
572.514	45.29
572.855	45.73
573.195	45.74
573.536	45.45
573.876	45.83
574.217	45.35
574.557	45.4
574.898	45.7
575.238	45.58
575.578	45.83
575.918	45.5
576.258	45.88
576.598	45.95
576.938	45.99
577.278	46.12
577.618	45.84
577.958	46.16
578.298	46.24
578.638	46.24
578.977	46.34
579.317	46.29
579.657	46.39
579.996	46.66
580.336	46.86
580.675	46.5
581.014	46.72
581.354	46.87
581.693	46.86
582.032	46.91
582.372	46.93
582.711	47.2
583.05	47.23
583.389	47.14
583.728	46.86
584.067	47.38
584.406	47.3
584.745	47.08
585.083	47.38
585.422	47.23
585.761	47.47
586.1	47.62
586.438	47.5
586.777	47.56
587.115	47.55
587.454	47.81
587.792	47.25
588.13	47.56
588.469	47.8
588.807	47.03
589.145	47.69
589.483	47.58
589.821	47.6
590.159	47.94
590.497	48.11
590.835	47.73
591.173	47.76
591.511	47.84
591.849	48.06
592.187	47.94
592.524	47.76
592.862	47.97
593.2	48.03
593.537	47.91
593.875	48.13
594.212	48.14
594.55	48.58
594.887	48.13
595.224	48.49
595.561	48.04
595.899	48.46
596.236	48.27
596.573	48.29
596.91	48.5
597.247	48.14
597.584	48.39
597.921	48.47
598.258	48.35
598.594	48.66
598.931	48.26
599.268	48.14
599.604	48.51
599.941	48.43
600.277	48.18
600.614	48.43
600.95	48.52
601.287	48.48
601.623	48.69
601.959	48.94
602.296	49.18
602.632	49.16
602.968	48.88
603.304	49.2
603.64	49.02
603.976	48.97
604.312	49.18
604.648	48.93
604.984	49.21
605.319	49.26
605.655	49.21
605.991	49.22
606.326	48.85
606.662	49.02
606.998	48.83
607.333	48.74
607.668	49.1
608.004	49.19
608.339	49.27
608.674	49.13
609.01	49.63
609.345	49.88
609.68	49.81
610.015	49.64
610.35	49.52
610.685	50.03
611.02	49.62
611.355	49.28
611.689	49.44
612.024	49.62
612.359	49.64
612.694	49.74
613.028	50.01
613.363	49.87
613.697	50.03
614.032	49.74
614.366	50.22
614.7	49.99
615.035	50.4
615.369	50.35
615.703	50.5
616.037	50.48
616.371	50.41
616.705	50.41
617.039	50.22
617.373	50.57
617.707	50.64
618.041	51.11
618.375	50.19
618.709	50.3
619.042	50.88
619.376	50.71
619.71	51.18
620.043	50.72
620.377	50.94
620.71	50.52
621.043	50.64
621.377	50.4
621.71	50.81
622.043	51.09
622.376	50.57
622.709	50.95
623.043	51.64
623.376	50.75
623.709	50.81
624.041	51.59
624.374	51.2
624.707	50.97
625.04	51.38
625.373	51.39
625.705	51
626.038	51.32
626.37	51.33
626.703	51.22
627.035	51.44
627.368	51.28
627.7	51.29
628.032	51.57
628.365	51.66
628.697	51.28
629.029	51.77
629.361	51.38
629.693	51.62
630.025	51.9
630.357	51.74
630.689	51.32
631.021	51.86
631.353	51.41
631.684	51.88
632.016	51.63
632.348	51.55
632.679	51.82
633.011	52.24
633.342	51.98
633.674	52.35
634.005	52.3
634.336	52.06
634.668	51.95
634.999	52.42
635.33	52.09
635.661	52.65
635.992	52.35
636.323	52.15
636.654	52.52
636.985	51.93
637.316	52.03
637.647	52.35
637.977	52.14
638.308	52
638.639	52.62
638.969	53.09
639.3	52.17
639.63	52.7
639.961	52.56
640.291	52.24
640.622	52.94
640.952	52.97
641.282	53.12
641.612	52.78
641.943	52.73
642.273	53.58
642.603	53.1
642.933	52.55
643.263	52.69
643.592	53.36
643.922	53.47
644.252	53.07
644.582	52.89
644.911	53.57
645.241	53.16
645.571	53.5
645.9	53.57
646.23	53.1
646.559	53.16
646.888	54.26
647.218	53.25
647.547	53.73
647.876	53.66
648.205	53.68
648.534	53.21
648.863	53.71
649.192	53.33
649.521	53.37
649.85	53.48
650.179	53.2
650.508	53.36
650.837	53.76
651.165	53.71
651.494	53.37
651.822	53.07
652.151	53.81
652.479	53.49
652.808	53.4
653.136	52.77
653.465	53.67
653.793	53.55
654.121	53.8
654.449	53.78
654.777	53.83
655.105	53.82
655.433	53.93
655.761	53.06
656.089	54.51
656.417	54.06
656.745	54.01
657.073	53.79
657.4	54.27
657.728	54.49
658.056	54.38
658.383	53.94
658.711	54.14
659.038	53.88
659.365	54.26
659.693	54.45
660.02	54.63
660.347	53.92
660.674	53.92
661.001	54.15
661.329	54.34
661.656	54.35
661.982	54.19
662.309	54.59
662.636	54.13
662.963	54.37
663.29	54.58
663.616	54.63
663.943	54
664.27	54.31
664.596	54.29
664.923	54.71
665.249	54.69
665.576	54.93
665.902	54.96
666.228	54.84
666.554	54.52
666.881	54.86
667.207	55.25
667.533	54.77
667.859	54.73
668.185	55.25
668.511	55.71
668.837	54.97
669.162	54.51
669.488	55.19
669.814	54.98
670.139	54.9
670.465	54.57
670.791	54.89
671.116	55.13
671.442	54.98
671.767	54.98
672.092	55.2
672.418	55.5
672.743	55.13
673.068	55.32
673.393	55.35
673.718	55.13
674.043	54.3
674.368	55
674.693	55.42
675.018	55.84
675.343	55.27
675.667	56.28
675.992	55.45
676.317	55.74
676.641	55.12
676.966	55.83
677.29	55.77
677.615	55.77
677.939	55.85
678.264	55.59
678.588	55.09
678.912	55.98
679.236	55.67
679.56	55.72
679.885	55.58
680.209	55.45
680.532	55.27
680.856	55.44
681.18	56.29
681.504	56.37
681.828	55.91
682.152	55.44
682.475	55.66
682.799	55.61
683.122	56.8
683.446	56.25
683.769	56.09
684.093	55.74
684.416	55.86
684.739	55.99
685.062	56.58
685.386	56.89
685.709	56.54
686.032	56.29
686.355	56.22
686.678	56.19
687.001	56.18
687.324	55.46
687.646	56.48
687.969	57.56
688.292	56.76
688.614	56.26
688.937	55.94
689.26	56.85
689.582	56.16
689.904	56.42
690.227	56.99
690.549	56.43
690.871	56.96
691.194	57.11
691.516	56.3
691.838	57.55
692.16	56.29
692.482	56.68
692.804	56.27
693.126	56.87
693.448	57.9
693.769	56.61
694.091	56.02
694.413	56.53
694.735	57.2
695.056	57.38
695.378	56.81
695.699	57.43
696.021	56.89
696.342	56.48
696.663	57.82
696.984	57.2
697.306	57.05
697.627	57.35
697.948	57.76
698.269	57.72
698.59	57.23
698.911	58.35
699.232	57.21
699.553	57.21
699.873	57.24
700.194	58.28
700.515	57.28
700.835	57.62
701.156	57.47
701.477	57.45
701.797	56.66
702.117	56.81
702.438	58.65
702.758	56.99
703.078	56.97
703.398	57.65
703.719	57.47
704.039	57.46
704.359	56.83
704.679	58.28
704.999	57.13
705.319	58.71
705.638	57.58
705.958	57.28
706.278	57.57
706.597	57.47
706.917	56.52
707.237	58.11
707.556	57.45
707.876	57.73
708.195	58.73
708.514	57.94
708.834	58.92
709.153	57.71
709.472	58.33
709.791	58.88
710.11	58.95
710.429	57.54
710.748	58.04
711.067	58.36
711.386	58.92
711.705	58.3
712.023	58.38
712.342	57.85
712.661	57.72
712.979	56.99
713.298	58.24
713.616	57.36
713.935	58.24
714.253	57.94
714.572	57.64
714.89	59.03
715.208	58.29
715.526	58.33
715.844	58.88
716.162	59.27
716.48	59.49
716.798	58.78
717.116	59.33
717.434	58.85
717.752	59.6
718.069	58.68
718.387	58.27
718.705	59.03
719.022	59.78
719.34	57.91
719.657	57.91
719.975	58.25
720.292	59.89
720.609	60.05
720.927	59.21
721.244	58.82
721.561	59.4
721.878	58.14
722.195	58.44
722.512	59.74
722.829	58.2
723.146	58.73
723.463	58.22
723.779	59.72
724.096	58.33
724.413	60.02
724.729	58.77
725.046	61.29
725.362	60.77
725.679	59.88
725.995	59.91
726.311	60.06
726.628	59.66
726.944	58.93
727.26	57.74
727.576	57.93
727.892	60.08
728.208	60.45
728.524	59.41
728.84	57.18
729.156	60.63
729.472	58.76
729.787	59.87
730.103	60.42
730.419	59.07
730.734	58.93
731.05	59.62
731.365	60.28
731.681	59.97
731.996	59.4
732.311	59.69
732.626	58.69
732.942	60.69
733.257	60.99
733.572	59.3
733.887	59.34
734.202	61.31
734.517	59.68
734.832	59.8
735.146	60.29
735.461	59.93
735.776	59.76
736.091	60.66
736.405	60.68
736.72	59.6
737.034	59.92
737.349	59.66
737.663	58.79
737.977	58.84
738.292	59.54
738.606	58.54
738.92	59.99
739.234	59.31
739.548	59.86
739.862	60.04
740.176	59.69
740.49	60.09
740.804	62.24
741.117	60.02
741.431	59.47
741.745	59.55
742.058	59.81
742.372	60.93
742.685	60.14
742.999	60.5
743.312	59.24
743.626	59.98
743.939	61.28
744.252	58.97
744.565	60.38
744.878	58.5
745.191	59.32
745.505	58.48
745.817	60.07
746.13	62.25
746.443	59.95
746.756	59.41
747.069	60.29
747.381	59.9
747.694	60.48
748.007	59.4
748.319	61.68
748.632	58.45
748.944	60.85
749.256	61.1
749.569	60.5
749.881	63.05
750.193	61.02
750.505	58.33
750.817	60.04
751.129	61.62
751.441	61.1
751.753	60.9
752.065	63.05
752.377	60.76
752.689	59.38
753	61.6
753.312	59.79
753.624	59.7
753.935	61.11
754.247	61.53
754.558	62.11
754.869	63.7
755.181	62
755.492	59.57
755.803	62.78
756.114	60.12
756.425	60.43
756.736	61.29
757.047	60.85
757.358	60
757.669	61.25
757.98	60.15
758.291	64.03
758.601	60.66
758.912	60.48
759.223	59.66
759.533	59.66
759.844	63.36
760.154	61.21
760.464	62.55
760.775	60.96
761.085	60.58
761.395	60.82
761.705	60.74
762.016	60.53
762.326	63.2
762.636	62.95
762.945	61.76
763.255	62.7
763.565	62.57
763.875	62.29
764.185	61.5
764.494	63.18
764.804	63.04
765.113	61.17
765.423	60.74
765.732	64.02
766.042	61.91
766.351	61.89
766.66	60.9
766.97	62.72
767.279	62.21
767.588	61.07
767.897	61.48
768.206	62.01
768.515	63.61
768.824	62.61
769.133	61.44
769.441	62.76
769.75	60.43
770.059	62.31
770.367	62.72
770.676	64.81
770.984	60.91
771.293	61.25
771.601	60.21
771.91	61.61
772.218	62.26
772.526	61.85
772.834	64.13
773.142	63.25
773.45	59
773.758	62.72
774.066	60.84
774.374	60.66
774.682	61.9
774.99	60.1
775.298	63.34
775.605	62.99
775.913	62.64
776.22	61.39
776.528	61.95
776.835	63.11
777.143	62.49
777.45	63.52
777.757	60.45
778.065	63.31
778.372	66.99
778.679	59.33
778.986	61.14
779.293	61.26
779.6	60.97
779.907	60.24
780.214	63.54
780.52	64.44
780.827	63.93
781.134	60.85
781.44	63.99
781.747	63.35
782.053	62.21
782.36	60.9
782.666	62.19
782.973	57.99
783.279	62.25
783.585	59.36
783.891	63.34
784.197	63.74
784.503	62.34
784.809	61.99
785.115	57.89
785.421	63.13
785.727	63.61
786.033	62.67
786.339	63.46
786.644	62.99
786.95	65.07
787.255	64.6
787.561	64.89
787.866	58.8
788.172	63.41
788.477	64.06
788.782	64.46
789.088	64.34
789.393	60.1
789.698	60.78
790.003	61.89
790.308	62.92
790.613	63.79
790.918	65.35
791.223	60.79
791.527	64.3
791.832	64.78
792.137	64.69
792.441	59.34
792.746	66.25
793.05	61.32
793.355	63.98
793.659	60.51
793.963	60.8
794.268	62.9
794.572	64.99
794.876	64.4
795.18	64.25
795.484	64.73
795.788	61.3
796.092	63.84
796.396	62.84
796.7	67.6
797.004	62.92
797.307	69.51
797.611	62.35
797.915	62.53
798.218	62.01
798.522	66.02
798.825	64.32
799.128	63.3
799.432	62.41
799.735	62.08
800.038	60.63
800.341	62.32
800.644	59.57
800.947	65.02
801.25	64.93
801.553	63.24
801.856	61.97
802.159	63.59
802.462	59.46
802.764	59.09
803.067	62.36
803.37	63.91
803.672	65.43
803.975	60.07
804.277	62.85
804.579	67.43
804.882	65.59
805.184	61.08
805.486	62.58
805.788	60.43
806.09	65.87
806.392	59.29
806.694	70.89
806.996	66.11
807.298	65.77
807.6	64.45
807.902	61.7
808.203	64.33
808.505	64.93
808.807	63.96
809.108	60.12
809.409	60.26
809.711	62.63
810.012	62
810.313	64.56
810.615	61.61
810.916	66.46
811.217	68.29
811.518	65.83
811.819	59.77
812.12	62.61
812.421	62.11
812.722	62.94
813.023	61.79
813.323	61.84
813.624	70.37
813.925	56.67
814.225	63.38
814.526	65.74
814.826	61.22
815.126	60.87
815.427	62.1
815.727	63.55
816.027	67.66
816.327	65.35
816.627	67.29
816.927	58.67
817.227	64.97
817.527	61.68
817.827	63.74
818.127	64.76
818.427	62.73
818.727	64
819.026	61.38
819.326	62.44
819.625	59.78
819.925	67.28
820.224	71.52
820.524	63.09
820.823	63.28
821.122	60.07
821.421	61.5
821.72	63.4
822.019	66.44
822.318	62.21
822.617	67.37
822.916	63.93
823.215	62.71
823.514	66.26
823.813	67.91
824.111	66.63
824.41	64.09
824.709	66.05
825.007	66.06
825.306	65.32
825.604	66.37
825.902	66.01
826.201	65.72
826.499	66.38
826.797	63.66
827.095	66.2
827.393	63.06
827.691	67.1
827.989	63.6
828.287	65.21
828.585	63.56
828.882	64.98
829.18	66.76
829.478	63.95
829.775	62.7
830.073	65.88
830.37	65.21
830.668	66.67
830.965	64.33
831.263	62.39
831.56	61.5
831.857	66.4
832.154	65.03
832.451	66.58
832.748	63
833.045	63.88
833.342	64.94
833.639	71.38
833.936	69.34
834.232	66.73
834.529	64.21
834.826	64.41
835.122	64.54
835.419	62.06
835.715	71.25
836.012	63.67
836.308	61.15
836.604	68.15
836.901	64.6
837.197	64.79
837.493	67.61
837.789	63.07
838.085	60.97
838.381	70.55
838.677	67.11
838.972	69.34
839.268	66.16
839.564	61.6
839.86	60.6
840.155	60.7
840.451	63.64
840.746	67.03
841.042	68.67
841.337	59.8
841.632	54.93
841.928	59.02
842.223	62.44
842.518	60.84
842.813	65.41
843.108	72.92
843.403	66.36
843.698	61.05
843.993	58.64
844.287	66.86
844.582	72.81
844.877	60.86
845.171	73.68
845.466	58.07
845.761	68.96
846.055	74
846.349	66.26
846.644	53.38
846.938	68.03
847.232	69.03
847.526	55.24
847.82	53.82
848.114	61.61
848.408	82.28
848.702	74.26
848.996	72.98
849.29	52.61
849.584	62.23
849.877	73.96
850.171	66.86
850.465	63.4
850.758	51.02
851.052	61.23
851.345	64.71
851.638	69.07
851.932	62.86
852.225	82.19
852.518	76.81
852.811	50.3
853.104	84.73
853.397	81.69
853.69	73.26
853.983	66.64
854.276	66.34
854.569	64.19
854.861	40.6
855.154	67.74
855.447	68.17
855.739	63.25
856.032	74.27
856.324	51.5
856.616	50.97
856.909	92.18
857.201	62.04
857.493	52.04
857.785	63.51
858.077	78.79
858.369	56.32
858.661	66.98
858.953	64.68
859.245	59.53
859.537	69.65
859.829	42.02
860.12	65.94
860.412	44.43
860.703	68.74
860.995	69.56
861.286	39.08
861.578	51.82
861.869	40.68
862.16	55.92
862.452	57.85
862.743	55.59
863.034	37.9
863.325	71.39
863.616	46.77
863.907	70.33
864.198	48.49
864.488	41.09
864.779	54.16
865.07	66.06
865.36	68.19
865.651	46.01
865.941	55.36
866.232	52.44
866.522	43.54
866.813	61.18
867.103	45.53
867.393	60.39
867.683	54.37
867.973	77.7
868.263	62.41
868.553	62.61
868.843	43.91
869.133	68.89
869.423	47.68
869.713	50.01
870.002	64.76
870.292	43.15
870.582	76.29
870.871	56.83
871.161	55.7
871.45	68.18
871.739	65.32
872.029	42.02
872.318	55
872.607	48.57
872.896	59.43
873.185	62.03
873.474	100.27
873.763	81.39
874.052	64.17
874.341	75.08
874.63	55.37
874.918	77.19
875.207	60.02
875.496	50.57
875.784	85.16
876.073	110.67
876.361	63.63
876.649	64.94
876.938	72.82
877.226	66.31
877.514	63.94
877.802	57.31
878.09	70.58
878.378	62.63
878.666	63.45
878.954	60.7
879.242	54.8
879.53	66.29
879.817	50.53
880.105	46.6
880.392	61.96
880.68	44.72
880.967	86.26
881.255	72.91
881.542	75
881.83	57.36
882.117	81.86
882.404	68.46
882.691	71.61
882.978	53.03
883.265	39.87
883.552	80.15
883.839	52.22
884.126	54.97
884.413	75.39
884.699	66.39
884.986	65.98
885.273	71.27
885.559	71.27
885.846	71.27
