Data from 0369_forehead_Reflection__3__292.txt Node

Date: Fri Oct 20 23:02:04 CDT 2023
User: ToomeyLab
Spectrometer: FLMS14357
Trigger mode: 0
Integration Time (sec): 1.000000E-2
Scans to average: 100
Electric dark correction enabled: true
Nonlinearity correction enabled: false
Boxcar width: 0
XAxis mode: Wavelengths
Number of Pixels in Spectrum: 2048
>>>>>Begin Spectral Data<<<<<
189.047	-101.84
189.435	-101.84
189.823	-101.84
190.211	-2.27
190.599	-95.1
190.987	49.62
191.375	21.01
191.763	49.95
192.151	421.72
192.538	-30.16
192.926	33.43
193.314	45.52
193.702	454.39
194.089	144.95
194.477	53.53
194.864	111.38
195.252	182.59
195.639	-624.34
196.027	23.45
196.414	59.34
196.801	214.66
197.189	238.25
197.576	56.19
197.963	585.42
198.351	75.99
198.738	45.49
199.125	40.66
199.512	32.94
199.899	47.13
200.286	-10.51
200.673	61.14
201.06	58.59
201.447	2.29
201.833	36.07
202.22	34.88
202.607	35.19
202.994	47.33
203.38	19.99
203.767	45.93
204.154	55.47
204.54	70.37
204.927	41.38
205.313	13.54
205.699	56.85
206.086	33.5
206.472	37.82
206.858	46.15
207.245	8.48
207.631	41.31
208.017	38.59
208.403	18.7
208.789	31.72
209.175	11.84
209.561	33.59
209.947	10.13
210.333	36.75
210.719	13.22
211.105	-18.53
211.491	27.22
211.876	18.49
212.262	42.64
212.648	21.94
213.034	21.69
213.419	49.22
213.805	21.47
214.19	14.1
214.576	-10.54
214.961	16.48
215.346	42.84
215.732	19.09
216.117	16.4
216.502	52.5
216.888	11.1
217.273	12.45
217.658	12.18
218.043	4.34
218.428	8.32
218.813	21.97
219.198	29.75
219.583	-0.94
219.968	-6.67
220.353	11.39
220.738	34.28
221.122	15.38
221.507	44.97
221.892	2.98
222.276	11.1
222.661	21.14
223.046	22.81
223.43	20.8
223.815	19.28
224.199	20.21
224.583	7.88
224.968	-1.3
225.352	-5.38
225.736	6.97
226.121	17.94
226.505	1.67
226.889	5.99
227.273	12.43
227.657	10.51
228.041	12.02
228.425	9.84
228.809	6.1
229.193	4.86
229.577	6.9
229.961	5.59
230.344	4.6
230.728	4.42
231.112	4.88
231.495	4.13
231.879	4.4
232.263	4.62
232.646	4.52
233.03	4.13
233.413	4.46
233.797	4.08
234.18	4.04
234.563	6.13
234.946	4.83
235.33	7.91
235.713	5.24
236.096	5.49
236.479	5.44
236.862	3.85
237.245	3.41
237.628	5.22
238.011	5.85
238.394	3.87
238.777	5.82
239.16	4.05
239.543	5.92
239.925	6.74
240.308	5.05
240.691	5.4
241.073	5.94
241.456	5.15
241.838	6.17
242.221	6.01
242.603	6.07
242.986	4.75
243.368	4.25
243.75	4.31
244.133	4.38
244.515	4.15
244.897	4.27
245.279	4.45
245.661	5.1
246.043	4.29
246.425	4.81
246.807	5.32
247.189	4.52
247.571	4.12
247.953	4.93
248.335	4.89
248.717	4.19
249.098	4.02
249.48	4.17
249.862	4.5
250.243	4.79
250.625	4.68
251.006	4.59
251.388	4.77
251.769	4.88
252.151	4.19
252.532	4.97
252.913	3.89
253.295	4.31
253.676	4.34
254.057	4.08
254.438	4.33
254.819	4.76
255.2	4.56
255.581	4.06
255.962	4.43
256.343	5.02
256.724	3.59
257.105	5.75
257.486	4.84
257.867	4.17
258.247	5.39
258.628	5.12
259.009	3.97
259.389	4.57
259.77	4.07
260.15	4.96
260.531	5.04
260.911	4.78
261.292	4.35
261.672	4.35
262.052	4.44
262.432	4.38
262.813	4.22
263.193	4.86
263.573	4.61
263.953	4.96
264.333	5.25
264.713	4.9
265.093	5.46
265.473	5.25
265.853	3.86
266.233	5.16
266.612	5.1
266.992	4.45
267.372	4.22
267.752	4.84
268.131	4.6
268.511	4.02
268.89	4.42
269.27	4.4
269.649	3.78
270.029	4.5
270.408	4.71
270.787	4.14
271.167	4.68
271.546	4.69
271.925	5.35
272.304	5.32
272.683	4.71
273.062	4.74
273.441	4.46
273.82	4.14
274.199	4.41
274.578	4.13
274.957	4.34
275.336	4.7
275.715	4.54
276.093	4.5
276.472	4.57
276.851	4.06
277.229	4.28
277.608	4.02
277.986	4.27
278.365	4.84
278.743	4.26
279.122	4.56
279.5	4.66
279.878	3.84
280.257	4.67
280.635	4.96
281.013	4.89
281.391	4.98
281.769	4.66
282.147	4.55
282.525	4.67
282.903	4.84
283.281	4.45
283.659	4.12
284.037	4.52
284.415	4.38
284.792	4.46
285.17	4.65
285.548	4.21
285.925	4.38
286.303	4.05
286.68	4.25
287.058	4.85
287.435	4.83
287.813	4.67
288.19	4.38
288.567	4.6
288.945	4.86
289.322	5.04
289.699	4.82
290.076	5.22
290.453	4.77
290.83	4.8
291.207	5.22
291.584	5.09
291.961	4.69
292.338	4.61
292.715	4.73
293.092	4.73
293.469	5.44
293.845	5.02
294.222	4.83
294.599	4.94
294.975	5.96
295.352	5.31
295.728	5.59
296.105	5.08
296.481	5.27
296.858	5.76
297.234	5.63
297.61	4.94
297.986	5.38
298.363	5.53
298.739	5.65
299.115	5.85
299.491	5.67
299.867	5.8
300.243	5.73
300.619	5.68
300.995	5.58
301.371	6.14
301.746	6.41
302.122	6.11
302.498	5.89
302.874	6.04
303.249	6.06
303.625	6.42
304	7.05
304.376	6.4
304.751	6.72
305.127	6.62
305.502	7.04
305.878	6.87
306.253	6.79
306.628	6.74
307.003	6.89
307.378	6.8
307.754	6.83
308.129	7.61
308.504	7.07
308.879	7.04
309.254	7.08
309.629	6.58
310.003	7.03
310.378	8.04
310.753	7.51
311.128	7.6
311.502	7.34
311.877	7.76
312.252	7.35
312.626	7.69
313.001	7.66
313.375	7.78
313.75	7.64
314.124	7.68
314.498	7.94
314.873	7.8
315.247	8.38
315.621	9.02
315.995	8.95
316.369	8.39
316.743	8.72
317.117	8.63
317.491	7.81
317.865	9.19
318.239	9.26
318.613	9.04
318.987	9.18
319.361	8.48
319.734	8.59
320.108	9.14
320.482	9.29
320.855	9.15
321.229	9.71
321.602	9.06
321.976	9.63
322.349	9.86
322.723	10.03
323.096	10.07
323.469	9.75
323.843	9.98
324.216	10.49
324.589	10.14
324.962	10.39
325.335	10.02
325.708	10.1
326.081	10.44
326.454	10.3
326.827	10.41
327.2	10.93
327.573	10.96
327.945	10.56
328.318	10.54
328.691	10.28
329.063	10.8
329.436	10.7
329.809	10.45
330.181	11.41
330.553	11.22
330.926	10.88
331.298	10.68
331.671	10.98
332.043	10.71
332.415	11.48
332.787	11.28
333.159	11.27
333.532	11.2
333.904	11.53
334.276	11.18
334.648	11.74
335.02	12.27
335.391	11.62
335.763	11.89
336.135	11.89
336.507	11.7
336.879	12.11
337.25	12.04
337.622	11.72
337.993	12.24
338.365	12.02
338.736	12.29
339.108	12.44
339.479	12.12
339.851	12.22
340.222	12.24
340.593	12.29
340.964	12.11
341.336	13
341.707	12.44
342.078	12.25
342.449	12.64
342.82	12.75
343.191	12.76
343.562	13.05
343.933	12.68
344.303	13.06
344.674	12.77
345.045	13.23
345.416	13.39
345.786	13.03
346.157	13.36
346.527	13.37
346.898	13.44
347.268	13.27
347.639	13.48
348.009	13.3
348.38	13.85
348.75	13.75
349.12	14.13
349.49	13.72
349.861	13.73
350.231	13.97
350.601	14.27
350.971	14.33
351.341	14.06
351.711	14.51
352.081	14.07
352.45	14.07
352.82	14.54
353.19	14.26
353.56	14.83
353.929	14.57
354.299	14.27
354.669	14.6
355.038	14.44
355.408	14.78
355.777	14.93
356.147	14.31
356.516	14.87
356.885	14.74
357.254	14.52
357.624	14.71
357.993	14.9
358.362	14.98
358.731	14.89
359.1	14.7
359.469	14.98
359.838	15.2
360.207	15.18
360.576	15.74
360.945	15.12
361.314	15.61
361.682	15.42
362.051	15.15
362.42	15.35
362.788	15.6
363.157	15.55
363.525	15.17
363.894	15.44
364.262	15.44
364.631	15.79
364.999	15.74
365.367	15.58
365.735	15.96
366.104	15.71
366.472	16.44
366.84	16.46
367.208	16.12
367.576	16.46
367.944	16.37
368.312	16.42
368.68	16.64
369.048	16.46
369.416	16.62
369.783	17.01
370.151	16.62
370.519	16.74
370.886	16.66
371.254	16.8
371.621	17.5
371.989	17.08
372.356	17
372.724	17.56
373.091	17.14
373.458	17.08
373.826	17.11
374.193	16.99
374.56	16.83
374.927	17.4
375.294	17.62
375.661	17.62
376.028	17.58
376.395	17.75
376.762	17.55
377.129	17.75
377.496	18
377.863	18.07
378.229	17.96
378.596	18.12
378.963	18
379.329	17.87
379.696	18.3
380.062	18.13
380.429	17.9
380.795	18.3
381.161	18.29
381.528	18.6
381.894	18.58
382.26	18.42
382.626	18.92
382.993	19.03
383.359	18.54
383.725	18.95
384.091	18.92
384.457	18.96
384.823	19.21
385.188	19.12
385.554	18.87
385.92	19.13
386.286	19.2
386.651	19.05
387.017	19.33
387.383	19.18
387.748	19.16
388.114	19.22
388.479	19.4
388.845	19.76
389.21	19.24
389.575	19.3
389.94	19.27
390.306	19.68
390.671	19.68
391.036	19.95
391.401	19.92
391.766	20.24
392.131	20.01
392.496	20.09
392.861	20
393.226	20.02
393.591	19.81
393.956	19.96
394.32	20.41
394.685	20.32
395.05	20.45
395.414	20.67
395.779	20.38
396.143	20.26
396.508	20.5
396.872	20.71
397.236	20.55
397.601	20.61
397.965	20.81
398.329	20.81
398.694	20.9
399.058	21.04
399.422	21.11
399.786	21.05
400.15	20.79
400.514	20.96
400.878	21.23
401.242	21.74
401.605	21.22
401.969	21.07
402.333	21.54
402.697	21.68
403.06	21.46
403.424	21.54
403.787	21.69
404.151	21.67
404.514	21.92
404.878	22.04
405.241	21.64
405.604	21.76
405.968	22.1
406.331	22.02
406.694	21.85
407.057	21.94
407.42	22.31
407.783	22.23
408.146	22.08
408.509	22.03
408.872	22.35
409.235	22.06
409.598	22.71
409.961	22.6
410.323	22.73
410.686	22.65
411.049	22.69
411.411	22.59
411.774	22.62
412.136	22.81
412.499	22.71
412.861	23.04
413.223	23.18
413.586	23.01
413.948	23.2
414.31	23.37
414.672	23.33
415.035	23.3
415.397	23.36
415.759	23.72
416.121	23.73
416.483	23.56
416.845	23.52
417.206	23.5
417.568	23.86
417.93	23.73
418.292	23.44
418.653	23.68
419.015	23.69
419.377	23.61
419.738	23.74
420.1	23.75
420.461	23.71
420.822	23.59
421.184	23.81
421.545	23.75
421.906	23.97
422.267	23.81
422.629	23.79
422.99	23.53
423.351	23.77
423.712	23.79
424.073	23.87
424.434	23.99
424.795	24.15
425.155	24.26
425.516	24.21
425.877	24.27
426.238	24.21
426.598	24.31
426.959	24.35
427.32	24.4
427.68	24.55
428.041	24.7
428.401	24.64
428.761	24.95
429.122	24.84
429.482	25.01
429.842	25.15
430.202	25.55
430.563	25.62
430.923	25.63
431.283	25.55
431.643	25.65
432.003	25.62
432.363	25.45
432.722	25.64
433.082	25.9
433.442	25.84
433.802	25.89
434.161	25.77
434.521	25.85
434.881	25.9
435.24	26.05
435.6	25.76
435.959	25.97
436.319	26.17
436.678	26.11
437.037	26.17
437.396	26.25
437.756	26.27
438.115	26.43
438.474	26.43
438.833	26.69
439.192	26.55
439.551	26.58
439.91	26.88
440.269	26.74
440.628	26.8
440.987	26.74
441.345	26.61
441.704	26.86
442.063	26.93
442.421	26.69
442.78	27.02
443.138	26.96
443.497	27.03
443.855	27.07
444.214	27.11
444.572	27.1
444.93	27.41
445.288	27.46
445.647	27.66
446.005	27.28
446.363	27.51
446.721	27.54
447.079	27.52
447.437	27.49
447.795	27.38
448.153	27.38
448.51	27.47
448.868	27.51
449.226	27.52
449.584	27.7
449.941	27.69
450.299	27.91
450.656	27.99
451.014	28
451.371	28.26
451.729	28.24
452.086	28.32
452.443	28.48
452.801	28.59
453.158	28.66
453.515	28.6
453.872	28.72
454.229	28.86
454.586	28.74
454.943	28.75
455.3	28.76
455.657	28.73
456.014	28.84
456.371	28.99
456.727	29.17
457.084	29.15
457.441	29.11
457.797	29.38
458.154	29.34
458.51	29.56
458.867	29.21
459.223	29.76
459.58	29.48
459.936	29.72
460.292	29.61
460.648	29.62
461.005	29.72
461.361	29.45
461.717	29.38
462.073	29.28
462.429	29.25
462.785	29.5
463.141	30.03
463.496	29.95
463.852	30.24
464.208	30.12
464.564	30.4
464.919	30.45
465.275	30.45
465.631	30.73
465.986	30.65
466.342	30.55
466.697	30.68
467.052	30.91
467.408	30.61
467.763	30.98
468.118	30.92
468.473	31.08
468.829	30.96
469.184	30.99
469.539	31.23
469.894	31.15
470.249	31.25
470.603	31.05
470.958	31.4
471.313	31.47
471.668	31.38
472.023	31.34
472.377	31.72
472.732	31.36
473.086	31.7
473.441	31.63
473.795	31.68
474.15	31.64
474.504	31.65
474.859	31.88
475.213	31.9
475.567	31.91
475.921	31.98
476.275	32.08
476.63	32.3
476.984	32.22
477.338	32.24
477.692	32.29
478.045	32.31
478.399	32.21
478.753	32.23
479.107	32.19
479.461	32.48
479.814	32.5
480.168	32.56
480.521	32.5
480.875	32.45
481.228	32.88
481.582	32.59
481.935	32.76
482.289	32.64
482.642	32.76
482.995	32.88
483.348	32.74
483.701	32.82
484.055	32.81
484.408	32.61
484.761	32.48
485.114	32.23
485.466	32.13
485.819	31.93
486.172	31.94
486.525	32.08
486.878	32.14
487.23	32.32
487.583	32.41
487.936	32.67
488.288	32.81
488.641	32.84
488.993	32.66
489.345	32.61
489.698	32.53
490.05	32.55
490.402	32.68
490.754	32.75
491.107	33
491.459	33.32
491.811	33.38
492.163	33.61
492.515	33.71
492.866	33.64
493.218	33.46
493.57	33.18
493.922	33.15
494.274	33.25
494.625	33.45
494.977	33.73
495.328	34.05
495.68	34.2
496.031	34.5
496.383	34.67
496.734	34.76
497.086	34.66
497.437	35.02
497.788	34.74
498.139	34.98
498.49	34.74
498.842	34.68
499.193	34.88
499.544	34.94
499.894	34.87
500.245	34.89
500.596	34.96
500.947	35.21
501.298	35.27
501.648	35.27
501.999	35.45
502.35	35.44
502.7	35.8
503.051	35.97
503.401	35.7
503.752	35.75
504.102	35.95
504.452	35.88
504.803	35.94
505.153	36.26
505.503	36.16
505.853	36.23
506.203	36.07
506.553	36.1
506.903	36.14
507.253	36.25
507.603	36.25
507.953	36.44
508.303	36.46
508.652	36.59
509.002	36.42
509.352	36.83
509.701	36.46
510.051	36.47
510.4	36.62
510.75	36.57
511.099	36.58
511.449	36.82
511.798	36.67
512.147	36.74
512.496	36.85
512.846	37.07
513.195	36.99
513.544	36.92
513.893	36.81
514.242	37.04
514.591	37.04
514.939	37.16
515.288	37.17
515.637	37.26
515.986	37.43
516.334	37.7
516.683	37.51
517.032	37.42
517.38	37.7
517.729	37.88
518.077	37.83
518.426	37.79
518.774	38.02
519.122	37.89
519.47	37.68
519.819	37.71
520.167	37.72
520.515	37.57
520.863	37.71
521.211	37.57
521.559	37.62
521.907	37.92
522.255	37.89
522.602	38.19
522.95	38.13
523.298	38.3
523.645	38.41
523.993	38.44
524.341	38.61
524.688	38.57
525.036	38.77
525.383	38.6
525.73	38.88
526.078	38.86
526.425	39
526.772	38.91
527.119	38.87
527.466	38.54
527.814	38.57
528.161	38.52
528.508	38.51
528.854	38.6
529.201	38.95
529.548	38.87
529.895	38.61
530.242	38.32
530.588	38.05
530.935	38.39
531.282	38.5
531.628	38.46
531.975	38.47
532.321	38.58
532.667	38.87
533.014	39.14
533.36	39.37
533.706	39.46
534.052	39.41
534.399	39.63
534.745	39.31
535.091	39.21
535.437	39
535.783	39.16
536.129	39.31
536.474	39.66
536.82	39.74
537.166	39.84
537.512	39.86
537.857	40.13
538.203	40.05
538.549	40.01
538.894	39.94
539.239	40.11
539.585	40.05
539.93	40.26
540.276	40.59
540.621	40.65
540.966	40.77
541.311	41.17
541.656	41.05
542.001	40.94
542.346	40.91
542.691	40.7
543.036	40.63
543.381	40.16
543.726	40.13
544.071	40.35
544.415	40.49
544.76	40.64
545.105	40.83
545.449	40.97
545.794	40.97
546.138	41.14
546.483	41.14
546.827	41.5
547.171	41.72
547.516	41.52
547.86	41.52
548.204	41.78
548.548	41.78
548.892	41.74
549.236	41.78
549.58	41.72
549.924	41.98
550.268	42
550.612	42.15
550.956	42.38
551.3	42.52
551.643	42.55
551.987	42.88
552.33	42.89
552.674	42.48
553.017	43.01
553.361	42.95
553.704	43.06
554.048	42.92
554.391	43.08
554.734	43.12
555.077	42.86
555.42	42.79
555.764	43.14
556.107	43.39
556.45	43.16
556.793	43.37
557.135	43.21
557.478	43.42
557.821	43.36
558.164	43.72
558.507	43.49
558.849	43.68
559.192	43.95
559.534	43.95
559.877	43.71
560.219	43.86
560.562	43.9
560.904	43.85
561.246	44.23
561.589	43.96
561.931	43.92
562.273	44.26
562.615	44.29
562.957	44.31
563.299	44.25
563.641	44.41
563.983	44.34
564.325	44.2
564.667	44.47
565.008	44.23
565.35	44.53
565.692	44.66
566.033	44.71
566.375	44.64
566.716	44.82
567.058	45.05
567.399	44.94
567.741	44.74
568.082	44.93
568.423	44.72
568.764	44.6
569.105	44.94
569.447	44.79
569.788	44.91
570.129	45.13
570.47	45.13
570.811	45.28
571.151	45.06
571.492	45.58
571.833	45.58
572.174	45.55
572.514	45.43
572.855	45.41
573.195	45.49
573.536	45.45
573.876	45.56
574.217	45.28
574.557	45.41
574.898	45.63
575.238	45.77
575.578	45.9
575.918	45.65
576.258	45.86
576.598	46.08
576.938	45.96
577.278	45.93
577.618	46.04
577.958	46.15
578.298	46.18
578.638	46.06
578.977	46.46
579.317	46.11
579.657	46.49
579.996	46.61
580.336	46.86
580.675	46.67
581.014	46.9
581.354	46.95
581.693	46.93
582.032	47.01
582.372	46.79
582.711	47.36
583.05	47.2
583.389	47.01
583.728	47.38
584.067	47.34
584.406	47.54
584.745	47.42
585.083	47.21
585.422	47.23
585.761	47.66
586.1	47.48
586.438	47.6
586.777	47.66
587.115	47.5
587.454	47.7
587.792	47.8
588.13	47.76
588.469	48.06
588.807	47.88
589.145	47.77
589.483	47.99
589.821	48.07
590.159	47.86
590.497	47.88
590.835	48.06
591.173	48.18
591.511	47.88
591.849	48.17
592.187	48.26
592.524	48.35
592.862	48.69
593.2	48.4
593.537	48.22
593.875	48.33
594.212	48.66
594.55	49
594.887	48.74
595.224	48.53
595.561	48.35
595.899	48.77
596.236	48.83
596.573	48.93
596.91	49.03
597.247	48.64
597.584	49.28
597.921	49.28
598.258	48.78
598.594	49.05
598.931	48.68
599.268	48.72
599.604	48.93
599.941	49.01
600.277	48.98
600.614	49.15
600.95	49.27
601.287	49.2
601.623	49.21
601.959	49.5
602.296	49.44
602.632	49.81
602.968	49.65
603.304	49.42
603.64	49.63
603.976	49.64
604.312	49.89
604.648	49.55
604.984	50
605.319	49.83
605.655	50.04
605.991	50.11
606.326	49.68
606.662	49.51
606.998	49.54
607.333	49.6
607.668	49.44
608.004	49.87
608.339	50.3
608.674	50.43
609.01	50.77
609.345	50.2
609.68	50.71
610.015	50.58
610.35	50.44
610.685	50.43
611.02	50.36
611.355	50.53
611.689	50.44
612.024	50.52
612.359	50.67
612.694	50.61
613.028	50.87
613.363	50.9
613.697	50.86
614.032	50.68
614.366	50.94
614.7	51.27
615.035	51.29
615.369	51.58
615.703	51.45
616.037	51.54
616.371	51.37
616.705	51.32
617.039	51.34
617.373	51.32
617.707	52.18
618.041	52.02
618.375	51.63
618.709	51.06
619.042	52.04
619.376	52.09
619.71	52
620.043	51.68
620.377	52
620.71	52.06
621.043	51.72
621.377	52.11
621.71	51.99
622.043	52
622.376	52.39
622.709	51.99
623.043	52.22
623.376	52.33
623.709	52.58
624.041	52.13
624.374	52.71
624.707	52.42
625.04	52.74
625.373	52.43
625.705	52.96
626.038	52.7
626.37	52.23
626.703	53.09
627.035	52.66
627.368	52.94
627.7	52.55
628.032	53.07
628.365	52.88
628.697	52.84
629.029	52.99
629.361	53.01
629.693	52.87
630.025	52.81
630.357	53.19
630.689	52.93
631.021	53.44
631.353	53.27
631.684	53.15
632.016	53.33
632.348	53.25
632.679	53.03
633.011	53.32
633.342	53.14
633.674	53.43
634.005	53.63
634.336	53.57
634.668	53.45
634.999	53.17
635.33	53.33
635.661	54.21
635.992	54.19
636.323	53.65
636.654	53.89
636.985	53.44
637.316	53.67
637.647	53.53
637.977	54.12
638.308	54.07
638.639	53.92
638.969	54.56
639.3	53.72
639.63	54.18
639.961	54.41
640.291	54.4
640.622	54.54
640.952	54.08
641.282	54.39
641.612	54.33
641.943	54.66
642.273	54.81
642.603	54.65
642.933	54.64
643.263	54.66
643.592	54.52
643.922	54.6
644.252	54.42
644.582	54.75
644.911	54.61
645.241	54.62
645.571	54.78
645.9	54.64
646.23	55.49
646.559	55
646.888	55.21
647.218	54.86
647.547	55.14
647.876	55.26
648.205	55.12
648.534	54.42
648.863	55.43
649.192	55.16
649.521	55.32
649.85	55.04
650.179	54.78
650.508	55.38
650.837	55.37
651.165	55.77
651.494	55.53
651.822	55.62
652.151	55.4
652.479	55.26
652.808	55.99
653.136	55.36
653.465	55.4
653.793	55.09
654.121	55.98
654.449	55.58
654.777	55.76
655.105	55.79
655.433	56.01
655.761	55.68
656.089	56.72
656.417	56.2
656.745	56.24
657.073	55.7
657.4	56.05
657.728	56.58
658.056	55.89
658.383	56.06
658.711	55.96
659.038	55.92
659.365	56.08
659.693	56.51
660.02	55.84
660.347	56.41
660.674	55.99
661.001	55.88
661.329	56.63
661.656	56.38
661.982	56.44
662.309	56.32
662.636	56.39
662.963	56.89
663.29	56.43
663.616	56.73
663.943	56.45
664.27	56.67
664.596	55.53
664.923	56.56
665.249	57.31
665.576	56.51
665.902	56.37
666.228	56.55
666.554	56.66
666.881	56.89
667.207	56.56
667.533	56.74
667.859	57.34
668.185	57.36
668.511	57.84
668.837	57.92
669.162	57.03
669.488	57.59
669.814	57.26
670.139	57.17
670.465	57.6
670.791	57.5
671.116	56.77
671.442	57.48
671.767	57.53
672.092	57.24
672.418	57.23
672.743	57.09
673.068	58.31
673.393	57.67
673.718	57.34
674.043	57.39
674.368	57.3
674.693	57.15
675.018	58.13
675.343	57.78
675.667	58.21
675.992	57.87
676.317	57.7
676.641	57.53
676.966	58.76
677.29	58.58
677.615	57.8
677.939	58.62
678.264	57.94
678.588	57.3
678.912	58.54
679.236	58.67
679.56	57.91
679.885	58.45
680.209	58.35
680.532	57.67
680.856	58.09
681.18	58.56
681.504	58.67
681.828	58.3
682.152	58.25
682.475	58.17
682.799	57.68
683.122	58.93
683.446	58.41
683.769	59.03
684.093	58.63
684.416	58.31
684.739	58.05
685.062	58.93
685.386	58.08
685.709	59.21
686.032	58.63
686.355	58.38
686.678	58.57
687.001	58.89
687.324	58.62
687.646	59.14
687.969	59.37
688.292	58.93
688.614	59.36
688.937	59.04
689.26	59.58
689.582	59.19
689.904	59.07
690.227	59.53
690.549	59.41
690.871	59.25
691.194	59.72
691.516	59.34
691.838	59.91
692.16	59.8
692.482	59
692.804	58.74
693.126	58.89
693.448	60.19
693.769	59.13
694.091	59.24
694.413	59.28
694.735	59.38
695.056	59.67
695.378	59.35
695.699	59.89
696.021	60.37
696.342	59.06
696.663	59.99
696.984	59.75
697.306	58.89
697.627	59.39
697.948	59.55
698.269	60.16
698.59	59.07
698.911	60.51
699.232	59.76
699.553	60.32
699.873	59.75
700.194	60.16
700.515	60.19
700.835	60.16
701.156	60.47
701.477	60.3
701.797	60.46
702.117	60.21
702.438	60.78
702.758	60.02
703.078	59.88
703.398	60.02
703.719	60.74
704.039	59.94
704.359	60.3
704.679	60.57
704.999	59.92
705.319	61.31
705.638	59.58
705.958	59.97
706.278	60.18
706.597	60.66
706.917	59.68
707.237	60.1
707.556	60.54
707.876	59.8
708.195	61.54
708.514	60.59
708.834	60.63
709.153	61.11
709.472	59.69
709.791	61.53
710.11	61.09
710.429	60.97
710.748	60.99
711.067	62.25
711.386	60.92
711.705	61.41
712.023	61.14
712.342	61.22
712.661	60.48
712.979	60.68
713.298	61.7
713.616	61.24
713.935	60.91
714.253	61.22
714.572	59.89
714.89	61.89
715.208	61.62
715.526	62
715.844	62.27
716.162	62.06
716.48	61.85
716.798	61.93
717.116	61.25
717.434	61.37
717.752	61.74
718.069	61.95
718.387	61.75
718.705	62.38
719.022	62.65
719.34	61.94
719.657	62.29
719.975	62
720.292	62.85
720.609	63.09
720.927	61.58
721.244	62.08
721.561	61.99
721.878	62.9
722.195	61.79
722.512	61.82
722.829	61.15
723.146	61.57
723.463	62.52
723.779	61.8
724.096	60.31
724.413	60.96
724.729	60.7
725.046	62.94
725.362	62.27
725.679	62.35
725.995	62.44
726.311	63.37
726.628	64.18
726.944	63.08
727.26	62.56
727.576	61.84
727.892	63.35
728.208	63.71
728.524	62.92
728.84	61.82
729.156	63.41
729.472	61.93
729.787	62.03
730.103	62.77
730.419	62.91
730.734	63.07
731.05	63.27
731.365	63.54
731.681	62.06
731.996	62.37
732.311	63.4
732.626	61.82
732.942	62.25
733.257	64.28
733.572	61.65
733.887	62.74
734.202	62.84
734.517	62.03
734.832	62.68
735.146	63.47
735.461	62.68
735.776	63.04
736.091	63.18
736.405	62.82
736.72	64.92
737.034	62.44
737.349	62.74
737.663	62.78
737.977	61.66
738.292	63.2
738.606	62.74
738.92	64.37
739.234	62.3
739.548	65.21
739.862	62.8
740.176	63.12
740.49	63.31
740.804	63.57
741.117	63.84
741.431	63.54
741.745	62.31
742.058	62.91
742.372	63.02
742.685	64.84
742.999	65.55
743.312	62.82
743.626	63.26
743.939	63.61
744.252	63.56
744.565	65.5
744.878	62.37
745.191	62.59
745.505	64.21
745.817	62.06
746.13	66.4
746.443	60.96
746.756	63.06
747.069	62.88
747.381	64.49
747.694	63.85
748.007	63.04
748.319	65.02
748.632	63.03
748.944	64.01
749.256	65.48
749.569	63.66
749.881	64.56
750.193	63.37
750.505	61.25
750.817	64.19
751.129	64.68
751.441	63.86
751.753	64.77
752.065	65.68
752.377	64.4
752.689	64.81
753	64.1
753.312	63.29
753.624	63.86
753.935	64.14
754.247	64.35
754.558	65.03
754.869	66.13
755.181	63.46
755.492	63.69
755.803	65.66
756.114	63.9
756.425	64.2
756.736	64.52
757.047	65.22
757.358	63.95
757.669	64.81
757.98	64.72
758.291	66.87
758.601	64.73
758.912	63.72
759.223	64.9
759.533	64.88
759.844	66.73
760.154	64.88
760.464	64.85
760.775	63.21
761.085	64.64
761.395	64.57
761.705	64.17
762.016	62.91
762.326	67.72
762.636	65.67
762.945	65.07
763.255	65.66
763.565	64.69
763.875	66.17
764.185	64.47
764.494	65.35
764.804	63.56
765.113	66.33
765.423	64.24
765.732	66.35
766.042	66.77
766.351	65.5
766.66	64.66
766.97	65.87
767.279	65.31
767.588	65.52
767.897	65.12
768.206	65.64
768.515	65.91
768.824	63.85
769.133	66.21
769.441	67.3
769.75	63.3
770.059	66.96
770.367	65.41
770.676	66.01
770.984	66.39
771.293	66.89
771.601	65.45
771.91	65.15
772.218	66.73
772.526	63.83
772.834	65.82
773.142	65.39
773.45	67.22
773.758	63.95
774.066	67.09
774.374	65.38
774.682	65.48
774.99	66.87
775.298	61.98
775.605	69.27
775.913	65.76
776.22	65.78
776.528	68.36
776.835	66.27
777.143	65.93
777.45	67.93
777.757	64.68
778.065	64.13
778.372	66.75
778.679	64.9
778.986	64.27
779.293	63.83
779.6	66.71
779.907	66.42
780.214	63.81
780.52	66.6
780.827	66.88
781.134	64.65
781.44	64.31
781.747	66.06
782.053	62.91
782.36	68.5
782.666	63.28
782.973	65.46
783.279	66.65
783.585	65.37
783.891	66.33
784.197	66.82
784.503	71.28
784.809	66.44
785.115	65.11
785.421	63.76
785.727	64.74
786.033	65.21
786.339	64.78
786.644	65.86
786.95	67.72
787.255	70.72
787.561	68.34
787.866	63.25
788.172	67.41
788.477	69.97
788.782	68.11
789.088	69.85
789.393	66.19
789.698	63.52
790.003	64.48
790.308	65.02
790.613	67.72
790.918	64.69
791.223	69.08
791.527	67
791.832	68.41
792.137	68.08
792.441	67.64
792.746	69.3
793.05	63.06
793.355	69.29
793.659	67.65
793.963	67
794.268	62.88
794.572	68
794.876	63.88
795.18	66.4
795.484	66.33
795.788	67
796.092	67.7
796.396	67.76
796.7	71.9
797.004	63.48
797.307	71.06
797.611	64.8
797.915	62.29
798.218	63.23
798.522	68.04
798.825	65.21
799.128	67.41
799.432	67.69
799.735	65.61
800.038	63.07
800.341	67.93
800.644	64.85
800.947	69.41
801.25	65.86
801.553	69.57
801.856	60.43
802.159	67.42
802.462	66.52
802.764	65.23
803.067	67.57
803.37	72.08
803.672	69.53
803.975	65.01
804.277	64.81
804.579	66.56
804.882	68.28
805.184	67.43
805.486	65.3
805.788	67.88
806.09	64.69
806.392	68.94
806.694	75.51
806.996	67.02
807.298	66.66
807.6	70.35
807.902	70.07
808.203	65.42
808.505	69.66
808.807	64.29
809.108	64.38
809.409	61.34
809.711	70.61
810.012	68.61
810.313	65.4
810.615	65.25
810.916	67.07
811.217	73.47
811.518	64.65
811.819	66.17
812.12	79.47
812.421	66.1
812.722	63.43
813.023	66.83
813.323	64.32
813.624	67.76
813.925	63.36
814.225	71.24
814.526	68.03
814.826	65.52
815.126	66.84
815.427	63.23
815.727	74.2
816.027	68.39
816.327	69.92
816.627	73.74
816.927	66.72
817.227	67.09
817.527	65.45
817.827	64.02
818.127	71.11
818.427	69.99
818.727	64.51
819.026	72.53
819.326	74.26
819.625	67.29
819.925	66.95
820.224	70.95
820.524	65.35
820.823	62.52
821.122	68.24
821.421	63.92
821.72	73.5
822.019	66.66
822.318	68.02
822.617	72.37
822.916	67.54
823.215	72.65
823.514	72.11
823.813	71.38
824.111	68.57
824.41	67.68
824.709	70.7
825.007	69.91
825.306	70.17
825.604	70.24
825.902	69.58
826.201	68.35
826.499	68.66
826.797	68.19
827.095	69.32
827.393	67.11
827.691	67.84
827.989	66.95
828.287	69.03
828.585	67.12
828.882	65.3
829.18	68.7
829.478	68.23
829.775	70.06
830.073	69.92
830.37	69.23
830.668	69.32
830.965	69.89
831.263	70.02
831.56	69.73
831.857	68.12
832.154	69.94
832.451	66.96
832.748	68.17
833.045	68.28
833.342	67.42
833.639	73.26
833.936	68.75
834.232	70.71
834.529	66.14
834.826	66.37
835.122	64.17
835.419	67.25
835.715	72.07
836.012	68.26
836.308	69.15
836.604	72.05
836.901	69.32
837.197	71.9
837.493	72.21
837.789	67.57
838.085	66.52
838.381	68.99
838.677	70.37
838.972	71.09
839.268	65.49
839.564	69.33
839.86	71.54
840.155	60.83
840.451	70.44
840.746	69.87
841.042	74.69
841.337	72.73
841.632	64.08
841.928	66.95
842.223	59.75
842.518	64.91
842.813	65.09
843.108	71.62
843.403	69.37
843.698	71.77
843.993	71.97
844.287	72.44
844.582	65.15
844.877	61.37
845.171	73.71
845.466	56.55
845.761	68.89
846.055	69.65
846.349	67.15
846.644	70.36
846.938	66.62
847.232	65.29
847.526	66.09
847.82	49.08
848.114	55.08
848.408	72.94
848.702	66.68
848.996	75.6
849.29	45.25
849.584	68.71
849.877	70.91
850.171	72.83
850.465	85.01
850.758	63.68
851.052	81.91
851.345	66.02
851.638	70.06
851.932	69.76
852.225	82.56
852.518	87.48
852.811	56.23
853.104	57.4
853.397	69.78
853.69	76.18
853.983	65.11
854.276	84.23
854.569	70.39
854.861	67.55
855.154	78.15
855.447	86.35
855.739	77.57
856.032	66.84
856.324	86.1
856.616	93.14
856.909	96.54
857.201	64.33
857.493	53.59
857.785	54.44
858.077	76.98
858.369	55.64
858.661	44.77
858.953	50.92
859.245	65.99
859.537	46.5
859.829	88.54
860.12	73.81
860.412	57.5
860.703	66.9
860.995	55.18
861.286	37.06
861.578	93.01
861.869	31.11
862.16	67.4
862.452	54.17
862.743	60.47
863.034	75
863.325	76.17
863.616	67.87
863.907	82.45
864.198	47.51
864.488	44.91
864.779	72.57
865.07	75.44
865.36	59.37
865.651	58.32
865.941	57.8
866.232	50.7
866.522	78.06
866.813	68.12
867.103	43.53
867.393	73.27
867.683	48.93
867.973	89.06
868.263	74.36
868.553	55.78
868.843	49.44
869.133	61.5
869.423	52.66
869.713	40.92
870.002	74.14
870.292	68.06
870.582	57.45
870.871	43.17
871.161	50.1
871.45	65.09
871.739	55.88
872.029	51.25
872.318	62.77
872.607	55.4
872.896	51.97
873.185	69.54
873.474	83.53
873.763	70.33
874.052	86.39
874.341	77.83
874.63	63.55
874.918	58.1
875.207	57.28
875.496	64.36
875.784	126.06
876.073	94.14
876.361	72.13
876.649	56.19
876.938	86.59
877.226	79.63
877.514	59.13
877.802	72.97
878.09	79.34
878.378	95.86
878.666	77.41
878.954	53.71
879.242	64.22
879.53	69.5
879.817	50.27
880.105	41.76
880.392	76.76
880.68	50.86
880.967	51.86
881.255	61.9
881.542	82
881.83	32.58
882.117	73.08
882.404	79.57
882.691	68.54
882.978	57.61
883.265	77.63
883.552	83.96
883.839	77.07
884.126	53.81
884.413	68.54
884.699	63.99
884.986	64.56
885.273	72.13
885.559	72.13
885.846	72.13
