Data from 0369_crown_Reflection__0__284.txt Node

Date: Fri Oct 20 23:00:11 CDT 2023
User: ToomeyLab
Spectrometer: FLMS14357
Trigger mode: 0
Integration Time (sec): 1.000000E-2
Scans to average: 100
Electric dark correction enabled: true
Nonlinearity correction enabled: false
Boxcar width: 0
XAxis mode: Wavelengths
Number of Pixels in Spectrum: 2048
>>>>>Begin Spectral Data<<<<<
189.047	414.29
189.435	414.29
189.823	414.29
190.211	64.84
190.599	90.37
190.987	72.84
191.375	-80.65
191.763	225.78
192.151	-14.8
192.538	3.84
192.926	-19.61
193.314	38.17
193.702	-80.6
194.089	220.58
194.477	21.34
194.864	68.99
195.252	-49.42
195.639	-549.08
196.027	-490.98
196.414	12.62
196.801	53.8
197.189	-272.21
197.576	40.65
197.963	373.63
198.351	67.69
198.738	-12.49
199.125	-1.63
199.512	22.27
199.899	2.45
200.286	11.41
200.673	39.29
201.06	31.72
201.447	8.3
201.833	38.99
202.22	23.19
202.607	24.55
202.994	11.15
203.38	21.25
203.767	57.92
204.154	28.24
204.54	32.54
204.927	38.96
205.313	-5.55
205.699	48.41
206.086	24.14
206.472	45.78
206.858	52.32
207.245	23.98
207.631	12.22
208.017	36.34
208.403	17.85
208.789	32.91
209.175	59.74
209.561	38.01
209.947	-10.85
210.333	35.19
210.719	15.61
211.105	21.32
211.491	17.8
211.876	-11.32
212.262	16.24
212.648	13.51
213.034	47.22
213.419	35.57
213.805	11.91
214.19	-18.64
214.576	-13.25
214.961	14.78
215.346	17.78
215.732	6.69
216.117	-40.93
216.502	6.71
216.888	-11.06
217.273	-28.53
217.658	-4.57
218.043	20.18
218.428	1.51
218.813	21.51
219.198	4.87
219.583	-26.49
219.968	-19.81
220.353	5.21
220.738	6.02
221.122	-9.89
221.507	3.52
221.892	28.05
222.276	27.97
222.661	13.18
223.046	-5.14
223.43	5.39
223.815	19.85
224.199	21.95
224.583	2.5
224.968	0.82
225.352	8.14
225.736	8.79
226.121	10.03
226.505	1.95
226.889	10.01
227.273	10.67
227.657	5.01
228.041	7.89
228.425	5.12
228.809	5.04
229.193	7.82
229.577	8.53
229.961	3.68
230.344	3.74
230.728	4.23
231.112	5.44
231.495	4.7
231.879	5.04
232.263	3.7
232.646	4.2
233.03	4.72
233.413	5.03
233.797	4.73
234.18	5.29
234.563	4.93
234.946	6.93
235.33	6.06
235.713	5.99
236.096	5.24
236.479	4.22
236.862	4.91
237.245	5.42
237.628	3.87
238.011	5.5
238.394	5.26
238.777	5.75
239.16	5.97
239.543	7.12
239.925	6.16
240.308	6.42
240.691	4.76
241.073	5.69
241.456	6.21
241.838	4.77
242.221	5.68
242.603	5.01
242.986	4.72
243.368	5.44
243.75	4.77
244.133	4.36
244.515	4.42
244.897	4.67
245.279	4.71
245.661	4.94
246.043	4.43
246.425	4.2
246.807	4.71
247.189	4.65
247.571	4.42
247.953	4.47
248.335	4.93
248.717	4.21
249.098	4.22
249.48	4.28
249.862	4.63
250.243	4.88
250.625	4.67
251.006	4.8
251.388	4.85
251.769	5.24
252.151	3.74
252.532	4.1
252.913	5.07
253.295	3.9
253.676	4.95
254.057	4.04
254.438	4.2
254.819	4.15
255.2	5.19
255.581	3.97
255.962	5.01
256.343	4.83
256.724	3.73
257.105	4.85
257.486	4.2
257.867	4.94
258.247	4.62
258.628	3.3
259.009	3.6
259.389	4.12
259.77	3.93
260.15	4.34
260.531	4.16
260.911	4.18
261.292	4.05
261.672	4.08
262.052	4.25
262.432	4.01
262.813	4.18
263.193	4.27
263.573	4.5
263.953	4.02
264.333	4
264.713	4.45
265.093	4.82
265.473	4.63
265.853	3.89
266.233	4.01
266.612	4.04
266.992	4.99
267.372	3.85
267.752	3.71
268.131	4.48
268.511	4.26
268.89	4.49
269.27	3.85
269.649	3.79
270.029	4.21
270.408	4.28
270.787	4.04
271.167	3.66
271.546	4.06
271.925	4.89
272.304	4.3
272.683	4.6
273.062	4.11
273.441	4.31
273.82	3.98
274.199	4.33
274.578	3.81
274.957	4.25
275.336	4.35
275.715	4.21
276.093	4.15
276.472	4.67
276.851	4.22
277.229	4.44
277.608	3.85
277.986	3.66
278.365	4.64
278.743	4.33
279.122	3.75
279.5	3.93
279.878	3.42
280.257	3.8
280.635	4.08
281.013	4.43
281.391	4.54
281.769	4.2
282.147	3.8
282.525	3.95
282.903	3.74
283.281	4.19
283.659	3.67
284.037	4.2
284.415	3.38
284.792	3.42
285.17	3.45
285.548	3.5
285.925	3.76
286.303	3.81
286.68	4.04
287.058	4.19
287.435	3.99
287.813	3.37
288.19	4.04
288.567	3.84
288.945	4.25
289.322	4.17
289.699	3.59
290.076	4.14
290.453	3.63
290.83	3.81
291.207	3.94
291.584	3.75
291.961	3.69
292.338	3.47
292.715	3.48
293.092	3.65
293.469	4.14
293.845	3.7
294.222	3.45
294.599	3.46
294.975	4.22
295.352	3.82
295.728	4.19
296.105	3.74
296.481	3.66
296.858	3.49
297.234	4.04
297.61	3.44
297.986	3.47
298.363	3.8
298.739	3.63
299.115	3.34
299.491	3.42
299.867	3.66
300.243	3.53
300.619	3.73
300.995	3.14
301.371	3.72
301.746	3.9
302.122	3.7
302.498	3.62
302.874	3.61
303.249	3.29
303.625	3.46
304	3.82
304.376	3.58
304.751	3.36
305.127	3.45
305.502	3.75
305.878	3.4
306.253	3.75
306.628	3.53
307.003	3.97
307.378	3.86
307.754	3.53
308.129	3.94
308.504	4.04
308.879	4.01
309.254	3.79
309.629	3.28
310.003	2.51
310.378	3.58
310.753	3.75
311.128	3.46
311.502	3.61
311.877	3.33
312.252	3.31
312.626	3.8
313.001	3.73
313.375	3.67
313.75	3.39
314.124	3.11
314.498	3.91
314.873	3.53
315.247	3.44
315.621	3.61
315.995	3.93
316.369	2.88
316.743	3.66
317.117	3.47
317.491	2.61
317.865	3.61
318.239	3.79
318.613	3.98
318.987	3.26
319.361	2.6
319.734	3.45
320.108	3.11
320.482	3.62
320.855	3.81
321.229	3.83
321.602	3.1
321.976	3.39
322.349	3.91
322.723	3.3
323.096	3.96
323.469	3.66
323.843	3.65
324.216	3.71
324.589	3.58
324.962	3.73
325.335	3.32
325.708	3.64
326.081	3.38
326.454	3.69
326.827	3.82
327.2	3.93
327.573	3.57
327.945	3.21
328.318	3.33
328.691	3.35
329.063	3.7
329.436	3.44
329.809	3.37
330.181	3.65
330.553	3.53
330.926	3.54
331.298	3.5
331.671	3
332.043	3.12
332.415	3.47
332.787	3.36
333.159	3.2
333.532	3.58
333.904	3.94
334.276	2.99
334.648	3.43
335.02	3.83
335.391	2.94
335.763	4.26
336.135	3.52
336.507	3.68
336.879	3.38
337.25	3.68
337.622	3.25
337.993	3.9
338.365	3.07
338.736	3.37
339.108	3.98
339.479	3.51
339.851	3.48
340.222	3.03
340.593	2.75
340.964	3.55
341.336	3.92
341.707	3.3
342.078	3.35
342.449	3.45
342.82	3.45
343.191	3.43
343.562	3.46
343.933	3.46
344.303	3.1
344.674	3.57
345.045	4.05
345.416	3.52
345.786	3.25
346.157	3.72
346.527	3.46
346.898	3.19
347.268	3.47
347.639	3.62
348.009	3.39
348.38	3.64
348.75	3.47
349.12	3.58
349.49	3.81
349.861	3.87
350.231	3.16
350.601	3.02
350.971	3.58
351.341	3.56
351.711	4.17
352.081	3.25
352.45	3.56
352.82	3.58
353.19	3.86
353.56	4.04
353.929	3.49
354.299	3.41
354.669	3.3
355.038	3.68
355.408	3.76
355.777	3.63
356.147	3.32
356.516	3.72
356.885	3.35
357.254	3.81
357.624	3.86
357.993	3.3
358.362	3.56
358.731	3.18
359.1	3.4
359.469	3.25
359.838	3.53
360.207	3.53
360.576	3.66
360.945	3.36
361.314	3.37
361.682	3.52
362.051	3.17
362.42	3.4
362.788	3.64
363.157	3.71
363.525	3.14
363.894	3.44
364.262	3.4
364.631	3.65
364.999	3.66
365.367	3.67
365.735	3.47
366.104	3.4
366.472	3.59
366.84	3.71
367.208	3.81
367.576	3.56
367.944	3.78
368.312	3.52
368.68	3.65
369.048	3.77
369.416	3.67
369.783	3.81
370.151	3.73
370.519	3.9
370.886	3.73
371.254	3.8
371.621	3.87
371.989	3.6
372.356	3.86
372.724	4.09
373.091	3.7
373.458	3.8
373.826	3.64
374.193	3.55
374.56	3.79
374.927	3.65
375.294	3.69
375.661	3.97
376.028	4.05
376.395	3.97
376.762	3.7
377.129	3.86
377.496	3.93
377.863	3.82
378.229	3.77
378.596	3.62
378.963	3.94
379.329	3.88
379.696	3.78
380.062	4.04
380.429	3.45
380.795	3.51
381.161	3.61
381.528	3.77
381.894	3.89
382.26	3.74
382.626	4.01
382.993	3.72
383.359	3.62
383.725	3.62
384.091	3.85
384.457	4
384.823	3.61
385.188	4.21
385.554	4.05
385.92	3.92
386.286	3.88
386.651	3.73
387.017	4.19
387.383	3.78
387.748	3.57
388.114	3.62
388.479	3.89
388.845	3.87
389.21	3.74
389.575	3.58
389.94	3.73
390.306	3.84
390.671	3.81
391.036	4.02
391.401	3.97
391.766	4
392.131	3.87
392.496	3.75
392.861	4
393.226	4.13
393.591	4.05
393.956	3.92
394.32	4.15
394.685	3.93
395.05	4.11
395.414	4.25
395.779	3.61
396.143	3.87
396.508	4.06
396.872	3.96
397.236	4.11
397.601	4.19
397.965	3.72
398.329	3.62
398.694	4.1
399.058	3.86
399.422	3.86
399.786	3.94
400.15	3.96
400.514	3.87
400.878	4.11
401.242	4.13
401.605	4.3
401.969	3.82
402.333	3.88
402.697	4.17
403.06	3.78
403.424	3.98
403.787	3.93
404.151	4.02
404.514	3.94
404.878	4.04
405.241	3.96
405.604	4.17
405.968	4.13
406.331	4.07
406.694	3.96
407.057	4.01
407.42	4.17
407.783	3.98
408.146	3.92
408.509	3.93
408.872	4.1
409.235	4.32
409.598	4.16
409.961	4.28
410.323	3.96
410.686	4.12
411.049	4.01
411.411	4.04
411.774	4.12
412.136	4.09
412.499	4.17
412.861	4.14
413.223	4.19
413.586	4.01
413.948	4.18
414.31	4.3
414.672	4.02
415.035	4.03
415.397	4.15
415.759	4.1
416.121	4.11
416.483	4.35
416.845	4.19
417.206	4.29
417.568	4.16
417.93	4.27
418.292	3.94
418.653	4.22
419.015	4.11
419.377	3.99
419.738	4.04
420.1	3.99
420.461	3.89
420.822	4.11
421.184	4.03
421.545	3.96
421.906	3.95
422.267	3.88
422.629	4.15
422.99	3.97
423.351	4.08
423.712	3.98
424.073	4.09
424.434	3.93
424.795	4.06
425.155	4.17
425.516	4.06
425.877	4
426.238	3.95
426.598	4.04
426.959	3.97
427.32	3.99
427.68	4.13
428.041	4.06
428.401	4.1
428.761	4.07
429.122	4.1
429.482	3.99
429.842	4.14
430.202	4.13
430.563	4.04
430.923	4.25
431.283	4.24
431.643	4.25
432.003	4.39
432.363	3.98
432.722	4.23
433.082	4.36
433.442	4.26
433.802	4.42
434.161	4.06
434.521	4.36
434.881	4.24
435.24	4.24
435.6	4.03
435.959	4.14
436.319	4.11
436.678	4.23
437.037	4.13
437.396	4.3
437.756	4.23
438.115	4.2
438.474	4.15
438.833	4.33
439.192	4.02
439.551	4.09
439.91	4.38
440.269	4.35
440.628	4.2
440.987	4.33
441.345	4.16
441.704	4.26
442.063	4.22
442.421	4.16
442.78	4.18
443.138	4.26
443.497	4.2
443.855	4.27
444.214	4.09
444.572	4.14
444.93	4.39
445.288	4.31
445.647	4.4
446.005	4.17
446.363	4.11
446.721	4.18
447.079	4.38
447.437	4.16
447.795	4.17
448.153	4.12
448.51	4.1
448.868	4.13
449.226	4.18
449.584	4.26
449.941	4.04
450.299	4.26
450.656	4.25
451.014	4.27
451.371	4.26
451.729	4.19
452.086	4.15
452.443	4.52
452.801	4.19
453.158	4.22
453.515	4.23
453.872	4.22
454.229	4.45
454.586	4.33
454.943	4.26
455.3	4.26
455.657	4.31
456.014	4.15
456.371	4.17
456.727	4.36
457.084	4.39
457.441	4.21
457.797	4.28
458.154	4.23
458.51	4.35
458.867	4.23
459.223	4.31
459.58	4.23
459.936	4.43
460.292	4.24
460.648	4.23
461.005	4.13
461.361	4.23
461.717	4.05
462.073	4.26
462.429	4.19
462.785	4.28
463.141	4.3
463.496	4.32
463.852	4.25
464.208	4.45
464.564	4.52
464.919	4.33
465.275	4.63
465.631	4.26
465.986	4.24
466.342	4.39
466.697	4.45
467.052	4.45
467.408	4.34
467.763	4.45
468.118	4.52
468.473	4.58
468.829	4.44
469.184	4.51
469.539	4.38
469.894	4.49
470.249	4.34
470.603	4.35
470.958	4.54
471.313	4.52
471.668	4.38
472.023	4.5
472.377	4.44
472.732	4.38
473.086	4.62
473.441	4.67
473.795	4.47
474.15	4.39
474.504	4.38
474.859	4.43
475.213	4.64
475.567	4.44
475.921	4.39
476.275	4.49
476.63	4.51
476.984	4.51
477.338	4.31
477.692	4.35
478.045	4.36
478.399	4.43
478.753	4.36
479.107	4.43
479.461	4.55
479.814	4.55
480.168	4.46
480.521	4.43
480.875	4.42
481.228	4.63
481.582	4.39
481.935	4.45
482.289	4.42
482.642	4.39
482.995	4.4
483.348	4.42
483.701	4.34
484.055	4.32
484.408	4.28
484.761	4.27
485.114	4.18
485.466	4.15
485.819	4.03
486.172	3.99
486.525	4.03
486.878	4.13
487.23	4.17
487.583	4.21
487.936	4.24
488.288	4.25
488.641	4.25
488.993	4.22
489.345	4.18
489.698	4.18
490.05	4.14
490.402	4.14
490.754	4.16
491.107	4.2
491.459	4.31
491.811	4.33
492.163	4.36
492.515	4.36
492.866	4.35
493.218	4.25
493.57	4.15
493.922	4.19
494.274	4.22
494.625	4.24
494.977	4.29
495.328	4.38
495.68	4.48
496.031	4.35
496.383	4.58
496.734	4.47
497.086	4.45
497.437	4.53
497.788	4.46
498.139	4.55
498.49	4.31
498.842	4.29
499.193	4.47
499.544	4.4
499.894	4.41
500.245	4.42
500.596	4.52
500.947	4.4
501.298	4.32
501.648	4.41
501.999	4.5
502.35	4.34
502.7	4.7
503.051	4.5
503.401	4.39
503.752	4.59
504.102	4.49
504.452	4.33
504.803	4.38
505.153	4.52
505.503	4.53
505.853	4.55
506.203	4.37
506.553	4.42
506.903	4.49
507.253	4.47
507.603	4.46
507.953	4.59
508.303	4.39
508.652	4.45
509.002	4.27
509.352	4.5
509.701	4.47
510.051	4.43
510.4	4.47
510.75	4.39
511.099	4.4
511.449	4.44
511.798	4.53
512.147	4.39
512.496	4.61
512.846	4.39
513.195	4.52
513.544	4.45
513.893	4.36
514.242	4.41
514.591	4.48
514.939	4.41
515.288	4.37
515.637	4.57
515.986	4.57
516.334	4.43
516.683	4.42
517.032	4.29
517.38	4.46
517.729	4.5
518.077	4.52
518.426	4.43
518.774	4.37
519.122	4.53
519.47	4.43
519.819	4.39
520.167	4.37
520.515	4.31
520.863	4.44
521.211	4.34
521.559	4.48
521.907	4.38
522.255	4.41
522.602	4.58
522.95	4.42
523.298	4.44
523.645	4.52
523.993	4.52
524.341	4.55
524.688	4.5
525.036	4.55
525.383	4.45
525.73	4.63
526.078	4.54
526.425	4.44
526.772	4.38
527.119	4.55
527.466	4.31
527.814	4.39
528.161	4.38
528.508	4.37
528.854	4.38
529.201	4.37
529.548	4.33
529.895	4.36
530.242	4.28
530.588	4.14
530.935	4.19
531.282	4.24
531.628	4.28
531.975	4.23
532.321	4.33
532.667	4.32
533.014	4.37
533.36	4.43
533.706	4.39
534.052	4.46
534.399	4.37
534.745	4.3
535.091	4.33
535.437	4.32
535.783	4.33
536.129	4.33
536.474	4.46
536.82	4.46
537.166	4.41
537.512	4.53
537.857	4.56
538.203	4.41
538.549	4.53
538.894	4.32
539.239	4.3
539.585	4.46
539.93	4.49
540.276	4.5
540.621	4.58
540.966	4.59
541.311	4.6
541.656	4.6
542.001	4.57
542.346	4.54
542.691	4.36
543.036	4.39
543.381	4.21
543.726	4.25
544.071	4.23
544.415	4.32
544.76	4.34
545.105	4.4
545.449	4.37
545.794	4.38
546.138	4.38
546.483	4.5
546.827	4.44
547.171	4.57
547.516	4.54
547.86	4.43
548.204	4.4
548.548	4.47
548.892	4.36
549.236	4.48
549.58	4.53
549.924	4.45
550.268	4.64
550.612	4.6
550.956	4.74
551.3	4.47
551.643	4.54
551.987	4.69
552.33	4.61
552.674	4.47
553.017	4.48
553.361	4.6
553.704	4.8
554.048	4.49
554.391	4.7
554.734	4.63
555.077	4.46
555.42	4.4
555.764	4.54
556.107	4.66
556.45	4.51
556.793	4.56
557.135	4.56
557.478	4.66
557.821	4.8
558.164	4.62
558.507	4.62
558.849	4.66
559.192	4.69
559.534	4.85
559.877	4.43
560.219	4.71
560.562	4.66
560.904	4.56
561.246	4.68
561.589	4.54
561.931	4.58
562.273	4.65
562.615	4.77
562.957	4.85
563.299	4.67
563.641	4.68
563.983	4.55
564.325	4.5
564.667	4.71
565.008	4.55
565.35	4.5
565.692	4.55
566.033	4.6
566.375	4.61
566.716	4.51
567.058	4.53
567.399	4.64
567.741	4.36
568.082	4.6
568.423	4.59
568.764	4.52
569.105	4.64
569.447	4.55
569.788	4.5
570.129	4.46
570.47	4.64
570.811	4.74
571.151	4.58
571.492	4.75
571.833	4.75
572.174	4.76
572.514	4.53
572.855	4.64
573.195	4.51
573.536	4.49
573.876	4.71
574.217	4.54
574.557	4.55
574.898	4.43
575.238	4.36
575.578	4.52
575.918	4.47
576.258	4.63
576.598	4.73
576.938	4.6
577.278	4.58
577.618	4.37
577.958	4.41
578.298	4.71
578.638	4.57
578.977	4.62
579.317	4.58
579.657	4.59
579.996	4.7
580.336	4.78
580.675	4.67
581.014	4.79
581.354	4.73
581.693	4.62
582.032	4.81
582.372	4.71
582.711	4.72
583.05	5.06
583.389	4.67
583.728	4.75
584.067	4.58
584.406	4.59
584.745	4.56
585.083	4.61
585.422	4.76
585.761	4.5
586.1	4.71
586.438	4.47
586.777	4.72
587.115	4.73
587.454	4.61
587.792	4.51
588.13	4.75
588.469	4.62
588.807	4.25
589.145	4.48
589.483	4.45
589.821	4.37
590.159	4.79
590.497	4.69
590.835	4.58
591.173	4.62
591.511	4.64
591.849	4.56
592.187	4.51
592.524	4.5
592.862	4.62
593.2	4.76
593.537	4.25
593.875	4.48
594.212	4.66
594.55	4.62
594.887	4.53
595.224	4.34
595.561	4.49
595.899	4.33
596.236	4.75
596.573	4.7
596.91	4.61
597.247	4.55
597.584	4.55
597.921	4.66
598.258	4.61
598.594	4.79
598.931	4.45
599.268	4.34
599.604	4.58
599.941	4.43
600.277	4.5
600.614	4.69
600.95	4.38
601.287	4.51
601.623	4.74
601.959	4.73
602.296	4.56
602.632	4.52
602.968	4.15
603.304	4.44
603.64	4.55
603.976	4.63
604.312	4.73
604.648	4.53
604.984	4.77
605.319	4.57
605.655	4.55
605.991	4.47
606.326	4.57
606.662	4.23
606.998	4.33
607.333	4.4
607.668	4.42
608.004	4.55
608.339	4.56
608.674	4.52
609.01	4.52
609.345	4.62
609.68	4.78
610.015	4.39
610.35	4.65
610.685	4.76
611.02	4.55
611.355	4.34
611.689	4.41
612.024	4.59
612.359	4.67
612.694	4.6
613.028	4.54
613.363	4.48
613.697	4.61
614.032	4.63
614.366	4.37
614.7	4.6
615.035	4.55
615.369	4.61
615.703	4.19
616.037	4.64
616.371	4.6
616.705	4.7
617.039	4.01
617.373	4.76
617.707	4.92
618.041	4.46
618.375	4.31
618.709	4.59
619.042	4.44
619.376	4.71
619.71	4.77
620.043	4.94
620.377	4.42
620.71	4.81
621.043	4.74
621.377	4.39
621.71	4.55
622.043	4.59
622.376	4.87
622.709	4.58
623.043	4.73
623.376	4.33
623.709	4.36
624.041	4.33
624.374	4.62
624.707	4.33
625.04	4.7
625.373	4.88
625.705	4.2
626.038	4.61
626.37	3.99
626.703	4.37
627.035	4.26
627.368	4.47
627.7	4.6
628.032	4.45
628.365	4.45
628.697	4.68
629.029	4.53
629.361	4.58
629.693	4.39
630.025	4.63
630.357	4.7
630.689	4.59
631.021	4.64
631.353	4.36
631.684	4.45
632.016	4.67
632.348	4.26
632.679	4.3
633.011	4.42
633.342	4.38
633.674	4.24
634.005	4.79
634.336	5.06
634.668	4.4
634.999	4.53
635.33	4.28
635.661	4.82
635.992	4.8
636.323	4.86
636.654	4.63
636.985	4.56
637.316	4.62
637.647	4.33
637.977	4.16
638.308	4.52
638.639	4.4
638.969	4.59
639.3	4.22
639.63	4.45
639.961	4.61
640.291	4.55
640.622	4.34
640.952	4.48
641.282	4.73
641.612	4.76
641.943	4.91
642.273	4.11
642.603	4.72
642.933	4.67
643.263	4.69
643.592	4.56
643.922	4.85
644.252	4.21
644.582	4.22
644.911	4.74
645.241	4.89
645.571	5.01
645.9	4.46
646.23	4.88
646.559	4.41
646.888	5.17
647.218	4.85
647.547	3.84
647.876	4.52
648.205	4.35
648.534	4.18
648.863	4.58
649.192	4.61
649.521	4.77
649.85	4.28
650.179	4.58
650.508	4.34
650.837	4.96
651.165	4.83
651.494	4.08
651.822	5.19
652.151	5.08
652.479	4.3
652.808	4.46
653.136	4.39
653.465	4.37
653.793	4.88
654.121	4.56
654.449	5.05
654.777	4.24
655.105	4.41
655.433	5.05
655.761	5.16
656.089	4.83
656.417	4.63
656.745	4.71
657.073	4.13
657.4	5.59
657.728	4.66
658.056	5.07
658.383	4.78
658.711	4.51
659.038	4.49
659.365	4.73
659.693	4.65
660.02	4.52
660.347	4.25
660.674	4.64
661.001	4.23
661.329	4.42
661.656	4.76
661.982	4.34
662.309	4.63
662.636	4.44
662.963	4.56
663.29	4.67
663.616	4.27
663.943	4.32
664.27	4.47
664.596	4.58
664.923	4.94
665.249	4.75
665.576	4.19
665.902	4.32
666.228	4.72
666.554	4.97
666.881	4.34
667.207	4.84
667.533	4.65
667.859	4.77
668.185	4.79
668.511	4.67
668.837	4.89
669.162	4.9
669.488	4.36
669.814	4.21
670.139	4.62
670.465	4.72
670.791	4.77
671.116	4.35
671.442	4.23
671.767	4.51
672.092	4.77
672.418	4.33
672.743	4.63
673.068	5.03
673.393	4.69
673.718	4.31
674.043	4.99
674.368	4.73
674.693	4.75
675.018	4.79
675.343	4.98
675.667	4.85
675.992	4.69
676.317	4.99
676.641	4.63
676.966	4.99
677.29	4.88
677.615	5.02
677.939	4.45
678.264	4.29
678.588	4.17
678.912	5.11
679.236	4.35
679.56	4.97
679.885	4.85
680.209	4.82
680.532	4.21
680.856	4.61
681.18	4.17
681.504	4.45
681.828	5.31
682.152	4.73
682.475	4.7
682.799	4.85
683.122	4.55
683.446	5.1
683.769	4.69
684.093	4.66
684.416	4.91
684.739	3.95
685.062	4.32
685.386	3.86
685.709	4.19
686.032	5.19
686.355	5.34
686.678	4.79
687.001	5.44
687.324	4.62
687.646	4.49
687.969	5.03
688.292	5.15
688.614	4.2
688.937	4.56
689.26	4.8
689.582	4.9
689.904	4.79
690.227	5.5
690.549	4.59
690.871	5.19
691.194	4.3
691.516	4.44
691.838	5.43
692.16	4.43
692.482	4.25
692.804	5.17
693.126	4.34
693.448	5.47
693.769	4.77
694.091	4.87
694.413	4.31
694.735	4.23
695.056	4.23
695.378	4.94
695.699	5.11
696.021	5.1
696.342	5
696.663	4.62
696.984	4.08
697.306	5.6
697.627	5.4
697.948	4.06
698.269	5.03
698.59	5
698.911	4.84
699.232	4.23
699.553	4.92
699.873	5.22
700.194	5.54
700.515	4.95
700.835	4.62
701.156	5.02
701.477	4.35
701.797	4.27
702.117	4.7
702.438	5.11
702.758	4.6
703.078	5.35
703.398	4.68
703.719	5.52
704.039	5.54
704.359	4.67
704.679	4.58
704.999	4.01
705.319	5
705.638	4.53
705.958	4.66
706.278	4.31
706.597	5.33
706.917	3.86
707.237	5.67
707.556	3.45
707.876	3.52
708.195	5.26
708.514	5.05
708.834	5.54
709.153	5.11
709.472	4.78
709.791	6.9
710.11	4.99
710.429	4.65
710.748	5.85
711.067	4.93
711.386	3.96
711.705	5.48
712.023	5.31
712.342	4.83
712.661	5.43
712.979	4.77
713.298	4.67
713.616	4.09
713.935	4.95
714.253	4.68
714.572	5.31
714.89	5.18
715.208	4.5
715.526	5.51
715.844	5.32
716.162	5.04
716.48	4.89
716.798	4.97
717.116	4.55
717.434	5
717.752	5.54
718.069	4.74
718.387	5.11
718.705	4.09
719.022	5.61
719.34	4.85
719.657	5.04
719.975	4.38
720.292	4.46
720.609	5.14
720.927	4.09
721.244	4.56
721.561	6.56
721.878	5.27
722.195	5.15
722.512	5.92
722.829	5.54
723.146	4.75
723.463	4.39
723.779	5.37
724.096	4.47
724.413	5.6
724.729	5.59
725.046	7.61
725.362	6.56
725.679	6.57
725.995	7.06
726.311	5.93
726.628	4.44
726.944	6.43
727.26	3.32
727.576	4.51
727.892	4.99
728.208	6.23
728.524	4.85
728.84	4.51
729.156	5.97
729.472	5.03
729.787	6
730.103	5.24
730.419	5.33
730.734	4.78
731.05	4.55
731.365	3.81
731.681	5.66
731.996	5.45
732.311	5.03
732.626	5.07
732.942	4.12
733.257	5.63
733.572	5.52
733.887	5.8
734.202	6.36
734.517	5.86
734.832	4.81
735.146	5.62
735.461	4.8
735.776	5.4
736.091	3.23
736.405	4.83
736.72	6.21
737.034	6.36
737.349	4.96
737.663	2.81
737.977	6.14
738.292	3.75
738.606	5.12
738.92	4.73
739.234	5.35
739.548	4.38
739.862	5.34
740.176	6.29
740.49	5.35
740.804	5.98
741.117	6.31
741.431	5.32
741.745	5.32
742.058	5.66
742.372	5.45
742.685	4.38
742.999	5.04
743.312	6.83
743.626	4.52
743.939	5.51
744.252	4.76
744.565	7.14
744.878	5.28
745.191	7.5
745.505	4.21
745.817	6.77
746.13	4.06
746.443	8.15
746.756	5.13
747.069	5.31
747.381	6.5
747.694	4.84
748.007	4.91
748.319	7.53
748.632	4.27
748.944	5.05
749.256	6.72
749.569	5
749.881	5.19
750.193	5
750.505	3.42
750.817	5.44
751.129	4.58
751.441	4.33
751.753	5.74
752.065	7.57
752.377	5.31
752.689	5.25
753	6.26
753.312	4.27
753.624	2.57
753.935	5.87
754.247	4.29
754.558	7.07
754.869	5.83
755.181	4.89
755.492	5.44
755.803	4.14
756.114	3.68
756.425	5.62
756.736	5.84
757.047	5.68
757.358	5.26
757.669	6.23
757.98	4.56
758.291	5.43
758.601	6.02
758.912	6.77
759.223	4.9
759.533	6.81
759.844	6.67
760.154	5.78
760.464	3.85
760.775	6.92
761.085	5.14
761.395	6.42
761.705	5.02
762.016	7.17
762.326	6.14
762.636	6.99
762.945	3.39
763.255	4.58
763.565	5.83
763.875	6.06
764.185	6.46
764.494	6.81
764.804	7.06
765.113	5.5
765.423	3.68
765.732	5.28
766.042	4.76
766.351	5.85
766.66	5.39
766.97	4.94
767.279	5.34
767.588	4.51
767.897	5.65
768.206	5.6
768.515	6.14
768.824	5.81
769.133	3.7
769.441	5.44
769.75	6.09
770.059	6.98
770.367	6.6
770.676	9.45
770.984	5.83
771.293	5.8
771.601	4.16
771.91	4.2
772.218	8.47
772.526	5.83
772.834	4.45
773.142	4.58
773.45	8.05
773.758	4.26
774.066	7.42
774.374	4.28
774.682	5
774.99	1.01
775.298	1.83
775.605	4.82
775.913	4.89
776.22	5.09
776.528	5.51
776.835	6.59
777.143	1.79
777.45	9.3
777.757	4.84
778.065	6.1
778.372	9.49
778.679	5.66
778.986	6.63
779.293	7.92
779.6	6.43
779.907	4.55
780.214	7.72
780.52	5.53
780.827	3.06
781.134	5.17
781.44	9.25
781.747	6.98
782.053	9.25
782.36	6.62
782.666	6.04
782.973	4.88
783.279	2.59
783.585	8.27
783.891	3.82
784.197	6.82
784.503	7.44
784.809	5.74
785.115	5.4
785.421	7.63
785.727	6.82
786.033	8.18
786.339	7.24
786.644	4.66
786.95	10.15
787.255	5.49
787.561	3.87
787.866	6.39
788.172	12.29
788.477	4.89
788.782	8.07
789.088	5.67
789.393	5.95
789.698	4.64
790.003	1.98
790.308	7.59
790.613	2.08
790.918	8.51
791.223	2.68
791.527	6.24
791.832	12.58
792.137	8.66
792.441	4.68
792.746	6.12
793.05	4.91
793.355	8.46
793.659	5.03
793.963	5.93
794.268	4.48
794.572	4.19
794.876	8.43
795.18	1.75
795.484	5.11
795.788	8.87
796.092	5.64
796.396	4.95
796.7	9.66
797.004	4.63
797.307	8.95
797.611	7.99
797.915	4.77
798.218	5.05
798.522	0.9
798.825	9.31
799.128	7.69
799.432	3.79
799.735	2.57
800.038	4.67
800.341	0.47
800.644	7.1
800.947	7.72
801.25	6.31
801.553	7.91
801.856	4.59
802.159	4.95
802.462	4.31
802.764	2.77
803.067	6.29
803.37	6.02
803.672	3.1
803.975	6.86
804.277	-0.65
804.579	2.92
804.882	14.07
805.184	6.84
805.486	11.38
805.788	11.35
806.09	7.69
806.392	5.95
806.694	8.34
806.996	10.87
807.298	4.35
807.6	7.22
807.902	5.64
808.203	9.78
808.505	8.75
808.807	1.46
809.108	0.55
809.409	7.37
809.711	0.68
810.012	7.98
810.313	3.32
810.615	6.26
810.916	10.83
811.217	3.01
811.518	2.79
811.819	3.94
812.12	12.97
812.421	3.36
812.722	7.03
813.023	9.55
813.323	-1.67
813.624	6.12
813.925	4.26
814.225	9.43
814.526	8.82
814.826	3.94
815.126	11.05
815.427	8.33
815.727	10.22
816.027	3.07
816.327	11.02
816.627	16.26
816.927	3.73
817.227	6.34
817.527	2.99
817.827	6.16
818.127	5.86
818.427	9.78
818.727	5.16
819.026	-0.9
819.326	13.81
819.625	-0.53
819.925	8.73
820.224	11.46
820.524	10.29
820.823	6.09
821.122	2.96
821.421	11.68
821.72	14.76
822.019	10.79
822.318	5.13
822.617	-0.24
822.916	8.61
823.215	7.14
823.514	8.42
823.813	7.17
824.111	9.95
824.41	6.36
824.709	8.02
825.007	6.38
825.306	7.17
825.604	6.27
825.902	7.18
826.201	6.57
826.499	6.66
826.797	7.93
827.095	6.58
827.393	6.17
827.691	8.39
827.989	6.04
828.287	9.08
828.585	8.45
828.882	7.43
829.18	5.76
829.478	7.42
829.775	7.71
830.073	7.28
830.37	8.03
830.668	6.71
830.965	6.76
831.263	5.83
831.56	9.69
831.857	5.01
832.154	5.01
832.451	9.43
832.748	5.47
833.045	1.18
833.342	12.76
833.639	12.43
833.936	4.19
834.232	9.99
834.529	8.24
834.826	0.66
835.122	12.04
835.419	12.74
835.715	9.91
836.012	6.81
836.308	2.93
836.604	10.8
836.901	7.06
837.197	8.39
837.493	10.19
837.789	6.05
838.085	6.47
838.381	10.58
838.677	8.35
838.972	7.64
839.268	2.24
839.564	9.8
839.86	5.49
840.155	3.9
840.451	13.24
840.746	8.49
841.042	-3.81
841.337	4.63
841.632	6
841.928	8.58
842.223	13.53
842.518	6.37
842.813	14.34
843.108	5.61
843.403	10.63
843.698	17.11
843.993	6.1
844.287	3.08
844.582	9.69
844.877	10.4
845.171	17.09
845.466	10.03
845.761	4.46
846.055	18.15
846.349	18.9
846.644	20.13
846.938	14.95
847.232	20.41
847.526	10.86
847.82	-5.28
848.114	12.7
848.408	10.94
848.702	-3.54
848.996	22.94
849.29	9.17
849.584	15.64
849.877	22.81
850.171	29.65
850.465	-23.72
850.758	6.26
851.052	-0.23
851.345	10.4
851.638	7.29
851.932	0.98
852.225	21.54
852.518	19.61
852.811	15.9
853.104	39.39
853.397	7.04
853.69	13.25
853.983	-3.69
854.276	12.75
854.569	14.1
854.861	-9.73
855.154	42.58
855.447	7.41
855.739	18.58
856.032	13.01
856.324	6.11
856.616	-22.93
856.909	29.94
857.201	2.62
857.493	-3.31
857.785	19.07
858.077	20.4
858.369	19.44
858.661	8.23
858.953	9.52
859.245	-2.2
859.537	-0.9
859.829	29.11
860.12	12.66
860.412	14.76
860.703	7.81
860.995	19.13
861.286	16.28
861.578	-3.02
861.869	-22.29
862.16	7.15
862.452	19.05
862.743	0.3
863.034	-5.53
863.325	8.88
863.616	2.91
863.907	8.81
864.198	-7.54
864.488	11.79
864.779	19.94
865.07	20.24
865.36	16.65
865.651	9.61
865.941	28.15
866.232	4.33
866.522	10.44
866.813	20.87
867.103	11.2
867.393	15.53
867.683	23.31
867.973	51.12
868.263	34.6
868.553	-1.59
868.843	-10.81
869.133	14.05
869.423	6.05
869.713	16.63
870.002	5.82
870.292	-4.54
870.582	9.4
870.871	7.46
871.161	-0.84
871.45	35.41
871.739	17.43
872.029	9.92
872.318	15.89
872.607	26.96
872.896	11.83
873.185	29.3
873.474	23.73
873.763	6.43
874.052	-3.4
874.341	9.01
874.63	35.52
874.918	3.24
875.207	20.17
875.496	-19.27
875.784	5
876.073	29.03
876.361	12.33
876.649	3.59
876.938	-6.55
877.226	9.07
877.514	11.33
877.802	-17.18
878.09	-6.75
878.378	17.59
878.666	-13.47
878.954	11.02
879.242	26.66
879.53	-13.45
879.817	4.28
880.105	0.02
880.392	21.01
880.68	9.18
880.967	35.41
881.255	26.95
881.542	19.83
881.83	19.98
882.117	32.7
882.404	8.76
882.691	22.96
882.978	10.3
883.265	15.93
883.552	19.71
883.839	-3.84
884.126	11.65
884.413	7.25
884.699	3.69
884.986	17.47
885.273	7.13
885.559	7.13
885.846	7.13
