Data from 0011_crown_Reflection__1__338.txt Node

Date: Thu Dec 15 19:18:14 CST 2022
User: ToomeyLab
Spectrometer: FLMS14357
Trigger mode: 0
Integration Time (sec): 1.000000E-2
Scans to average: 100
Electric dark correction enabled: true
Nonlinearity correction enabled: false
Boxcar width: 0
XAxis mode: Wavelengths
Number of Pixels in Spectrum: 2048
>>>>>Begin Spectral Data<<<<<
189.047	-62.81
189.435	-62.81
189.823	-62.81
190.211	-187.91
190.599	55.3
190.987	94.92
191.375	-61.99
191.763	109.69
192.151	515.76
192.538	170.34
192.926	75.02
193.314	0.32
193.702	26.28
194.089	-118
194.477	245.08
194.864	94.05
195.252	20.51
195.639	387.56
196.027	78.32
196.414	149.16
196.801	-14.25
197.189	78.87
197.576	291.63
197.963	127.86
198.351	-20.08
198.738	-110.41
199.125	-31.57
199.512	38.46
199.899	-89.58
200.286	-38.04
200.673	61.31
201.06	-80.24
201.447	-8.55
201.833	-82.55
202.22	-34.78
202.607	-44.89
202.994	-58.87
203.38	13.7
203.767	-34.75
204.154	-59.04
204.54	6.77
204.927	-11.85
205.313	9.27
205.699	23.52
206.086	18.17
206.472	24.25
206.858	-42.57
207.245	-6.34
207.631	5.78
208.017	24.92
208.403	-137.88
208.789	-32.73
209.175	5.62
209.561	-113.14
209.947	11.67
210.333	-20.14
210.719	-5.49
211.105	23.51
211.491	-9.29
211.876	-0.28
212.262	-0.74
212.648	48.07
213.034	7.91
213.419	-14.91
213.805	-36.46
214.19	-63.16
214.576	-30.63
214.961	0.75
215.346	-48.97
215.732	-13.44
216.117	-21.75
216.502	-13.85
216.888	8.16
217.273	-27.73
217.658	-8.26
218.043	-37.1
218.428	-55.12
218.813	19.9
219.198	-89.18
219.583	-44.29
219.968	2.37
220.353	-14.19
220.738	10.1
221.122	-14.13
221.507	-14.57
221.892	-49.19
222.276	-23.82
222.661	-14.78
223.046	-12.34
223.43	20.87
223.815	4.42
224.199	-0.08
224.583	-7.81
224.968	-6.77
225.352	0.69
225.736	14.49
226.121	-0.37
226.505	-8.57
226.889	-1.67
227.273	-2.55
227.657	3.29
228.041	4.89
228.425	-0.03
228.809	4.72
229.193	4.32
229.577	6.38
229.961	5.55
230.344	7.31
230.728	7.31
231.112	7.01
231.495	5.91
231.879	6.25
232.263	6.94
232.646	5.47
233.03	6.03
233.413	5.47
233.797	3.71
234.18	5.15
234.563	5.38
234.946	3.9
235.33	7.01
235.713	6.37
236.096	6.25
236.479	7.41
236.862	3.62
237.245	4.89
237.628	6.58
238.011	5.42
238.394	3.25
238.777	3.82
239.16	6.39
239.543	7.73
239.925	4.14
240.308	3.34
240.691	4.46
241.073	4.92
241.456	5.34
241.838	5.46
242.221	6.17
242.603	5.81
242.986	6.36
243.368	6.39
243.75	6.58
244.133	7.01
244.515	6.13
244.897	5.7
245.279	5.03
245.661	6.27
246.043	5.61
246.425	7.2
246.807	6.06
247.189	6.27
247.571	5.58
247.953	6.1
248.335	6.11
248.717	6.31
249.098	6.1
249.48	6.03
249.862	6.26
250.243	5.64
250.625	6.1
251.006	6.64
251.388	5.06
251.769	5.12
252.151	6.09
252.532	4.82
252.913	5.77
253.295	5.87
253.676	5.27
254.057	5.6
254.438	6.01
254.819	5.56
255.2	6.5
255.581	5.99
255.962	6.27
256.343	5.94
256.724	5.27
257.105	5.83
257.486	4.46
257.867	5.39
258.247	5.14
258.628	5.61
259.009	5.08
259.389	3.92
259.77	5.06
260.15	6.62
260.531	5.55
260.911	5.65
261.292	5.76
261.672	5.67
262.052	5.82
262.432	5.31
262.813	5.64
263.193	5.7
263.573	4.94
263.953	5
264.333	5.49
264.713	5.5
265.093	5.41
265.473	4.1
265.853	5.46
266.233	5.01
266.612	5.09
266.992	5.25
267.372	5.41
267.752	5.76
268.131	5.31
268.511	5.04
268.89	6.28
269.27	4.78
269.649	5
270.029	5.19
270.408	5.15
270.787	5.52
271.167	5.73
271.546	5.72
271.925	5.93
272.304	5.41
272.683	4.97
273.062	5.2
273.441	5.31
273.82	5.26
274.199	5
274.578	5.39
274.957	5.15
275.336	5.62
275.715	5.23
276.093	5.19
276.472	4.99
276.851	5.61
277.229	4.81
277.608	4.5
277.986	5.43
278.365	5.44
278.743	5.24
279.122	4.82
279.5	5.36
279.878	4.61
280.257	5.07
280.635	5.65
281.013	4.7
281.391	4.77
281.769	5.42
282.147	5.04
282.525	5.05
282.903	4.83
283.281	5.45
283.659	5.12
284.037	5.11
284.415	4.97
284.792	5
285.17	4.52
285.548	4.73
285.925	4.8
286.303	5.15
286.68	5.14
287.058	5.07
287.435	5.26
287.813	5.1
288.19	4.78
288.567	5.18
288.945	4.87
289.322	4.51
289.699	5.13
290.076	5.08
290.453	4.63
290.83	4.99
291.207	5.19
291.584	5.07
291.961	4.78
292.338	4.59
292.715	4.49
293.092	5.11
293.469	5.2
293.845	4.77
294.222	5.14
294.599	4.6
294.975	4.33
295.352	5.16
295.728	4.95
296.105	4.7
296.481	5.07
296.858	4.67
297.234	4.58
297.61	4.55
297.986	4.97
298.363	4.85
298.739	5.05
299.115	4.93
299.491	5.08
299.867	4.38
300.243	4.34
300.619	4.25
300.995	4.78
301.371	4.95
301.746	4.83
302.122	4.22
302.498	4.34
302.874	4.63
303.249	4.55
303.625	4.56
304	4.75
304.376	4.89
304.751	5.14
305.127	4.32
305.502	4.89
305.878	5.04
306.253	4.18
306.628	4.73
307.003	4.81
307.378	4.68
307.754	4.62
308.129	4.36
308.504	4.69
308.879	4.85
309.254	4.81
309.629	4.76
310.003	4.6
310.378	4.63
310.753	5
311.128	4.42
311.502	4.68
311.877	4.82
312.252	4.22
312.626	5.01
313.001	4.9
313.375	4.83
313.75	4.79
314.124	4.69
314.498	4.98
314.873	3.72
315.247	4.66
315.621	4.69
315.995	3.85
316.369	4.42
316.743	4.33
317.117	4.25
317.491	4.82
317.865	4.2
318.239	4.8
318.613	4.47
318.987	3.71
319.361	4.69
319.734	4.61
320.108	4.41
320.482	5.16
320.855	4.56
321.229	4.81
321.602	4.41
321.976	3.72
322.349	4.94
322.723	5.02
323.096	4.44
323.469	4.35
323.843	4.15
324.216	4.67
324.589	4.4
324.962	4.05
325.335	3.91
325.708	4.77
326.081	4.69
326.454	4.57
326.827	4.54
327.2	3.95
327.573	4.43
327.945	4.38
328.318	4.36
328.691	4.54
329.063	4.21
329.436	3.64
329.809	4.54
330.181	5.21
330.553	4.99
330.926	4.67
331.298	3.61
331.671	4.71
332.043	4.35
332.415	4.76
332.787	4.79
333.159	3.9
333.532	4.12
333.904	4.9
334.276	4.4
334.648	4.24
335.02	4.03
335.391	3.9
335.763	4.7
336.135	4.34
336.507	4.19
336.879	4.58
337.25	4.55
337.622	4.86
337.993	4.61
338.365	4.49
338.736	4.44
339.108	4.83
339.479	4.43
339.851	4.43
340.222	4.73
340.593	4.29
340.964	4.16
341.336	4.4
341.707	4.34
342.078	4.42
342.449	4.48
342.82	4.38
343.191	3.98
343.562	4.55
343.933	4.16
344.303	4.4
344.674	4.24
345.045	4.23
345.416	4.94
345.786	4.51
346.157	4.5
346.527	4.49
346.898	4.32
347.268	4.72
347.639	4.47
348.009	4.47
348.38	4.3
348.75	4.83
349.12	4.93
349.49	4.06
349.861	4.42
350.231	4.57
350.601	4.36
350.971	4.22
351.341	4.42
351.711	4.29
352.081	3.98
352.45	4.23
352.82	4.12
353.19	4.3
353.56	4.21
353.929	4.65
354.299	4.68
354.669	4.54
355.038	4.24
355.408	4.25
355.777	4.73
356.147	4.55
356.516	4.8
356.885	4.51
357.254	4.33
357.624	4.03
357.993	4.66
358.362	4.4
358.731	4.48
359.1	4.89
359.469	4.75
359.838	4.63
360.207	4.38
360.576	4.71
360.945	4.82
361.314	4.64
361.682	4.39
362.051	4.65
362.42	4.72
362.788	4.8
363.157	4.53
363.525	4.77
363.894	4.44
364.262	4.64
364.631	4.82
364.999	4.61
365.367	4.4
365.735	4.39
366.104	4.32
366.472	4.65
366.84	4.6
367.208	4.82
367.576	4.71
367.944	4.88
368.312	4.72
368.68	4.77
369.048	4.58
369.416	4.49
369.783	4.45
370.151	5.06
370.519	4.79
370.886	4.9
371.254	4.72
371.621	5.16
371.989	4.76
372.356	4.58
372.724	4.76
373.091	4.68
373.458	4.69
373.826	4.93
374.193	4.68
374.56	4.76
374.927	4.58
375.294	5.01
375.661	5.09
376.028	4.5
376.395	4.97
376.762	4.53
377.129	4.63
377.496	4.91
377.863	4.93
378.229	5.1
378.596	5.05
378.963	4.97
379.329	4.88
379.696	4.79
380.062	4.87
380.429	4.69
380.795	5.11
381.161	4.7
381.528	4.48
381.894	4.82
382.26	4.96
382.626	4.99
382.993	5.39
383.359	4.87
383.725	4.77
384.091	4.9
384.457	4.82
384.823	4.98
385.188	4.74
385.554	5.1
385.92	5
386.286	5.1
386.651	4.75
387.017	5.28
387.383	5.12
387.748	5.01
388.114	5.1
388.479	4.97
388.845	4.95
389.21	5.37
389.575	4.84
389.94	5.03
390.306	5.1
390.671	5.17
391.036	4.85
391.401	5.19
391.766	5.15
392.131	5.24
392.496	5
392.861	4.96
393.226	5.05
393.591	5.02
393.956	5.13
394.32	5.38
394.685	5.31
395.05	4.89
395.414	4.89
395.779	5.28
396.143	5.15
396.508	5.11
396.872	5.31
397.236	5.43
397.601	5.03
397.965	5.27
398.329	5.21
398.694	4.9
399.058	4.97
399.422	4.91
399.786	5.08
400.15	5.13
400.514	5.31
400.878	5.01
401.242	5.35
401.605	5.2
401.969	5.16
402.333	5.04
402.697	5.45
403.06	5.47
403.424	5.07
403.787	5.1
404.151	5.23
404.514	5.4
404.878	5.11
405.241	5.21
405.604	5.19
405.968	4.95
406.331	5.39
406.694	5.3
407.057	5.02
407.42	5.24
407.783	5.37
408.146	5.31
408.509	5.25
408.872	5.33
409.235	5.2
409.598	5.13
409.961	5.29
410.323	5.08
410.686	5.05
411.049	5.21
411.411	5.11
411.774	5.17
412.136	5.31
412.499	5.55
412.861	4.77
413.223	5.22
413.586	5.42
413.948	5.33
414.31	5.29
414.672	5.2
415.035	5.45
415.397	5.25
415.759	4.98
416.121	5.21
416.483	5.09
416.845	5.45
417.206	5.23
417.568	5.31
417.93	5.28
418.292	5.11
418.653	5.16
419.015	5.24
419.377	5.09
419.738	5.32
420.1	5.31
420.461	5.18
420.822	5.24
421.184	5.22
421.545	5.39
421.906	5.21
422.267	5.22
422.629	5.17
422.99	5.16
423.351	5.15
423.712	5.25
424.073	5.26
424.434	5.32
424.795	5.19
425.155	5.23
425.516	5.19
425.877	5.2
426.238	5.29
426.598	5.28
426.959	5.3
427.32	5.18
427.68	5.39
428.041	5.39
428.401	5.17
428.761	5.47
429.122	5.5
429.482	5.24
429.842	5.3
430.202	5.5
430.563	5.33
430.923	5.32
431.283	5.49
431.643	5.57
432.003	5.34
432.363	5.62
432.722	5.38
433.082	5.35
433.442	5.52
433.802	5.51
434.161	5.49
434.521	5.44
434.881	5.38
435.24	5.28
435.6	5.53
435.959	5.42
436.319	5.51
436.678	5.52
437.037	5.38
437.396	5.35
437.756	5.38
438.115	5.34
438.474	5.63
438.833	5.43
439.192	5.39
439.551	5.38
439.91	5.49
440.269	5.46
440.628	5.47
440.987	5.42
441.345	5.61
441.704	5.43
442.063	5.44
442.421	5.41
442.78	5.47
443.138	5.44
443.497	5.39
443.855	5.57
444.214	5.37
444.572	5.63
444.93	5.51
445.288	5.54
445.647	5.46
446.005	5.6
446.363	5.5
446.721	5.5
447.079	5.4
447.437	5.47
447.795	5.42
448.153	5.46
448.51	5.42
448.868	5.41
449.226	5.56
449.584	5.49
449.941	5.48
450.299	5.48
450.656	5.53
451.014	5.61
451.371	5.72
451.729	5.48
452.086	5.68
452.443	5.68
452.801	5.56
453.158	5.7
453.515	5.61
453.872	5.6
454.229	5.51
454.586	5.44
454.943	5.65
455.3	5.63
455.657	5.67
456.014	5.6
456.371	5.72
456.727	5.79
457.084	5.78
457.441	5.72
457.797	5.55
458.154	5.77
458.51	5.6
458.867	5.6
459.223	5.54
459.58	5.74
459.936	5.67
460.292	5.68
460.648	5.5
461.005	5.54
461.361	5.57
461.717	5.54
462.073	5.62
462.429	5.72
462.785	5.71
463.141	5.82
463.496	5.65
463.852	5.68
464.208	5.81
464.564	5.6
464.919	5.49
465.275	5.82
465.631	5.94
465.986	5.76
466.342	5.59
466.697	5.79
467.052	5.85
467.408	5.94
467.763	5.72
468.118	5.67
468.473	5.79
468.829	5.76
469.184	5.73
469.539	5.59
469.894	5.56
470.249	5.85
470.603	5.93
470.958	5.77
471.313	6.01
471.668	5.7
472.023	5.83
472.377	5.76
472.732	5.99
473.086	5.88
473.441	5.69
473.795	5.99
474.15	5.89
474.504	5.7
474.859	5.6
475.213	5.98
475.567	5.72
475.921	5.8
476.275	5.91
476.63	5.97
476.984	5.7
477.338	5.87
477.692	5.76
478.045	5.94
478.399	5.89
478.753	5.75
479.107	5.85
479.461	5.76
479.814	5.84
480.168	5.74
480.521	5.89
480.875	5.9
481.228	5.91
481.582	5.78
481.935	5.97
482.289	5.82
482.642	6.02
482.995	5.87
483.348	5.79
483.701	5.77
484.055	5.79
484.408	5.76
484.761	5.64
485.114	5.56
485.466	5.53
485.819	5.53
486.172	5.56
486.525	5.6
486.878	5.66
487.23	5.7
487.583	5.82
487.936	5.75
488.288	5.7
488.641	5.72
488.993	5.64
489.345	5.64
489.698	5.64
490.05	5.66
490.402	5.68
490.754	5.72
491.107	5.69
491.459	5.94
491.811	5.82
492.163	5.79
492.515	5.7
492.866	5.65
493.218	5.63
493.57	5.74
493.922	5.69
494.274	5.77
494.625	5.97
494.977	5.83
495.328	5.98
495.68	6.03
496.031	5.98
496.383	5.9
496.734	5.93
497.086	5.97
497.437	6.05
497.788	6.09
498.139	5.96
498.49	5.84
498.842	6.01
499.193	5.83
499.544	5.96
499.894	5.89
500.245	6.03
500.596	5.99
500.947	6.01
501.298	6.1
501.648	6.06
501.999	6.04
502.35	5.92
502.7	6.2
503.051	5.98
503.401	5.98
503.752	6
504.102	5.95
504.452	5.87
504.803	5.96
505.153	6.01
505.503	5.97
505.853	6.1
506.203	6.05
506.553	6.01
506.903	6.03
507.253	6
507.603	6.1
507.953	6.03
508.303	6.16
508.652	5.99
509.002	6.06
509.352	6.04
509.701	5.9
510.051	6.16
510.4	6.08
510.75	5.96
511.099	5.93
511.449	6.06
511.798	5.94
512.147	5.98
512.496	6.08
512.846	6
513.195	6.1
513.544	6.08
513.893	5.99
514.242	6.08
514.591	6.03
514.939	6.2
515.288	6.12
515.637	6.12
515.986	6.04
516.334	6.12
516.683	6.16
517.032	6.04
517.38	6.05
517.729	6.07
518.077	6.06
518.426	6.17
518.774	6.08
519.122	6.08
519.47	5.94
519.819	6.07
520.167	6.02
520.515	6.06
520.863	6.03
521.211	6.07
521.559	5.96
521.907	6.13
522.255	6.09
522.602	6.17
522.95	6.22
523.298	6.07
523.645	6.15
523.993	6.22
524.341	6.1
524.688	6.07
525.036	6.26
525.383	6.09
525.73	6.07
526.078	6.3
526.425	6.14
526.772	6.14
527.119	6.11
527.466	6.12
527.814	6.14
528.161	6.14
528.508	6.24
528.854	6.14
529.201	6.08
529.548	6.05
529.895	5.98
530.242	5.91
530.588	5.95
530.935	5.92
531.282	5.95
531.628	5.96
531.975	6.02
532.321	6.06
532.667	6.14
533.014	6.12
533.36	6.15
533.706	6.25
534.052	6.15
534.399	6.08
534.745	6.05
535.091	6.05
535.437	6.01
535.783	6.07
536.129	6.06
536.474	6.18
536.82	6.35
537.166	6.12
537.512	6.13
537.857	6.16
538.203	6.21
538.549	6.21
538.894	6.2
539.239	6.26
539.585	6.35
539.93	6.37
540.276	6.28
540.621	6.31
540.966	6.29
541.311	6.25
541.656	6.27
542.001	6.2
542.346	6.22
542.691	5.98
543.036	6.09
543.381	6.09
543.726	6.19
544.071	6.1
544.415	6.11
544.76	6.24
545.105	6.19
545.449	6.22
545.794	6.27
546.138	6.27
546.483	6.38
546.827	6.25
547.171	6.25
547.516	6.31
547.86	6.33
548.204	6.23
548.548	6.23
548.892	6.36
549.236	6.22
549.58	6.35
549.924	6.42
550.268	6.56
550.612	6.44
550.956	6.5
551.3	6.48
551.643	6.28
551.987	6.57
552.33	6.53
552.674	6.43
553.017	6.56
553.361	6.35
553.704	6.46
554.048	6.51
554.391	6.47
554.734	6.33
555.077	6.38
555.42	6.59
555.764	6.56
556.107	6.46
556.45	6.52
556.793	6.72
557.135	6.64
557.478	6.48
557.821	6.57
558.164	6.46
558.507	6.48
558.849	6.55
559.192	6.64
559.534	6.54
559.877	6.36
560.219	6.45
560.562	6.49
560.904	6.68
561.246	6.43
561.589	6.53
561.931	6.5
562.273	6.45
562.615	6.34
562.957	6.43
563.299	6.52
563.641	6.71
563.983	6.51
564.325	6.49
564.667	6.53
565.008	6.54
565.35	6.54
565.692	6.43
566.033	6.62
566.375	6.64
566.716	6.36
567.058	6.53
567.399	6.48
567.741	6.54
568.082	6.54
568.423	6.56
568.764	6.4
569.105	6.34
569.447	6.41
569.788	6.55
570.129	6.53
570.47	6.64
570.811	6.49
571.151	6.65
571.492	6.74
571.833	6.66
572.174	6.57
572.514	6.68
572.855	6.73
573.195	6.45
573.536	6.63
573.876	6.55
574.217	6.47
574.557	6.63
574.898	6.65
575.238	6.54
575.578	6.61
575.918	6.61
576.258	6.67
576.598	6.57
576.938	6.63
577.278	6.64
577.618	6.57
577.958	6.66
578.298	6.73
578.638	6.53
578.977	6.67
579.317	6.84
579.657	6.54
579.996	6.63
580.336	6.95
580.675	6.62
581.014	6.75
581.354	6.63
581.693	6.51
582.032	6.82
582.372	6.82
582.711	6.65
583.05	6.78
583.389	7.04
583.728	6.69
584.067	6.55
584.406	6.92
584.745	6.69
585.083	6.67
585.422	6.67
585.761	6.7
586.1	7.02
586.438	6.7
586.777	6.83
587.115	6.87
587.454	6.8
587.792	6.73
588.13	6.75
588.469	6.71
588.807	6.96
589.145	6.84
589.483	6.47
589.821	7.04
590.159	6.92
590.497	6.91
590.835	6.79
591.173	6.87
591.511	6.81
591.849	6.88
592.187	6.78
592.524	6.85
592.862	6.62
593.2	6.88
593.537	6.74
593.875	6.9
594.212	6.76
594.55	6.8
594.887	6.88
595.224	7.09
595.561	6.79
595.899	6.84
596.236	6.87
596.573	6.65
596.91	6.7
597.247	6.99
597.584	6.82
597.921	6.84
598.258	7.08
598.594	6.66
598.931	6.59
599.268	6.59
599.604	6.76
599.941	6.73
600.277	6.83
600.614	6.73
600.95	6.74
601.287	6.7
601.623	6.69
601.959	7.28
602.296	7.06
602.632	6.86
602.968	6.92
603.304	6.69
603.64	6.98
603.976	6.67
604.312	6.69
604.648	6.77
604.984	6.78
605.319	6.82
605.655	6.8
605.991	6.75
606.326	6.72
606.662	6.74
606.998	6.86
607.333	6.77
607.668	6.78
608.004	6.74
608.339	6.58
608.674	6.91
609.01	7.11
609.345	6.78
609.68	6.75
610.015	6.85
610.35	7.11
610.685	6.77
611.02	6.83
611.355	7.03
611.689	6.86
612.024	6.79
612.359	6.82
612.694	7.07
613.028	6.74
613.363	6.86
613.697	6.96
614.032	6.8
614.366	6.89
614.7	6.99
615.035	6.88
615.369	6.83
615.703	7.03
616.037	7.01
616.371	6.68
616.705	6.98
617.039	6.78
617.373	7.27
617.707	7.09
618.041	6.78
618.375	6.43
618.709	7.07
619.042	7.07
619.376	7.04
619.71	7
620.043	7.4
620.377	7.22
620.71	6.98
621.043	7.3
621.377	7.06
621.71	7
622.043	7.02
622.376	7.23
622.709	7.25
623.043	6.84
623.376	6.96
623.709	7.25
624.041	7.14
624.374	7.17
624.707	7.1
625.04	6.45
625.373	7.1
625.705	7.15
626.038	7.13
626.37	6.95
626.703	6.86
627.035	6.83
627.368	7.41
627.7	6.97
628.032	7.16
628.365	7.18
628.697	7.44
629.029	7.03
629.361	6.99
629.693	7.33
630.025	7.05
630.357	6.93
630.689	7.18
631.021	7.1
631.353	7.44
631.684	6.9
632.016	6.69
632.348	6.86
632.679	7.31
633.011	6.93
633.342	7.18
633.674	6.48
634.005	6.95
634.336	7.23
634.668	7.49
634.999	6.78
635.33	7.18
635.661	7.38
635.992	6.96
636.323	7.16
636.654	7.11
636.985	7.09
637.316	7.34
637.647	7.14
637.977	7.16
638.308	7.45
638.639	6.88
638.969	6.77
639.3	7.06
639.63	6.86
639.961	7.35
640.291	7.18
640.622	7.25
640.952	7.32
641.282	6.78
641.612	7.16
641.943	6.74
642.273	7.01
642.603	7.24
642.933	7.67
643.263	7.24
643.592	7.66
643.922	8.11
644.252	7.16
644.582	7.42
644.911	7.02
645.241	6.66
645.571	6.67
645.9	7.29
646.23	7.8
646.559	6.82
646.888	7.18
647.218	7.17
647.547	7.08
647.876	7.33
648.205	7.01
648.534	7.12
648.863	7.39
649.192	7.55
649.521	7.49
649.85	7.16
650.179	7.63
650.508	7.23
650.837	7.53
651.165	7.43
651.494	7.2
651.822	7.14
652.151	7.46
652.479	7.47
652.808	7.13
653.136	7.08
653.465	7.35
653.793	6.85
654.121	7.27
654.449	7.37
654.777	6.81
655.105	6.78
655.433	7.86
655.761	7.12
656.089	7.02
656.417	7.55
656.745	7.6
657.073	7.32
657.4	6.99
657.728	6.68
658.056	7.14
658.383	7.43
658.711	7.35
659.038	7.63
659.365	7.08
659.693	7.04
660.02	7.19
660.347	7.44
660.674	7.13
661.001	7.14
661.329	7.05
661.656	6.85
661.982	7.39
662.309	7.28
662.636	7.34
662.963	7.25
663.29	7.2
663.616	7.19
663.943	8.1
664.27	7.1
664.596	6.96
664.923	7.66
665.249	7.11
665.576	7.18
665.902	7.16
666.228	7.42
666.554	8.08
666.881	6.88
667.207	7.24
667.533	7.87
667.859	7.17
668.185	6.93
668.511	7.57
668.837	7.24
669.162	7.42
669.488	7.09
669.814	7.5
670.139	7.13
670.465	7.72
670.791	7.14
671.116	7.34
671.442	6.63
671.767	7.52
672.092	7.28
672.418	7.36
672.743	7.51
673.068	7.55
673.393	7.78
673.718	6.89
674.043	6.72
674.368	7.19
674.693	7.92
675.018	7.54
675.343	7.81
675.667	7.02
675.992	7.74
676.317	6.42
676.641	8.16
676.966	7.31
677.29	7.32
677.615	7.11
677.939	7.84
678.264	7.42
678.588	7.85
678.912	7.4
679.236	7.07
679.56	7.02
679.885	7.3
680.209	8.19
680.532	7.45
680.856	7.93
681.18	8.24
681.504	7.7
681.828	7.37
682.152	7.47
682.475	7.02
682.799	7.28
683.122	7.55
683.446	6.66
683.769	7.61
684.093	7.94
684.416	7.99
684.739	7.27
685.062	7.04
685.386	7.62
685.709	8.21
686.032	7.6
686.355	8.06
686.678	7.98
687.001	7.9
687.324	7.44
687.646	7.43
687.969	7.19
688.292	7
688.614	7.48
688.937	8.07
689.26	8.38
689.582	7.87
689.904	7.8
690.227	7.89
690.549	7.58
690.871	7.65
691.194	7.04
691.516	7.51
691.838	7.99
692.16	7.86
692.482	7.36
692.804	7.78
693.126	7.61
693.448	7.94
693.769	7.51
694.091	7.75
694.413	8.07
694.735	8.11
695.056	8.05
695.378	8.08
695.699	7.44
696.021	8.23
696.342	7.87
696.663	8.17
696.984	7.32
697.306	6.73
697.627	7.81
697.948	7.94
698.269	8.43
698.59	7.41
698.911	6.86
699.232	8.5
699.553	7.81
699.873	8
700.194	8.27
700.515	7.55
700.835	8.02
701.156	8.12
701.477	7.8
701.797	7.34
702.117	7.85
702.438	8.12
702.758	7.93
703.078	8.54
703.398	7.28
703.719	7.59
704.039	8.01
704.359	8.59
704.679	7.52
704.999	7.93
705.319	7.59
705.638	7.17
705.958	8.09
706.278	7.85
706.597	7.8
706.917	8.35
707.237	8.61
707.556	8.68
707.876	8.01
708.195	8.13
708.514	7.72
708.834	7.61
709.153	7.35
709.472	7.36
709.791	7.11
710.11	7.64
710.429	7.35
710.748	7.16
711.067	7.15
711.386	7.51
711.705	8.14
712.023	8.24
712.342	7.96
712.661	7.42
712.979	7.87
713.298	8.21
713.616	8.62
713.935	7.84
714.253	7.44
714.572	8.14
714.89	7.58
715.208	8.27
715.526	8.12
715.844	6.9
716.162	8.42
716.48	7.96
716.798	7.6
717.116	7.68
717.434	8.09
717.752	8.03
718.069	8.07
718.387	7.71
718.705	7.85
719.022	8.31
719.34	7.45
719.657	8.82
719.975	7.84
720.292	7.5
720.609	8.04
720.927	8.24
721.244	7.75
721.561	6.54
721.878	7.76
722.195	9.41
722.512	8.93
722.829	6.98
723.146	7.75
723.463	7.06
723.779	6.11
724.096	7.03
724.413	8.27
724.729	7.88
725.046	8.76
725.362	6.37
725.679	6.76
725.995	6.58
726.311	7.81
726.628	8.41
726.944	8.97
727.26	9.73
727.576	8.41
727.892	7.8
728.208	7.89
728.524	7.33
728.84	7.52
729.156	7.65
729.472	7.03
729.787	8.45
730.103	7.29
730.419	7.32
730.734	8.02
731.05	7.68
731.365	9.22
731.681	8.77
731.996	9.32
732.311	7.44
732.626	7.83
732.942	8.58
733.257	9.33
733.572	9.38
733.887	8.59
734.202	8.05
734.517	7.55
734.832	7.87
735.146	9.32
735.461	8.76
735.776	9.43
736.091	8.11
736.405	8.4
736.72	5.95
737.034	7.21
737.349	7.43
737.663	8.47
737.977	9.78
738.292	6.93
738.606	8.6
738.92	9.73
739.234	7.35
739.548	7.68
739.862	9.23
740.176	7.57
740.49	9.35
740.804	8.16
741.117	7.58
741.431	7.97
741.745	7.23
742.058	7.98
742.372	8.22
742.685	9.84
742.999	7.58
743.312	8.97
743.626	9.23
743.939	7.18
744.252	7.53
744.565	7.75
744.878	6.72
745.191	9.58
745.505	8.34
745.817	9.16
746.13	7.44
746.443	6.69
746.756	8.35
747.069	9.46
747.381	7.53
747.694	8.49
748.007	7.77
748.319	8.01
748.632	8.26
748.944	6.71
749.256	8.02
749.569	7.43
749.881	9.13
750.193	7.41
750.505	9.27
750.817	7.45
751.129	8.9
751.441	7.71
751.753	10.73
752.065	8.27
752.377	11
752.689	7.5
753	8.65
753.312	10.39
753.624	6.48
753.935	6.73
754.247	8.53
754.558	8
754.869	8.45
755.181	8.31
755.492	5.79
755.803	8.83
756.114	6.86
756.425	7.3
756.736	8.46
757.047	7.43
757.358	8.77
757.669	8.81
757.98	8.16
758.291	9.01
758.601	8.52
758.912	6.91
759.223	7.68
759.533	8.31
759.844	8.33
760.154	9.87
760.464	10.01
760.775	8.87
761.085	8.75
761.395	7.66
761.705	8.18
762.016	8.93
762.326	10.05
762.636	10.03
762.945	8.22
763.255	7.1
763.565	8.15
763.875	7.66
764.185	9.01
764.494	7.65
764.804	9.54
765.113	9.12
765.423	8.52
765.732	9.21
766.042	10.29
766.351	9.43
766.66	8.87
766.97	9.83
767.279	10.78
767.588	8.22
767.897	7.27
768.206	8.28
768.515	9.08
768.824	10.43
769.133	5.33
769.441	6.41
769.75	6.6
770.059	9.94
770.367	8.52
770.676	7.22
770.984	6.03
771.293	8.68
771.601	5.81
771.91	6.37
772.218	8.93
772.526	6.85
772.834	5.13
773.142	8.85
773.45	8.65
773.758	10.24
774.066	7.7
774.374	10.84
774.682	8.85
774.99	9.35
775.298	4.86
775.605	8.8
775.913	4.28
776.22	4.95
776.528	9.14
776.835	8.63
777.143	11.92
777.45	5.96
777.757	9.54
778.065	5.88
778.372	6.79
778.679	12.41
778.986	12.19
779.293	6.53
779.6	9.21
779.907	9.71
780.214	7.79
780.52	8.87
780.827	7
781.134	7.74
781.44	11.73
781.747	10.09
782.053	7.67
782.36	10.34
782.666	6.42
782.973	4.2
783.279	10.1
783.585	10.56
783.891	7.91
784.197	6.53
784.503	10.75
784.809	12.35
785.115	10.19
785.421	9.26
785.727	12.82
786.033	10.37
786.339	11.46
786.644	3.74
786.95	10.99
787.255	6.24
787.561	5.75
787.866	4.84
788.172	9.06
788.477	3.79
788.782	4.81
789.088	5.48
789.393	8.15
789.698	6.14
790.003	8.62
790.308	7.11
790.613	5.74
790.918	6.97
791.223	7.78
791.527	10.88
791.832	9.57
792.137	10.72
792.441	9.19
792.746	9.72
793.05	7.46
793.355	9.62
793.659	10.51
793.963	7.52
794.268	9.88
794.572	9.07
794.876	7.54
795.18	12.34
795.484	10.63
795.788	8.49
796.092	6.08
796.396	4.98
796.7	5.6
797.004	6.99
797.307	10.55
797.611	7.5
797.915	8.09
798.218	9.98
798.522	4.58
798.825	12.07
799.128	13.1
799.432	4.05
799.735	5.44
800.038	11.17
800.341	11.83
800.644	6.9
800.947	3.85
801.25	7.82
801.553	10.38
801.856	11.18
802.159	2.3
802.462	5
802.764	11.34
803.067	10.91
803.37	7.22
803.672	3.2
803.975	4.4
804.277	4.76
804.579	8.22
804.882	10.71
805.184	8.35
805.486	13.5
805.788	14.32
806.09	6.06
806.392	5.68
806.694	10.05
806.996	10.3
807.298	7.78
807.6	10.43
807.902	10.17
808.203	5.19
808.505	9.04
808.807	9.35
809.108	8.93
809.409	9.19
809.711	3.85
810.012	8.13
810.313	8.32
810.615	11.55
810.916	11.22
811.217	0.57
811.518	3.65
811.819	8.59
812.12	7.18
812.421	6.3
812.722	8.22
813.023	10.45
813.323	6.34
813.624	8.89
813.925	10.43
814.225	6.86
814.526	-2.04
814.826	4.04
815.126	7.67
815.427	10.18
815.727	9.68
816.027	1.45
816.327	11.1
816.627	8.19
816.927	2.73
817.227	2.23
817.527	7.57
817.827	6.85
818.127	-1.76
818.427	4.49
818.727	3.41
819.026	0.08
819.326	3.7
819.625	3.41
819.925	3.99
820.224	10.5
820.524	8.11
820.823	11.61
821.122	10.26
821.421	3.28
821.72	11.22
822.019	5.5
822.318	12.33
822.617	12.03
822.916	8.63
823.215	12.51
823.514	11.38
823.813	9.04
824.111	9.72
824.41	11.08
824.709	10.16
825.007	11.84
825.306	11.38
825.604	12.31
825.902	11.51
826.201	11.07
826.499	10.44
826.797	11.22
827.095	10.69
827.393	13.01
827.691	12.89
827.989	11.07
828.287	9.75
828.585	7.49
828.882	6.53
829.18	9.61
829.478	12.71
829.775	11.3
830.073	11.84
830.37	9.77
830.668	11.03
830.965	10.59
831.263	12.89
831.56	10.29
831.857	10.73
832.154	11.2
832.451	12.02
832.748	8.18
833.045	9.53
833.342	7.56
833.639	6.94
833.936	9.23
834.232	7.03
834.529	4.73
834.826	12.24
835.122	4.01
835.419	14.75
835.715	5.63
836.012	6
836.308	13.85
836.604	9.71
836.901	8.17
837.197	13.87
837.493	10.86
837.789	9.1
838.085	8.04
838.381	13.23
838.677	12.06
838.972	4.56
839.268	10.94
839.564	12.28
839.86	5.56
840.155	9.83
840.451	9.37
840.746	8.3
841.042	3.69
841.337	6.51
841.632	-0.53
841.928	7.73
842.223	8.45
842.518	2.79
842.813	1.03
843.108	9.57
843.403	5.38
843.698	8.07
843.993	7.33
844.287	-1.54
844.582	4
844.877	6.25
845.171	4.88
845.466	-1.17
845.761	-3.18
846.055	4.37
846.349	-3.38
846.644	4.76
846.938	0.17
847.232	7.83
847.526	4.14
847.82	-3.57
848.114	11.73
848.408	13.85
848.702	4.76
848.996	11.28
849.29	15.97
849.584	-1.04
849.877	-15.43
850.171	14.74
850.465	11.69
850.758	-13.36
851.052	-13.89
851.345	17.23
851.638	-3.99
851.932	-5.42
852.225	6.46
852.518	0.38
852.811	-11.17
853.104	-26.37
853.397	9.41
853.69	-3.47
853.983	-18.46
854.276	10.1
854.569	-19.15
854.861	12.35
855.154	19.68
855.447	-8.9
855.739	-42.52
856.032	9.92
856.324	-5.86
856.616	12.63
856.909	-5.04
857.201	-11.31
857.493	-34.18
857.785	-11.46
858.077	-28.66
858.369	-10.29
858.661	16.62
858.953	11.51
859.245	-6.39
859.537	-17.21
859.829	-6.85
860.12	-5.64
860.412	-10.23
860.703	17.44
860.995	19.44
861.286	-39.62
861.578	16.59
861.869	-6.18
862.16	-23.76
862.452	-3.83
862.743	-8.3
863.034	4.16
863.325	3.98
863.616	16.64
863.907	9.93
864.198	-40.38
864.488	11.08
864.779	4.37
865.07	1.72
865.36	-10.97
865.651	2.8
865.941	-5.75
866.232	31.27
866.522	9.54
866.813	4.9
867.103	-27.88
867.393	-11.93
867.683	6.07
867.973	-6.77
868.263	-38.23
868.553	-4.77
868.843	-14.05
869.133	-30.33
869.423	-9.45
869.713	-34.26
870.002	17.45
870.292	-6.19
870.582	-4.64
870.871	1.38
871.161	-11.8
871.45	-34.9
871.739	11.01
872.029	-17.52
872.318	3.7
872.607	14.62
872.896	-11.35
873.185	29.93
873.474	-1.12
873.763	51.18
874.052	-13.19
874.341	-4.7
874.63	1.88
874.918	-0.07
875.207	-17.13
875.496	-5.01
875.784	5.83
876.073	2.18
876.361	8.98
876.649	14.86
876.938	-28.11
877.226	4.97
877.514	7.13
877.802	-0.17
878.09	-14.68
878.378	-4.18
878.666	20.91
878.954	21.85
879.242	-2.5
879.53	-14.23
879.817	-5.61
880.105	16.63
880.392	-45.69
880.68	-10.65
880.967	-13.97
881.255	16.19
881.542	-20.05
881.83	32.61
882.117	-2.53
882.404	-9.19
882.691	-16.23
882.978	16.05
883.265	-2.29
883.552	-1.32
883.839	8.08
884.126	4.55
884.413	11.41
884.699	12.8
884.986	8.15
885.273	18.31
885.559	18.31
885.846	18.31
