Data from 0011_forehead_Reflection__1__343.txt Node

Date: Thu Dec 15 19:19:38 CST 2022
User: ToomeyLab
Spectrometer: FLMS14357
Trigger mode: 0
Integration Time (sec): 1.000000E-2
Scans to average: 100
Electric dark correction enabled: true
Nonlinearity correction enabled: false
Boxcar width: 0
XAxis mode: Wavelengths
Number of Pixels in Spectrum: 2048
>>>>>Begin Spectral Data<<<<<
189.047	-19.25
189.435	-19.25
189.823	-19.25
190.211	-93.12
190.599	-43.36
190.987	32.39
191.375	-99.22
191.763	9.32
192.151	346.53
192.538	125.4
192.926	40.53
193.314	-11.22
193.702	-6.17
194.089	125.37
194.477	458.58
194.864	42.88
195.252	18.1
195.639	351.77
196.027	-2.6
196.414	194.99
196.801	-163.33
197.189	8.76
197.576	-247.33
197.963	405.91
198.351	-38.44
198.738	34.77
199.125	-22.37
199.512	87.38
199.899	-13.15
200.286	-59.14
200.673	77.85
201.06	-29.84
201.447	22.6
201.833	1
202.22	13.04
202.607	-24.44
202.994	-10.94
203.38	5.04
203.767	-8.13
204.154	31.36
204.54	38.54
204.927	40.15
205.313	26.5
205.699	37.18
206.086	39.07
206.472	21.28
206.858	-7.23
207.245	-25.35
207.631	30.17
208.017	33.01
208.403	-40.58
208.789	0.45
209.175	-16.84
209.561	-67.15
209.947	-15.52
210.333	-21.28
210.719	17.83
211.105	4.03
211.491	13.27
211.876	-49.57
212.262	-23.66
212.648	0.73
213.034	-4.59
213.419	2.11
213.805	-52.22
214.19	-50.49
214.576	-8.91
214.961	-12.99
215.346	5.23
215.732	0.08
216.117	12.75
216.502	-30.19
216.888	3.93
217.273	-0.57
217.658	-17.46
218.043	-27.17
218.428	-2.53
218.813	-9.93
219.198	-86.12
219.583	-48.63
219.968	-10.2
220.353	-58.97
220.738	23.61
221.122	-28.4
221.507	3.49
221.892	-20.28
222.276	-34.62
222.661	-20.27
223.046	-17.56
223.43	16.07
223.815	-7.88
224.199	-4.85
224.583	3.02
224.968	-6.94
225.352	-17.07
225.736	20.43
226.121	7.24
226.505	-3.89
226.889	7.43
227.273	-0.53
227.657	3.44
228.041	-1.84
228.425	-1.76
228.809	3.53
229.193	0.38
229.577	3.43
229.961	1.64
230.344	3.46
230.728	4.03
231.112	3.75
231.495	2.61
231.879	3.1
232.263	3.86
232.646	1.78
233.03	4.36
233.413	2.93
233.797	1.39
234.18	3.23
234.563	4.04
234.946	1.73
235.33	4.58
235.713	2.32
236.096	3.57
236.479	4.47
236.862	2.46
237.245	2.38
237.628	4.91
238.011	4.53
238.394	2.74
238.777	3.75
239.16	3.6
239.543	3.93
239.925	3.69
240.308	0.49
240.691	2.23
241.073	2.01
241.456	3.36
241.838	3.48
242.221	4.1
242.603	3.29
242.986	3.62
243.368	3.65
243.75	3.52
244.133	3.68
244.515	3.14
244.897	3.36
245.279	3.71
245.661	3.03
246.043	4.32
246.425	4.73
246.807	3.36
247.189	2.98
247.571	3.22
247.953	3.66
248.335	3.75
248.717	3.89
249.098	3.78
249.48	3.9
249.862	3.49
250.243	4.18
250.625	3.83
251.006	4.14
251.388	2.85
251.769	3.12
252.151	4.89
252.532	3.1
252.913	3.13
253.295	3.44
253.676	3.64
254.057	3.3
254.438	3.53
254.819	2.62
255.2	3.63
255.581	5.73
255.962	3.81
256.343	4.63
256.724	3.25
257.105	3.64
257.486	3.39
257.867	4.34
258.247	3.86
258.628	2.49
259.009	2.99
259.389	3.33
259.77	3.15
260.15	3.89
260.531	3.73
260.911	3.78
261.292	3.89
261.672	3.65
262.052	3.62
262.432	3.17
262.813	3.21
263.193	3.98
263.573	3.35
263.953	3.23
264.333	3.74
264.713	3.74
265.093	3.06
265.473	2.75
265.853	3.09
266.233	3.06
266.612	2.66
266.992	3.4
267.372	3.76
267.752	3.83
268.131	3.2
268.511	3.75
268.89	3.81
269.27	3.31
269.649	2.95
270.029	3.23
270.408	3.66
270.787	3.57
271.167	3.46
271.546	4.41
271.925	3.41
272.304	3.39
272.683	3.24
273.062	3.04
273.441	3.05
273.82	3.41
274.199	2.79
274.578	3.5
274.957	3.62
275.336	3.59
275.715	3.75
276.093	3.39
276.472	3.28
276.851	3.98
277.229	3.44
277.608	2.57
277.986	3.59
278.365	3.67
278.743	3.35
279.122	3.36
279.5	3.12
279.878	3.28
280.257	3.3
280.635	3.47
281.013	3.44
281.391	3.4
281.769	3.4
282.147	3.65
282.525	2.92
282.903	2.92
283.281	4.2
283.659	3.58
284.037	3.52
284.415	3.41
284.792	3.64
285.17	3.09
285.548	3.15
285.925	3.11
286.303	3.69
286.68	3.36
287.058	3.58
287.435	3.61
287.813	3.49
288.19	3.16
288.567	3.22
288.945	3.48
289.322	3.89
289.699	3.62
290.076	2.9
290.453	2.93
290.83	3.64
291.207	3.66
291.584	3.87
291.961	3.54
292.338	3.61
292.715	3.5
293.092	3.74
293.469	3.44
293.845	3.74
294.222	4.2
294.599	3.28
294.975	2.96
295.352	3.83
295.728	3.74
296.105	3.76
296.481	3.71
296.858	4.37
297.234	3.27
297.61	3.79
297.986	3.99
298.363	3.86
298.739	4.13
299.115	3.79
299.491	4.17
299.867	3.94
300.243	3.72
300.619	3.6
300.995	3.74
301.371	4.1
301.746	4.24
302.122	2.76
302.498	3.91
302.874	4.13
303.249	4.16
303.625	3.56
304	3.96
304.376	4.42
304.751	4.01
305.127	3.77
305.502	4.48
305.878	4.41
306.253	3.51
306.628	4.01
307.003	3.53
307.378	3.46
307.754	3.89
308.129	3.59
308.504	3.99
308.879	4.32
309.254	4.45
309.629	4.52
310.003	3.85
310.378	4.23
310.753	4.46
311.128	3.78
311.502	4.21
311.877	4.36
312.252	4.19
312.626	4.42
313.001	4.44
313.375	4.69
313.75	4.42
314.124	4.36
314.498	4.14
314.873	3.98
315.247	4.32
315.621	4.59
315.995	4.13
316.369	4.28
316.743	4
317.117	3.89
317.491	4.44
317.865	4.45
318.239	5.15
318.613	4.45
318.987	4.29
319.361	4.88
319.734	4.44
320.108	4.5
320.482	4.89
320.855	4.38
321.229	4.59
321.602	4.24
321.976	3.82
322.349	4.99
322.723	4.62
323.096	4.51
323.469	4.15
323.843	3.88
324.216	4.19
324.589	4.67
324.962	4.19
325.335	4.93
325.708	4.8
326.081	4.7
326.454	4.86
326.827	4.77
327.2	4.72
327.573	5.05
327.945	4.72
328.318	4.72
328.691	4.59
329.063	4.75
329.436	4.68
329.809	5
330.181	5.84
330.553	5.31
330.926	4.96
331.298	5.14
331.671	5.2
332.043	4.71
332.415	5
332.787	5.42
333.159	5.13
333.532	4.94
333.904	5.1
334.276	5.09
334.648	5.01
335.02	4.87
335.391	4.66
335.763	4.9
336.135	4.75
336.507	3.95
336.879	4.72
337.25	5.05
337.622	5.16
337.993	5.5
338.365	4.91
338.736	5.07
339.108	5.05
339.479	5.4
339.851	5.32
340.222	5.32
340.593	5.31
340.964	5.17
341.336	5.23
341.707	5.21
342.078	4.85
342.449	5.29
342.82	5.21
343.191	5.04
343.562	5.25
343.933	5.2
344.303	5.38
344.674	4.91
345.045	5.29
345.416	5.71
345.786	5.47
346.157	5.19
346.527	5.29
346.898	4.91
347.268	5.39
347.639	5.27
348.009	5.58
348.38	5.3
348.75	5.45
349.12	4.98
349.49	5.64
349.861	5.71
350.231	5.25
350.601	5.25
350.971	5.22
351.341	5.65
351.711	5.14
352.081	5.39
352.45	5.45
352.82	4.99
353.19	5.37
353.56	5.37
353.929	5.88
354.299	5.72
354.669	5.79
355.038	5.97
355.408	5.49
355.777	5.47
356.147	5.58
356.516	5.58
356.885	5.7
357.254	5.74
357.624	5.39
357.993	5.57
358.362	5.79
358.731	5.89
359.1	5.92
359.469	5.89
359.838	5.87
360.207	5.73
360.576	5.53
360.945	5.61
361.314	5.88
361.682	5.71
362.051	5.95
362.42	5.98
362.788	5.95
363.157	5.82
363.525	6.15
363.894	5.86
364.262	5.79
364.631	6.32
364.999	6.4
365.367	6.03
365.735	5.91
366.104	6.11
366.472	5.89
366.84	6.15
367.208	6.31
367.576	5.72
367.944	6.06
368.312	6.26
368.68	6.4
369.048	6.28
369.416	5.96
369.783	6.2
370.151	6.34
370.519	6.43
370.886	6.29
371.254	6.63
371.621	6.33
371.989	6.31
372.356	6.31
372.724	6.08
373.091	6.35
373.458	6.19
373.826	6.51
374.193	6.54
374.56	6.61
374.927	6.17
375.294	6.14
375.661	6.36
376.028	6.18
376.395	6.67
376.762	6.15
377.129	6.36
377.496	6.39
377.863	6.55
378.229	6.79
378.596	6.52
378.963	6.67
379.329	7.01
379.696	6.48
380.062	6.61
380.429	6.41
380.795	6.81
381.161	6.35
381.528	6.42
381.894	6.54
382.26	6.68
382.626	6.55
382.993	7.15
383.359	6.64
383.725	6.45
384.091	6.69
384.457	6.59
384.823	6.91
385.188	6.8
385.554	6.55
385.92	6.84
386.286	6.92
386.651	6.53
387.017	7
387.383	6.9
387.748	7
388.114	6.89
388.479	6.9
388.845	6.6
389.21	7.37
389.575	7.15
389.94	7.15
390.306	7.26
390.671	7.03
391.036	6.7
391.401	7.03
391.766	7.09
392.131	7.23
392.496	7.24
392.861	6.89
393.226	6.78
393.591	7.05
393.956	7.23
394.32	7.23
394.685	7.25
395.05	7.29
395.414	7.06
395.779	7.15
396.143	7.08
396.508	7.01
396.872	7.04
397.236	7.28
397.601	7.15
397.965	7.27
398.329	7.35
398.694	7.02
399.058	7.34
399.422	7.23
399.786	6.96
400.15	7.18
400.514	7.3
400.878	7.18
401.242	7.58
401.605	7.11
401.969	7.06
402.333	6.99
402.697	7.49
403.06	7.1
403.424	7.36
403.787	7.35
404.151	7.35
404.514	7.4
404.878	7.34
405.241	7.42
405.604	7.2
405.968	7.33
406.331	7.46
406.694	7.47
407.057	7.1
407.42	7.41
407.783	7.38
408.146	7.31
408.509	7.53
408.872	7.48
409.235	7.46
409.598	7.26
409.961	7.54
410.323	7.39
410.686	7.3
411.049	7.6
411.411	7.47
411.774	7.6
412.136	7.54
412.499	7.73
412.861	7.24
413.223	7.49
413.586	7.69
413.948	7.81
414.31	7.7
414.672	7.5
415.035	7.94
415.397	7.5
415.759	7.39
416.121	7.84
416.483	7.53
416.845	7.76
417.206	7.65
417.568	7.78
417.93	7.69
418.292	7.68
418.653	7.59
419.015	7.55
419.377	7.51
419.738	7.71
420.1	7.69
420.461	7.62
420.822	7.76
421.184	7.73
421.545	7.81
421.906	7.68
422.267	7.7
422.629	7.68
422.99	7.72
423.351	7.72
423.712	7.81
424.073	7.88
424.434	7.94
424.795	7.75
425.155	7.74
425.516	7.75
425.877	7.83
426.238	7.88
426.598	7.84
426.959	8.04
427.32	7.97
427.68	8.02
428.041	8.24
428.401	7.96
428.761	8.18
429.122	8.15
429.482	8.2
429.842	8.18
430.202	8.26
430.563	8.32
430.923	8.28
431.283	8.36
431.643	8.41
432.003	8.53
432.363	8.61
432.722	8.5
433.082	8.4
433.442	8.52
433.802	8.36
434.161	8.47
434.521	8.37
434.881	8.47
435.24	8.47
435.6	8.55
435.959	8.51
436.319	8.52
436.678	8.54
437.037	8.53
437.396	8.4
437.756	8.4
438.115	8.65
438.474	8.68
438.833	8.56
439.192	8.58
439.551	8.6
439.91	8.75
440.269	8.69
440.628	8.5
440.987	8.78
441.345	8.65
441.704	8.69
442.063	8.72
442.421	8.73
442.78	8.88
443.138	8.84
443.497	8.82
443.855	9.04
444.214	8.72
444.572	9.15
444.93	8.89
445.288	8.93
445.647	8.97
446.005	8.97
446.363	9.14
446.721	8.93
447.079	8.85
447.437	9
447.795	9.05
448.153	8.89
448.51	8.99
448.868	8.96
449.226	8.99
449.584	9.11
449.941	9.16
450.299	9.11
450.656	9.27
451.014	9.35
451.371	9.28
451.729	9.23
452.086	9.37
452.443	9.38
452.801	9.39
453.158	9.4
453.515	9.39
453.872	9.51
454.229	9.29
454.586	9.34
454.943	9.46
455.3	9.47
455.657	9.56
456.014	9.44
456.371	9.6
456.727	9.68
457.084	9.76
457.441	9.67
457.797	9.48
458.154	9.59
458.51	9.64
458.867	9.7
459.223	9.57
459.58	9.6
459.936	9.73
460.292	9.7
460.648	9.58
461.005	9.59
461.361	9.66
461.717	9.59
462.073	9.77
462.429	9.73
462.785	10
463.141	9.79
463.496	10.01
463.852	9.98
464.208	10.03
464.564	9.86
464.919	9.92
465.275	10.05
465.631	10.37
465.986	10.11
466.342	9.88
466.697	10.13
467.052	10.16
467.408	10.1
467.763	10
468.118	10.11
468.473	10.2
468.829	10.02
469.184	10.15
469.539	10.17
469.894	10.29
470.249	10.15
470.603	10.45
470.958	10.41
471.313	10.57
471.668	10.34
472.023	10.42
472.377	10.45
472.732	10.58
473.086	10.34
473.441	10.45
473.795	10.68
474.15	10.43
474.504	10.51
474.859	10.39
475.213	10.69
475.567	10.53
475.921	10.78
476.275	10.63
476.63	10.65
476.984	10.59
477.338	10.72
477.692	10.6
478.045	10.72
478.399	10.87
478.753	10.77
479.107	10.74
479.461	10.71
479.814	10.8
480.168	10.63
480.521	10.84
480.875	10.78
481.228	10.82
481.582	10.77
481.935	10.78
482.289	10.81
482.642	11
482.995	10.86
483.348	10.81
483.701	10.88
484.055	10.85
484.408	10.77
484.761	10.59
485.114	10.4
485.466	10.38
485.819	10.45
486.172	10.47
486.525	10.53
486.878	10.65
487.23	10.7
487.583	10.76
487.936	10.86
488.288	10.83
488.641	10.77
488.993	10.74
489.345	10.69
489.698	10.72
490.05	10.76
490.402	10.88
490.754	10.9
491.107	10.94
491.459	11.2
491.811	11.2
492.163	11.11
492.515	11.04
492.866	11.09
493.218	10.91
493.57	11.04
493.922	11.05
494.274	11.19
494.625	11.22
494.977	11.32
495.328	11.48
495.68	11.52
496.031	11.5
496.383	11.54
496.734	11.52
497.086	11.86
497.437	11.66
497.788	11.72
498.139	11.59
498.49	11.65
498.842	11.76
499.193	11.51
499.544	11.77
499.894	11.73
500.245	11.86
500.596	11.85
500.947	11.77
501.298	11.83
501.648	11.95
501.999	12.03
502.35	11.73
502.7	12.12
503.051	11.95
503.401	11.98
503.752	12.06
504.102	11.96
504.452	11.91
504.803	12.06
505.153	12.13
505.503	12.15
505.853	12.26
506.203	12.23
506.553	12.04
506.903	12.18
507.253	12.1
507.603	12.28
507.953	12.28
508.303	12.31
508.652	12.33
509.002	12.46
509.352	12.37
509.701	12.09
510.051	12.33
510.4	12.51
510.75	12.22
511.099	12.23
511.449	12.48
511.798	12.44
512.147	12.46
512.496	12.43
512.846	12.45
513.195	12.44
513.544	12.63
513.893	12.49
514.242	12.48
514.591	12.42
514.939	12.54
515.288	12.7
515.637	12.57
515.986	12.67
516.334	12.75
516.683	12.72
517.032	12.69
517.38	12.77
517.729	12.62
518.077	12.68
518.426	12.88
518.774	12.79
519.122	12.82
519.47	12.73
519.819	12.67
520.167	12.72
520.515	12.75
520.863	12.64
521.211	12.65
521.559	12.71
521.907	12.85
522.255	12.91
522.602	12.95
522.95	12.94
523.298	13.03
523.645	13.11
523.993	13.04
524.341	12.92
524.688	13.24
525.036	12.96
525.383	13.15
525.73	13.16
526.078	13.19
526.425	13.17
526.772	13.06
527.119	13.02
527.466	13.07
527.814	12.97
528.161	13.03
528.508	13.12
528.854	13.07
529.201	13.12
529.548	12.95
529.895	12.85
530.242	12.78
530.588	12.84
530.935	12.83
531.282	12.81
531.628	12.87
531.975	13.03
532.321	13.18
532.667	13.28
533.014	13.37
533.36	13.36
533.706	13.45
534.052	13.41
534.399	13.27
534.745	13.28
535.091	13.18
535.437	13.27
535.783	13.38
536.129	13.32
536.474	13.48
536.82	13.58
537.166	13.46
537.512	13.65
537.857	13.67
538.203	13.56
538.549	13.69
538.894	13.63
539.239	13.73
539.585	13.79
539.93	13.91
540.276	13.97
540.621	14.05
540.966	14.06
541.311	14.11
541.656	13.97
542.001	13.92
542.346	13.83
542.691	13.67
543.036	13.62
543.381	13.73
543.726	13.66
544.071	13.72
544.415	13.87
544.76	13.86
545.105	13.97
545.449	14.12
545.794	14.18
546.138	14.2
546.483	14.3
546.827	14.27
547.171	14.3
547.516	14.39
547.86	14.31
548.204	14.41
548.548	14.34
548.892	14.52
549.236	14.4
549.58	14.56
549.924	14.55
550.268	14.71
550.612	14.73
550.956	14.84
551.3	15
551.643	14.66
551.987	15
552.33	14.84
552.674	14.85
553.017	14.99
553.361	14.94
553.704	14.96
554.048	14.83
554.391	14.99
554.734	14.78
555.077	14.97
555.42	14.97
555.764	14.91
556.107	15.19
556.45	15.32
556.793	15.33
557.135	15.17
557.478	15.17
557.821	15.22
558.164	15.48
558.507	15.23
558.849	15.4
559.192	15.23
559.534	15.48
559.877	15.13
560.219	15.54
560.562	15.5
560.904	15.56
561.246	15.52
561.589	15.54
561.931	15.45
562.273	15.26
562.615	15.53
562.957	15.4
563.299	15.67
563.641	15.53
563.983	15.62
564.325	15.55
564.667	15.54
565.008	15.63
565.35	15.71
565.692	15.56
566.033	15.61
566.375	15.56
566.716	15.65
567.058	15.74
567.399	15.84
567.741	15.76
568.082	15.94
568.423	15.65
568.764	15.96
569.105	15.92
569.447	15.79
569.788	15.91
570.129	15.97
570.47	15.99
570.811	16.02
571.151	16.1
571.492	16.14
571.833	16.14
572.174	16.13
572.514	16.3
572.855	16.29
573.195	16.19
573.536	16.16
573.876	16.1
574.217	16.33
574.557	16.23
574.898	16.15
575.238	16.35
575.578	16.19
575.918	16.41
576.258	16.57
576.598	16.35
576.938	16.2
577.278	16.6
577.618	16.31
577.958	16.42
578.298	16.45
578.638	16.66
578.977	16.66
579.317	16.57
579.657	16.72
579.996	17.01
580.336	16.76
580.675	16.8
581.014	16.96
581.354	16.57
581.693	17.02
582.032	17.18
582.372	16.95
582.711	17.08
583.05	16.99
583.389	17.02
583.728	17.11
584.067	17.14
584.406	17.08
584.745	16.85
585.083	16.94
585.422	17.3
585.761	17.21
586.1	17.13
586.438	17.09
586.777	17.4
587.115	17.45
587.454	17.33
587.792	17.36
588.13	17.28
588.469	17.14
588.807	17.5
589.145	17.44
589.483	17.06
589.821	17.51
590.159	17.63
590.497	17.74
590.835	17.63
591.173	17.59
591.511	17.74
591.849	17.62
592.187	17.45
592.524	17.8
592.862	17.5
593.2	17.63
593.537	17.5
593.875	17.95
594.212	17.86
594.55	17.94
594.887	18.03
595.224	17.96
595.561	17.79
595.899	17.97
596.236	18.06
596.573	17.72
596.91	17.88
597.247	18.03
597.584	18.12
597.921	18.08
598.258	18.37
598.594	18
598.931	17.96
599.268	17.99
599.604	18.06
599.941	18.05
600.277	18.18
600.614	17.91
600.95	18.29
601.287	17.97
601.623	18.46
601.959	18.71
602.296	18.4
602.632	18.39
602.968	18.33
603.304	18.57
603.64	18.95
603.976	18.32
604.312	18.36
604.648	18.54
604.984	18.63
605.319	18.67
605.655	18.4
605.991	18.5
606.326	18.65
606.662	18.38
606.998	18.8
607.333	18.52
607.668	18.4
608.004	18.78
608.339	18.74
608.674	18.72
609.01	19.22
609.345	19.13
609.68	18.72
610.015	18.98
610.35	19.07
610.685	18.7
611.02	18.9
611.355	19.13
611.689	19.04
612.024	18.92
612.359	19.11
612.694	19.18
613.028	19.15
613.363	19.05
613.697	19.15
614.032	19.3
614.366	19.09
614.7	19.28
615.035	19.28
615.369	19.48
615.703	19.46
616.037	19.64
616.371	19.32
616.705	19.6
617.039	19.63
617.373	19.58
617.707	19.58
618.041	19.68
618.375	19.38
618.709	19.46
619.042	19.49
619.376	19.71
619.71	19.67
620.043	20.07
620.377	19.78
620.71	19.78
621.043	19.79
621.377	20.14
621.71	20.4
622.043	20.4
622.376	19.94
622.709	20.28
623.043	19.54
623.376	19.85
623.709	20.54
624.041	19.5
624.374	20.11
624.707	20.11
625.04	20.11
625.373	20.34
625.705	20.22
626.038	20.14
626.37	20.05
626.703	20.44
627.035	20.27
627.368	20.63
627.7	20.33
628.032	20.26
628.365	20.38
628.697	20.62
629.029	20.19
629.361	20.45
629.693	20.47
630.025	20.41
630.357	20.54
630.689	20.57
631.021	20.61
631.353	20.47
631.684	20.31
632.016	20.39
632.348	20.4
632.679	20.92
633.011	20.48
633.342	20.8
633.674	20.58
634.005	20.98
634.336	21.15
634.668	20.86
634.999	20.47
635.33	21.04
635.661	20.78
635.992	20.96
636.323	21.12
636.654	21.11
636.985	20.74
637.316	20.89
637.647	21.55
637.977	21.29
638.308	21.07
638.639	20.79
638.969	20.99
639.3	20.9
639.63	20.9
639.961	20.95
640.291	21.06
640.622	21.18
640.952	21.45
641.282	20.98
641.612	21.39
641.943	21.17
642.273	21.12
642.603	21.58
642.933	21.49
643.263	21.55
643.592	21.39
643.922	21.61
644.252	21.7
644.582	21.67
644.911	22.02
645.241	21.43
645.571	21.73
645.9	21.94
646.23	21.96
646.559	21.78
646.888	21.89
647.218	22.18
647.547	22.35
647.876	21.77
648.205	21.15
648.534	21.95
648.863	21.77
649.192	21.92
649.521	22.17
649.85	22.07
650.179	22.07
650.508	22.19
650.837	22.37
651.165	21.9
651.494	22.33
651.822	22.44
652.151	22.1
652.479	22.84
652.808	22.14
653.136	21.89
653.465	22.43
653.793	22.35
654.121	22.51
654.449	22.01
654.777	22.14
655.105	21.86
655.433	22.29
655.761	22.67
656.089	22.62
656.417	22.83
656.745	22.64
657.073	22.21
657.4	22.76
657.728	22.15
658.056	22.56
658.383	22.39
658.711	22.84
659.038	23.08
659.365	23.15
659.693	22.97
660.02	22.69
660.347	22.73
660.674	22.87
661.001	22.98
661.329	22.69
661.656	22.59
661.982	22.72
662.309	22.37
662.636	22.22
662.963	22.93
663.29	23.25
663.616	22.6
663.943	23
664.27	23.21
664.596	22.79
664.923	23.25
665.249	23.33
665.576	22.83
665.902	23.36
666.228	23.97
666.554	23.54
666.881	22.64
667.207	23.28
667.533	23.15
667.859	23.5
668.185	22.98
668.511	23.16
668.837	23.3
669.162	23.19
669.488	23.14
669.814	23.21
670.139	23
670.465	23.8
670.791	23
671.116	23.43
671.442	22.85
671.767	23.65
672.092	23.81
672.418	23.82
672.743	23.61
673.068	23.51
673.393	23.93
673.718	23.29
674.043	23.52
674.368	24
674.693	23.76
675.018	23.71
675.343	23.92
675.667	24.25
675.992	24.63
676.317	23.45
676.641	24.56
676.966	24.41
677.29	22.91
677.615	23.62
677.939	24.49
678.264	23.77
678.588	24.51
678.912	24.02
679.236	24.49
679.56	23.85
679.885	24.08
680.209	24.18
680.532	24.15
680.856	25.18
681.18	24.73
681.504	24.61
681.828	24.63
682.152	24.66
682.475	24.73
682.799	24.54
683.122	24.31
683.446	24.03
683.769	24.81
684.093	24.44
684.416	24.08
684.739	24.58
685.062	24.43
685.386	25.4
685.709	24.94
686.032	24.68
686.355	25.15
686.678	25.48
687.001	24.86
687.324	24.88
687.646	25.29
687.969	24.98
688.292	24.61
688.614	24.83
688.937	25.02
689.26	25.23
689.582	25.66
689.904	24.87
690.227	25
690.549	25.09
690.871	24.54
691.194	24.66
691.516	24.56
691.838	24.81
692.16	24.63
692.482	25.54
692.804	24.92
693.126	24.77
693.448	24.94
693.769	25.38
694.091	25.26
694.413	25.49
694.735	25.09
695.056	25.48
695.378	25.25
695.699	25.23
696.021	26.66
696.342	25.22
696.663	25.22
696.984	25.15
697.306	24.95
697.627	25.89
697.948	25.63
698.269	25.82
698.59	25.46
698.911	25.39
699.232	26.37
699.553	25.72
699.873	25.8
700.194	25.88
700.515	25.55
700.835	26.31
701.156	26.28
701.477	26.14
701.797	25.45
702.117	25.47
702.438	25.82
702.758	25.44
703.078	26.54
703.398	25.44
703.719	26.06
704.039	26.32
704.359	26
704.679	25.57
704.999	26.37
705.319	25.71
705.638	25.69
705.958	25.96
706.278	26.76
706.597	26.12
706.917	26.56
707.237	26.52
707.556	26.85
707.876	26.63
708.195	26.29
708.514	26.6
708.834	26.24
709.153	26.54
709.472	27.39
709.791	25.7
710.11	26.37
710.429	26.08
710.748	26.5
711.067	27.09
711.386	26.96
711.705	26.73
712.023	27.48
712.342	26.97
712.661	26.67
712.979	26.9
713.298	27.03
713.616	27.49
713.935	26.81
714.253	26.62
714.572	26.43
714.89	26.02
715.208	27.24
715.526	26.67
715.844	27.27
716.162	26.93
716.48	27.31
716.798	26.93
717.116	27.42
717.434	26.83
717.752	27.04
718.069	26.43
718.387	27.29
718.705	26.9
719.022	27.46
719.34	26.37
719.657	26.77
719.975	27.03
720.292	26.64
720.609	25.99
720.927	27.27
721.244	27.44
721.561	25.98
721.878	27.66
722.195	27.08
722.512	27.47
722.829	27.44
723.146	26.52
723.463	27.4
723.779	25.71
724.096	26.12
724.413	27.75
724.729	29.01
725.046	27.68
725.362	26.03
725.679	26.95
725.995	26.86
726.311	26.62
726.628	26.62
726.944	27.19
727.26	28.6
727.576	28.1
727.892	28
728.208	27.73
728.524	28.62
728.84	27.47
729.156	26.34
729.472	25.74
729.787	27.28
730.103	27.73
730.419	27.29
730.734	26.36
731.05	28.22
731.365	28.4
731.681	28.17
731.996	28.78
732.311	27.71
732.626	27.38
732.942	28.18
733.257	28.25
733.572	28.46
733.887	28.53
734.202	28.38
734.517	28.51
734.832	29.08
735.146	28.78
735.461	28.81
735.776	28.25
736.091	29.33
736.405	28.66
736.72	27.94
737.034	27.76
737.349	28.43
737.663	29.14
737.977	27.7
738.292	27.71
738.606	29.73
738.92	29.88
739.234	28.54
739.548	28.6
739.862	28.96
740.176	28.28
740.49	28.1
740.804	28.38
741.117	27.18
741.431	27.63
741.745	28.08
742.058	27.94
742.372	26.3
742.685	29.72
742.999	27.33
743.312	27.59
743.626	29.07
743.939	27.28
744.252	28.53
744.565	28.9
744.878	29.53
745.191	28.59
745.505	30.3
745.817	30.47
746.13	28.34
746.443	27.49
746.756	28.95
747.069	30.01
747.381	29.13
747.694	29.09
748.007	29.95
748.319	28.79
748.632	28.87
748.944	27.83
749.256	29.58
749.569	27.66
749.881	29.93
750.193	29.08
750.505	28.07
750.817	27.1
751.129	28.17
751.441	28.53
751.753	30.41
752.065	28.26
752.377	29.39
752.689	27.43
753	28.88
753.312	29.94
753.624	27.51
753.935	29
754.247	28.46
754.558	29.69
754.869	31.46
755.181	29.07
755.492	29.53
755.803	30.55
756.114	29.21
756.425	28
756.736	31.57
757.047	30.02
757.358	31.82
757.669	30.8
757.98	28.68
758.291	29.56
758.601	30.98
758.912	29.3
759.223	30.43
759.533	29.6
759.844	29.32
760.154	29.45
760.464	29.18
760.775	31.57
761.085	31.35
761.395	27.7
761.705	27.37
762.016	29.45
762.326	30.05
762.636	31.08
762.945	29.04
763.255	28.26
763.565	30.86
763.875	29.04
764.185	30.02
764.494	30.15
764.804	29.82
765.113	31.27
765.423	30.65
765.732	30.86
766.042	30.76
766.351	29.47
766.66	30.25
766.97	29.09
767.279	30.02
767.588	30.73
767.897	29.72
768.206	29.67
768.515	30.59
768.824	28.95
769.133	28.71
769.441	27.26
769.75	30.15
770.059	30.22
770.367	30.55
770.676	29.75
770.984	30.34
771.293	31.29
771.601	27.35
771.91	30.74
772.218	34.2
772.526	30
772.834	28.34
773.142	30.08
773.45	29.6
773.758	32.33
774.066	29.9
774.374	33.18
774.682	31.64
774.99	29.33
775.298	31.07
775.605	28.51
775.913	26.88
776.22	26.86
776.528	30.15
776.835	32.11
777.143	32.13
777.45	28.54
777.757	32.35
778.065	28.83
778.372	30.55
778.679	33.74
778.986	32.43
779.293	29.77
779.6	29.59
779.907	29.32
780.214	30.21
780.52	34.39
780.827	29.23
781.134	29.88
781.44	34.86
781.747	32.63
782.053	27.9
782.36	30.83
782.666	28.02
782.973	31.04
783.279	30.78
783.585	34.44
783.891	28.36
784.197	31.15
784.503	31.85
784.809	30.49
785.115	32.48
785.421	32.77
785.727	29.04
786.033	31.17
786.339	30.87
786.644	30.08
786.95	32.78
787.255	29.07
787.561	30.26
787.866	27.77
788.172	28.62
788.477	32.53
788.782	27.23
789.088	27.9
789.393	28.68
789.698	29.11
790.003	30.05
790.308	34.06
790.613	29.11
790.918	31.04
791.223	31.48
791.527	32.37
791.832	29.61
792.137	31.19
792.441	32.31
792.746	32.3
793.05	31.42
793.355	31.02
793.659	34.64
793.963	27.05
794.268	30.97
794.572	30.71
794.876	28.59
795.18	33.33
795.484	29.25
795.788	29.86
796.092	28.18
796.396	27.28
796.7	30.05
797.004	29.1
797.307	29.71
797.611	30.53
797.915	26.86
798.218	33.78
798.522	25.54
798.825	30.58
799.128	30.59
799.432	26.04
799.735	29.24
800.038	34.72
800.341	32.58
800.644	25.74
800.947	30.35
801.25	29.41
801.553	34.9
801.856	32.66
802.159	30.82
802.462	32.31
802.764	31.61
803.067	27.83
803.37	28.32
803.672	27.18
803.975	31.71
804.277	30.09
804.579	34.08
804.882	28.15
805.184	34.41
805.486	35.35
805.788	29.11
806.09	31.21
806.392	32.44
806.694	35.04
806.996	36.33
807.298	28.84
807.6	32.88
807.902	29.33
808.203	28.71
808.505	31.85
808.807	28.24
809.108	31.27
809.409	36.06
809.711	31.65
810.012	29.04
810.313	30.8
810.615	32.19
810.916	35.47
811.217	33.92
811.518	29.78
811.819	25.61
812.12	32.94
812.421	23.87
812.722	26.71
813.023	35.22
813.323	22.27
813.624	32.26
813.925	32.78
814.225	31.66
814.526	26.54
814.826	22.04
815.126	26.03
815.427	29.98
815.727	26.61
816.027	32.83
816.327	32.39
816.627	33.25
816.927	27.86
817.227	27.03
817.527	30.22
817.827	26.95
818.127	30.92
818.427	27.79
818.727	32.06
819.026	30.43
819.326	33.89
819.625	28.21
819.925	37.22
820.224	35.31
820.524	37.17
820.823	33.25
821.122	27
821.421	27.68
821.72	29.54
822.019	25.53
822.318	33.7
822.617	34.02
822.916	26.81
823.215	30.95
823.514	33.74
823.813	31.71
824.111	34.06
824.41	33.66
824.709	33.96
825.007	34.21
825.306	33.07
825.604	33.31
825.902	34.05
826.201	31.66
826.499	32.28
826.797	31.1
827.095	32.62
827.393	33.81
827.691	34.3
827.989	33.26
828.287	31.45
828.585	31.48
828.882	32.33
829.18	31.73
829.478	33.53
829.775	33.75
830.073	33.67
830.37	34.43
830.668	33.57
830.965	32.75
831.263	34.11
831.56	33.72
831.857	33.93
832.154	35.59
832.451	30.26
832.748	31.02
833.045	30.7
833.342	26.03
833.639	33.97
833.936	25.16
834.232	26.06
834.529	28.78
834.826	32.96
835.122	34.37
835.419	35.21
835.715	32.59
836.012	33
836.308	35.8
836.604	29.69
836.901	31.16
837.197	35.86
837.493	34.88
837.789	33.8
838.085	31.42
838.381	33.29
838.677	31.65
838.972	27.2
839.268	32.38
839.564	34.39
839.86	36.61
840.155	32.04
840.451	28.37
840.746	26.72
841.042	22.91
841.337	31.24
841.632	27.08
841.928	27.16
842.223	32.3
842.518	27.52
842.813	26.19
843.108	23.09
843.403	29.95
843.698	26.88
843.993	45.82
844.287	28.68
844.582	34.11
844.877	39.79
845.171	37.7
845.466	17.96
845.761	26.68
846.055	33.86
846.349	43.67
846.644	24.15
846.938	32
847.232	30.75
847.526	18.04
847.82	36.76
848.114	24.9
848.408	13.34
848.702	25.78
848.996	13.33
849.29	35.61
849.584	26.23
849.877	11.08
850.171	17.22
850.465	30.1
850.758	7.38
851.052	27.6
851.345	27.93
851.638	25.27
851.932	26.84
852.225	39.41
852.518	23.88
852.811	-0.63
853.104	12.46
853.397	29.94
853.69	50.32
853.983	8.42
854.276	22.09
854.569	31.75
854.861	18.93
855.154	31.35
855.447	27.39
855.739	-1.68
856.032	22.88
856.324	28.73
856.616	28.95
856.909	22.4
857.201	17.62
857.493	16.34
857.785	30.07
858.077	18.47
858.369	35.46
858.661	13.66
858.953	40.88
859.245	48.67
859.537	-4.02
859.829	24.3
860.12	32.28
860.412	55.26
860.703	36.21
860.995	44.28
861.286	22.58
861.578	28.35
861.869	35.5
862.16	21.6
862.452	27.84
862.743	40.5
863.034	24.13
863.325	33.73
863.616	34.25
863.907	41.3
864.198	38.42
864.488	19.45
864.779	24.59
865.07	9.5
865.36	26.25
865.651	57.05
865.941	11.09
866.232	43.56
866.522	33.92
866.813	8.65
867.103	-1.36
867.393	25.42
867.683	20.06
867.973	20.57
868.263	45.85
868.553	23.03
868.843	29.46
869.133	19.15
869.423	29.09
869.713	5.24
870.002	27.01
870.292	11.06
870.582	-1.58
870.871	8.42
871.161	-0.75
871.45	23.63
871.739	41.14
872.029	4.12
872.318	-1.65
872.607	27.45
872.896	10.05
873.185	40.48
873.474	29.44
873.763	71.06
874.052	18.55
874.341	30.56
874.63	21.38
874.918	25.35
875.207	-42.34
875.496	42.55
875.784	24.17
876.073	18.28
876.361	40.31
876.649	-12.75
876.938	3.79
877.226	20.03
877.514	33.25
877.802	5.07
878.09	26.69
878.378	-0.03
878.666	33.26
878.954	48.46
879.242	18.55
879.53	9.84
879.817	13.76
880.105	28.34
880.392	17.28
880.68	47.51
880.967	18.96
881.255	52.26
881.542	7.61
881.83	36.72
882.117	13.5
882.404	27.38
882.691	40.66
882.978	19.55
883.265	30.19
883.552	42.96
883.839	38.41
884.126	38.45
884.413	29.29
884.699	38
884.986	34.89
885.273	34.1
885.559	34.1
885.846	34.1
