Data from 0029_crown_Reflection__4__130.txt Node

Date: Thu Oct 20 21:56:08 CDT 2022
User: ToomeyLab
Spectrometer: FLMS14357
Trigger mode: 0
Integration Time (sec): 1.000000E-2
Scans to average: 100
Electric dark correction enabled: true
Nonlinearity correction enabled: false
Boxcar width: 0
XAxis mode: Wavelengths
Number of Pixels in Spectrum: 2048
>>>>>Begin Spectral Data<<<<<
189.047	-144.36
189.435	-144.36
189.823	-144.36
190.211	-76.16
190.599	37.5
190.987	161.42
191.375	110.77
191.763	-372.27
192.151	21.65
192.538	230.82
192.926	104.91
193.314	70.17
193.702	-68.91
194.089	114.66
194.477	-568.4
194.864	-481.99
195.252	35.06
195.639	77.97
196.027	2585.19
196.414	53.48
196.801	-340.88
197.189	10.43
197.576	151.67
197.963	-197.87
198.351	-24.71
198.738	-51.02
199.125	10.19
199.512	-6.76
199.899	-28.51
200.286	-0.32
200.673	-18.43
201.06	17.97
201.447	33.09
201.833	-18.17
202.22	1.04
202.607	-19.25
202.994	-11.16
203.38	-13.2
203.767	13.48
204.154	-17.17
204.54	-13.04
204.927	-16.29
205.313	15.86
205.699	17.99
206.086	-11.31
206.472	31.18
206.858	10.94
207.245	39.26
207.631	3.92
208.017	-21.53
208.403	-47.38
208.789	-5.85
209.175	50.53
209.561	21.78
209.947	12.41
210.333	7.72
210.719	-14.26
211.105	-10.35
211.491	-54.17
211.876	-3.16
212.262	-8.18
212.648	-16.82
213.034	7.98
213.419	-26.54
213.805	-9.58
214.19	0.52
214.576	-64.74
214.961	-35.85
215.346	-28.3
215.732	0.42
216.117	-17.25
216.502	13.32
216.888	0.47
217.273	-38.79
217.658	19.67
218.043	15.48
218.428	1.89
218.813	31.57
219.198	11.38
219.583	6.24
219.968	24.16
220.353	-26.88
220.738	24.03
221.122	5.93
221.507	2.06
221.892	4.65
222.276	1.39
222.661	16.17
223.046	11.18
223.43	9.65
223.815	7.2
224.199	-11.79
224.583	7.56
224.968	0.41
225.352	0.23
225.736	6.1
226.121	-4.66
226.505	8.58
226.889	5.05
227.273	1.37
227.657	5.21
228.041	1.5
228.425	3.64
228.809	7.44
229.193	7.84
229.577	6.9
229.961	7.83
230.344	7.73
230.728	7.23
231.112	6.88
231.495	7.45
231.879	7.97
232.263	7.96
232.646	6.96
233.03	6.19
233.413	5.45
233.797	7.11
234.18	5.52
234.563	5.77
234.946	6.16
235.33	5.62
235.713	6.15
236.096	5.47
236.479	8.02
236.862	7.84
237.245	5.84
237.628	7.05
238.011	6.77
238.394	7.89
238.777	6.96
239.16	5.95
239.543	7.47
239.925	6.32
240.308	7.33
240.691	8.59
241.073	6.49
241.456	6.82
241.838	7.44
242.221	6.94
242.603	7.13
242.986	7.28
243.368	7.75
243.75	7.34
244.133	7.63
244.515	6.82
244.897	6.24
245.279	5.36
245.661	7.76
246.043	7.76
246.425	6.93
246.807	6.94
247.189	7.1
247.571	7.56
247.953	7.25
248.335	7.04
248.717	6.77
249.098	6.58
249.48	6.73
249.862	6.68
250.243	6.44
250.625	7.11
251.006	7.08
251.388	5.99
251.769	6.52
252.151	6.56
252.532	6.98
252.913	6.45
253.295	6.9
253.676	6.94
254.057	5.78
254.438	6.91
254.819	6.93
255.2	7
255.581	6.64
255.962	7.36
256.343	5.38
256.724	6.29
257.105	5.55
257.486	5.9
257.867	6.59
258.247	6.47
258.628	6.46
259.009	5.73
259.389	6.52
259.77	6.49
260.15	6.42
260.531	6.49
260.911	6.45
261.292	6.5
261.672	6.48
262.052	6.03
262.432	6.32
262.813	6.4
263.193	6.43
263.573	6.3
263.953	5.97
264.333	5.63
264.713	5.97
265.093	5.98
265.473	6.14
265.853	6.84
266.233	5.87
266.612	6.35
266.992	5.71
267.372	6.5
267.752	6.52
268.131	6.57
268.511	6.14
268.89	6.12
269.27	6.22
269.649	5.81
270.029	5.47
270.408	5.79
270.787	6.1
271.167	5.86
271.546	5.77
271.925	6.24
272.304	6.29
272.683	5.94
273.062	5.41
273.441	6.19
273.82	6.2
274.199	5.67
274.578	5.71
274.957	5.52
275.336	5.89
275.715	6.14
276.093	6.5
276.472	6.09
276.851	6.32
277.229	5.56
277.608	5.59
277.986	5.43
278.365	5.21
278.743	5.28
279.122	5.85
279.5	5.59
279.878	5.73
280.257	5.67
280.635	5.43
281.013	5.91
281.391	5.51
281.769	5.72
282.147	4.86
282.525	5.31
282.903	5.37
283.281	5.44
283.659	4.98
284.037	4.99
284.415	5.21
284.792	5.01
285.17	6.1
285.548	5.43
285.925	5.07
286.303	5.49
286.68	5.8
287.058	5.7
287.435	5.61
287.813	5.4
288.19	5.25
288.567	5.25
288.945	5.5
289.322	5.42
289.699	5.14
290.076	5.52
290.453	5.02
290.83	5.21
291.207	5.37
291.584	5.26
291.961	5.3
292.338	4.79
292.715	5.01
293.092	5.78
293.469	5.24
293.845	5.18
294.222	5.68
294.599	6.02
294.975	5.37
295.352	5.64
295.728	5.28
296.105	5.86
296.481	5.1
296.858	5.28
297.234	5.28
297.61	5.4
297.986	5.55
298.363	5.17
298.739	5.14
299.115	4.92
299.491	4.91
299.867	4.93
300.243	4.96
300.619	5.31
300.995	4.9
301.371	5.22
301.746	5.26
302.122	5.41
302.498	4.73
302.874	6
303.249	5.72
303.625	5.09
304	5.72
304.376	4.8
304.751	4.98
305.127	4.61
305.502	5.16
305.878	5.15
306.253	4.81
306.628	4.96
307.003	4.85
307.378	4.73
307.754	5.15
308.129	4.97
308.504	4.54
308.879	5.22
309.254	4.96
309.629	5.15
310.003	4.91
310.378	4.99
310.753	5.09
311.128	5.16
311.502	5
311.877	5.35
312.252	4.77
312.626	4.98
313.001	5.3
313.375	5.04
313.75	4.54
314.124	4.56
314.498	4.84
314.873	4.92
315.247	4.87
315.621	4.49
315.995	4.63
316.369	5.38
316.743	4.54
317.117	4.94
317.491	5.2
317.865	5.03
318.239	4.85
318.613	5.58
318.987	4.92
319.361	5.09
319.734	4.22
320.108	5.36
320.482	4.83
320.855	4.96
321.229	4.97
321.602	4.39
321.976	4.51
322.349	4.71
322.723	5.1
323.096	4.95
323.469	5.3
323.843	5.26
324.216	4.84
324.589	5.43
324.962	4.87
325.335	5.36
325.708	5.09
326.081	5.26
326.454	5.08
326.827	4.75
327.2	5.3
327.573	4.79
327.945	5.28
328.318	4.26
328.691	5.42
329.063	5.05
329.436	4.8
329.809	5.26
330.181	5.01
330.553	4.6
330.926	5.1
331.298	4.48
331.671	4.92
332.043	5.27
332.415	5.11
332.787	4.93
333.159	4.72
333.532	4.84
333.904	5.02
334.276	4.79
334.648	4.67
335.02	5.17
335.391	4.7
335.763	5.22
336.135	5.21
336.507	4.88
336.879	5.83
337.25	4.99
337.622	5.2
337.993	4.59
338.365	5.05
338.736	4.95
339.108	5.45
339.479	4.77
339.851	5.01
340.222	5.17
340.593	5.27
340.964	5.15
341.336	5.14
341.707	4.99
342.078	5.26
342.449	5.09
342.82	5.37
343.191	4.97
343.562	5.25
343.933	5.08
344.303	5.09
344.674	5.11
345.045	5.03
345.416	5.18
345.786	5.03
346.157	5.35
346.527	4.44
346.898	4.93
347.268	5.01
347.639	5.25
348.009	5.19
348.38	5.54
348.75	4.75
349.12	5.43
349.49	5.27
349.861	5.38
350.231	4.86
350.601	5.4
350.971	5.35
351.341	5.34
351.711	5.2
352.081	4.97
352.45	5
352.82	4.93
353.19	5.14
353.56	5.42
353.929	4.87
354.299	5.66
354.669	5.01
355.038	5.3
355.408	5.03
355.777	5.23
356.147	5.42
356.516	5.35
356.885	5.23
357.254	5.4
357.624	5.22
357.993	5.04
358.362	5.45
358.731	5.52
359.1	4.89
359.469	5.42
359.838	4.98
360.207	5.71
360.576	4.92
360.945	5.4
361.314	5.38
361.682	5.51
362.051	5.37
362.42	5.33
362.788	5.51
363.157	5.29
363.525	5.31
363.894	5.23
364.262	5.48
364.631	5.24
364.999	5.31
365.367	5.55
365.735	5.33
366.104	5.21
366.472	5.12
366.84	5.68
367.208	5.32
367.576	5.43
367.944	5.82
368.312	5.23
368.68	5.64
369.048	5.41
369.416	5.48
369.783	5.39
370.151	5.73
370.519	5.65
370.886	5.21
371.254	5.54
371.621	5.34
371.989	5.67
372.356	5.29
372.724	5.76
373.091	5.78
373.458	5.31
373.826	5.7
374.193	5.75
374.56	5.13
374.927	5.32
375.294	5.35
375.661	5.75
376.028	5.8
376.395	5.95
376.762	5.51
377.129	5.4
377.496	5.33
377.863	5.51
378.229	5.89
378.596	5.9
378.963	5.89
379.329	5.73
379.696	5.64
380.062	5.5
380.429	5.76
380.795	5.58
381.161	5.87
381.528	5.62
381.894	5.67
382.26	5.66
382.626	5.92
382.993	5.6
383.359	5.47
383.725	5.71
384.091	5.88
384.457	5.5
384.823	5.63
385.188	6.05
385.554	5.46
385.92	5.79
386.286	5.63
386.651	5.53
387.017	5.74
387.383	5.77
387.748	6.15
388.114	5.83
388.479	5.92
388.845	5.98
389.21	5.72
389.575	5.58
389.94	6
390.306	6.27
390.671	5.69
391.036	5.9
391.401	5.63
391.766	5.94
392.131	5.95
392.496	5.71
392.861	5.64
393.226	5.89
393.591	5.87
393.956	6.03
394.32	5.86
394.685	6.11
395.05	5.79
395.414	6.08
395.779	5.73
396.143	5.89
396.508	5.71
396.872	5.94
397.236	5.63
397.601	5.91
397.965	6.13
398.329	5.81
398.694	6.11
399.058	5.94
399.422	6.07
399.786	5.9
400.15	5.95
400.514	6.18
400.878	5.98
401.242	5.98
401.605	6.21
401.969	6.18
402.333	6.01
402.697	6.24
403.06	6.1
403.424	6.01
403.787	6.21
404.151	6.06
404.514	6.1
404.878	5.89
405.241	5.96
405.604	6.22
405.968	6.04
406.331	6.16
406.694	5.87
407.057	6.01
407.42	5.98
407.783	5.93
408.146	5.94
408.509	6.1
408.872	5.92
409.235	5.9
409.598	6.12
409.961	6.23
410.323	6.35
410.686	6.35
411.049	6.07
411.411	5.98
411.774	5.97
412.136	6.07
412.499	6.18
412.861	6.06
413.223	6.12
413.586	5.99
413.948	6.21
414.31	6.14
414.672	5.93
415.035	6.17
415.397	6.27
415.759	6.31
416.121	6.2
416.483	6.06
416.845	6.4
417.206	6.08
417.568	6.26
417.93	6.05
418.292	6.25
418.653	6.16
419.015	6.25
419.377	6.21
419.738	6.2
420.1	6.14
420.461	6.15
420.822	6.05
421.184	6.04
421.545	6.11
421.906	6.08
422.267	6.2
422.629	6.12
422.99	6.06
423.351	6.01
423.712	5.98
424.073	6.03
424.434	6.03
424.795	6.04
425.155	6.08
425.516	6.06
425.877	6.08
426.238	6.1
426.598	6.04
426.959	6.08
427.32	6
427.68	6.07
428.041	6.19
428.401	6.08
428.761	6.02
429.122	6.22
429.482	6.11
429.842	6.06
430.202	6.22
430.563	6.05
430.923	6.3
431.283	6.13
431.643	6.25
432.003	6.23
432.363	6.25
432.722	6.45
433.082	6.09
433.442	6.29
433.802	6.37
434.161	6.34
434.521	6.2
434.881	6.3
435.24	6.17
435.6	6.22
435.959	6.33
436.319	6.26
436.678	6.14
437.037	6.35
437.396	6.36
437.756	6.19
438.115	6.3
438.474	6.2
438.833	6.38
439.192	6.32
439.551	6.22
439.91	6.31
440.269	6.39
440.628	6.25
440.987	6.31
441.345	6.36
441.704	6.32
442.063	6.45
442.421	6.16
442.78	6.22
443.138	6.15
443.497	6.05
443.855	6.15
444.214	6.25
444.572	6.28
444.93	6.12
445.288	6.23
445.647	6.45
446.005	6.3
446.363	6.29
446.721	6.35
447.079	6.31
447.437	6.31
447.795	6.24
448.153	6.16
448.51	6.18
448.868	6.17
449.226	6.23
449.584	6.2
449.941	6.32
450.299	6.23
450.656	6.21
451.014	6.31
451.371	6.26
451.729	6.25
452.086	6.33
452.443	6.27
452.801	6.34
453.158	6.21
453.515	6.41
453.872	6.32
454.229	6.24
454.586	6.27
454.943	6.19
455.3	6.26
455.657	6.21
456.014	6.44
456.371	6.31
456.727	6.39
457.084	6.14
457.441	6.4
457.797	6.3
458.154	6.47
458.51	6.32
458.867	6.46
459.223	6.54
459.58	6.37
459.936	6.5
460.292	6.35
460.648	6.27
461.005	6.37
461.361	6.35
461.717	6.29
462.073	6.28
462.429	6.22
462.785	6.3
463.141	6.32
463.496	6.41
463.852	6.26
464.208	6.47
464.564	6.27
464.919	6.45
465.275	6.45
465.631	6.39
465.986	6.49
466.342	6.41
466.697	6.39
467.052	6.4
467.408	6.43
467.763	6.41
468.118	6.46
468.473	6.59
468.829	6.45
469.184	6.38
469.539	6.39
469.894	6.36
470.249	6.49
470.603	6.35
470.958	6.56
471.313	6.44
471.668	6.46
472.023	6.47
472.377	6.38
472.732	6.41
473.086	6.39
473.441	6.38
473.795	6.5
474.15	6.45
474.504	6.44
474.859	6.38
475.213	6.44
475.567	6.55
475.921	6.3
476.275	6.55
476.63	6.67
476.984	6.49
477.338	6.47
477.692	6.51
478.045	6.46
478.399	6.53
478.753	6.34
479.107	6.42
479.461	6.45
479.814	6.37
480.168	6.57
480.521	6.38
480.875	6.36
481.228	6.5
481.582	6.27
481.935	6.43
482.289	6.28
482.642	6.16
482.995	6.47
483.348	6.46
483.701	6.4
484.055	6.43
484.408	6.41
484.761	6.41
485.114	6.42
485.466	6.28
485.819	6.1
486.172	5.98
486.525	5.93
486.878	6.02
487.23	6.03
487.583	6.24
487.936	6.32
488.288	6.42
488.641	6.35
488.993	6.29
489.345	6.23
489.698	6.16
490.05	6.09
490.402	6.11
490.754	6.09
491.107	6.12
491.459	6.18
491.811	6.33
492.163	6.42
492.515	6.42
492.866	6.45
493.218	6.36
493.57	6.16
493.922	6.14
494.274	6.03
494.625	6.12
494.977	6.27
495.328	6.21
495.68	6.24
496.031	6.42
496.383	6.44
496.734	6.35
497.086	6.5
497.437	6.55
497.788	6.57
498.139	6.4
498.49	6.42
498.842	6.33
499.193	6.28
499.544	6.39
499.894	6.35
500.245	6.45
500.596	6.38
500.947	6.52
501.298	6.46
501.648	6.4
501.999	6.45
502.35	6.6
502.7	6.57
503.051	6.49
503.401	6.52
503.752	6.39
504.102	6.42
504.452	6.54
504.803	6.47
505.153	6.54
505.503	6.7
505.853	6.43
506.203	6.36
506.553	6.57
506.903	6.38
507.253	6.55
507.603	6.52
507.953	6.57
508.303	6.55
508.652	6.5
509.002	6.44
509.352	6.55
509.701	6.51
510.051	6.47
510.4	6.35
510.75	6.43
511.099	6.45
511.449	6.48
511.798	6.53
512.147	6.46
512.496	6.58
512.846	6.58
513.195	6.63
513.544	6.46
513.893	6.53
514.242	6.52
514.591	6.52
514.939	6.36
515.288	6.51
515.637	6.5
515.986	6.45
516.334	6.56
516.683	6.45
517.032	6.49
517.38	6.46
517.729	6.55
518.077	6.56
518.426	6.61
518.774	6.61
519.122	6.59
519.47	6.48
519.819	6.55
520.167	6.53
520.515	6.46
520.863	6.33
521.211	6.4
521.559	6.43
521.907	6.35
522.255	6.47
522.602	6.41
522.95	6.58
523.298	6.5
523.645	6.62
523.993	6.45
524.341	6.47
524.688	6.54
525.036	6.55
525.383	6.55
525.73	6.49
526.078	6.63
526.425	6.7
526.772	6.65
527.119	6.53
527.466	6.51
527.814	6.48
528.161	6.41
528.508	6.38
528.854	6.53
529.201	6.5
529.548	6.58
529.895	6.56
530.242	6.43
530.588	6.3
530.935	6.19
531.282	6.14
531.628	6.14
531.975	6.32
532.321	6.27
532.667	6.31
533.014	6.47
533.36	6.45
533.706	6.42
534.052	6.55
534.399	6.67
534.745	6.56
535.091	6.46
535.437	6.34
535.783	6.23
536.129	6.16
536.474	6.36
536.82	6.36
537.166	6.51
537.512	6.43
537.857	6.58
538.203	6.65
538.549	6.46
538.894	6.51
539.239	6.4
539.585	6.44
539.93	6.5
540.276	6.56
540.621	6.51
540.966	6.64
541.311	6.54
541.656	6.63
542.001	6.67
542.346	6.62
542.691	6.6
543.036	6.48
543.381	6.32
543.726	6.3
544.071	6.19
544.415	6.31
544.76	6.33
545.105	6.4
545.449	6.41
545.794	6.42
546.138	6.49
546.483	6.58
546.827	6.62
547.171	6.53
547.516	6.63
547.86	6.61
548.204	6.64
548.548	6.58
548.892	6.61
549.236	6.47
549.58	6.59
549.924	6.44
550.268	6.52
550.612	6.57
550.956	6.58
551.3	6.7
551.643	6.68
551.987	6.7
552.33	6.73
552.674	6.45
553.017	6.76
553.361	6.81
553.704	6.84
554.048	6.86
554.391	6.68
554.734	6.54
555.077	6.48
555.42	6.59
555.764	6.56
556.107	6.49
556.45	6.61
556.793	6.61
557.135	6.74
557.478	6.69
557.821	6.6
558.164	6.55
558.507	6.72
558.849	6.78
559.192	6.64
559.534	6.6
559.877	6.69
560.219	6.7
560.562	6.66
560.904	6.64
561.246	6.7
561.589	6.7
561.931	6.62
562.273	6.72
562.615	6.81
562.957	6.46
563.299	6.65
563.641	6.48
563.983	6.69
564.325	6.65
564.667	6.68
565.008	6.76
565.35	6.61
565.692	6.59
566.033	6.57
566.375	6.56
566.716	6.73
567.058	6.67
567.399	6.68
567.741	6.74
568.082	6.74
568.423	6.72
568.764	6.53
569.105	6.66
569.447	6.63
569.788	6.69
570.129	6.7
570.47	6.51
570.811	6.47
571.151	6.7
571.492	6.45
571.833	6.64
572.174	6.66
572.514	6.64
572.855	6.72
573.195	6.71
573.536	6.52
573.876	6.48
574.217	6.52
574.557	6.62
574.898	6.51
575.238	6.82
575.578	6.64
575.918	6.6
576.258	6.64
576.598	6.7
576.938	6.65
577.278	6.58
577.618	6.74
577.958	6.6
578.298	6.51
578.638	6.75
578.977	6.7
579.317	6.41
579.657	6.35
579.996	6.83
580.336	6.87
580.675	6.95
581.014	6.58
581.354	6.71
581.693	6.82
582.032	6.62
582.372	6.81
582.711	6.43
583.05	6.7
583.389	6.66
583.728	6.65
584.067	6.57
584.406	6.67
584.745	6.59
585.083	6.45
585.422	6.54
585.761	6.83
586.1	6.63
586.438	6.94
586.777	6.77
587.115	6.49
587.454	6.84
587.792	6.63
588.13	6.82
588.469	6.9
588.807	6.66
589.145	6.61
589.483	6.81
589.821	6.46
590.159	6.81
590.497	6.77
590.835	6.55
591.173	6.68
591.511	6.83
591.849	6.66
592.187	6.49
592.524	6.6
592.862	6.62
593.2	6.65
593.537	6.6
593.875	6.73
594.212	6.53
594.55	6.47
594.887	6.41
595.224	6.8
595.561	6.68
595.899	6.88
596.236	6.73
596.573	6.89
596.91	6.61
597.247	6.78
597.584	6.73
597.921	6.66
598.258	6.63
598.594	6.71
598.931	6.84
599.268	6.54
599.604	6.41
599.941	6.53
600.277	6.47
600.614	6.39
600.95	6.77
601.287	6.62
601.623	6.82
601.959	6.29
602.296	6.58
602.632	6.44
602.968	6.77
603.304	6.71
603.64	6.93
603.976	6.79
604.312	6.85
604.648	6.71
604.984	6.63
605.319	6.82
605.655	6.66
605.991	6.44
606.326	6.79
606.662	6.76
606.998	6.71
607.333	6.54
607.668	6.49
608.004	6.46
608.339	6.78
608.674	6.87
609.01	6.83
609.345	6.45
609.68	6.52
610.015	6.78
610.35	6.6
610.685	6.76
611.02	6.67
611.355	6.61
611.689	6.6
612.024	6.55
612.359	6.48
612.694	6.34
613.028	6.4
613.363	6.72
613.697	6.43
614.032	6.8
614.366	6.64
614.7	6.45
615.035	6.49
615.369	6.96
615.703	6.49
616.037	6.65
616.371	6.73
616.705	6.44
617.039	6.66
617.373	6.48
617.707	6.67
618.041	6.31
618.375	6.52
618.709	6.56
619.042	6.49
619.376	6.54
619.71	6.8
620.043	6.7
620.377	6.82
620.71	6.48
621.043	6.73
621.377	6.36
621.71	6.52
622.043	6.45
622.376	7.02
622.709	6.99
623.043	6.68
623.376	6.66
623.709	6.65
624.041	6.44
624.374	6.83
624.707	6.68
625.04	6.68
625.373	7.02
625.705	6.75
626.038	7
626.37	6.5
626.703	6.73
627.035	6.89
627.368	6.6
627.7	6.84
628.032	6.98
628.365	6.61
628.697	6.97
629.029	6.97
629.361	6.95
629.693	6.77
630.025	6.79
630.357	6.86
630.689	6.34
631.021	6.56
631.353	6.7
631.684	6.69
632.016	6.67
632.348	6.71
632.679	6.32
633.011	6.83
633.342	6.59
633.674	6.85
634.005	6.62
634.336	6.65
634.668	6.76
634.999	6.82
635.33	7
635.661	6.48
635.992	6.82
636.323	6.85
636.654	6.63
636.985	6.68
637.316	6.81
637.647	6.8
637.977	6.95
638.308	6.44
638.639	7.06
638.969	6.66
639.3	6.89
639.63	6.78
639.961	6.46
640.291	6.3
640.622	6.83
640.952	6.81
641.282	6.83
641.612	6.87
641.943	6.83
642.273	6.84
642.603	6.44
642.933	6.84
643.263	6.86
643.592	6.83
643.922	6.78
644.252	7.03
644.582	6.52
644.911	7.03
645.241	6.69
645.571	6.68
645.9	7.03
646.23	6.71
646.559	6.89
646.888	7.04
647.218	6.46
647.547	6.48
647.876	6.56
648.205	6.55
648.534	6.59
648.863	6.88
649.192	6.64
649.521	6.58
649.85	6.71
650.179	6.93
650.508	6.76
650.837	6.21
651.165	6.62
651.494	7.07
651.822	7
652.151	6.75
652.479	6.66
652.808	6.82
653.136	6.63
653.465	6.5
653.793	7.12
654.121	6.95
654.449	6.75
654.777	6.82
655.105	6.97
655.433	6.55
655.761	7.04
656.089	6.41
656.417	6.98
656.745	6.72
657.073	7.08
657.4	6.44
657.728	7.09
658.056	6.95
658.383	6.89
658.711	6.79
659.038	6.82
659.365	6.59
659.693	6.78
660.02	7.12
660.347	7.07
660.674	7.14
661.001	6.42
661.329	6.84
661.656	6.54
661.982	6.86
662.309	6.74
662.636	6.96
662.963	6.25
663.29	6.61
663.616	6.76
663.943	6.96
664.27	7.07
664.596	7.16
664.923	6.65
665.249	7
665.576	6.98
665.902	6.78
666.228	6.77
666.554	6.83
666.881	7.22
667.207	6.96
667.533	6.7
667.859	6.74
668.185	7.12
668.511	6.97
668.837	6.68
669.162	6.96
669.488	6.52
669.814	6.93
670.139	7.24
670.465	6.64
670.791	7.34
671.116	6.74
671.442	6.78
671.767	6.69
672.092	7.21
672.418	7
672.743	6.96
673.068	6.84
673.393	6.53
673.718	6.79
674.043	6.73
674.368	6.89
674.693	6.91
675.018	7.14
675.343	6.61
675.667	6.99
675.992	7.14
676.317	6.93
676.641	6.98
676.966	7.04
677.29	7.13
677.615	6.89
677.939	7.31
678.264	7.39
678.588	6.7
678.912	7.13
679.236	7.46
679.56	6.3
679.885	6.95
680.209	6.95
680.532	6.9
680.856	7.4
681.18	6.49
681.504	6.77
681.828	6.95
682.152	7.18
682.475	6.73
682.799	7.33
683.122	7.14
683.446	6.7
683.769	7.32
684.093	7.24
684.416	7.22
684.739	6.45
685.062	6.67
685.386	7.32
685.709	6.59
686.032	6.96
686.355	6.65
686.678	7.4
687.001	7.08
687.324	6.81
687.646	6.64
687.969	6.96
688.292	7.74
688.614	7.35
688.937	7
689.26	6.57
689.582	6.71
689.904	6.79
690.227	6.6
690.549	7.54
690.871	6.31
691.194	7.04
691.516	6.95
691.838	6.94
692.16	7.1
692.482	7.18
692.804	7.28
693.126	7.57
693.448	7.02
693.769	7.45
694.091	6.93
694.413	7.66
694.735	6.93
695.056	7.04
695.378	7.58
695.699	7.17
696.021	6.15
696.342	7.06
696.663	7
696.984	7.12
697.306	6.99
697.627	7.92
697.948	7.03
698.269	7.16
698.59	6.68
698.911	6.85
699.232	7.68
699.553	7.38
699.873	7.17
700.194	7.6
700.515	7.25
700.835	6.94
701.156	7.21
701.477	6.84
701.797	6.73
702.117	7.21
702.438	7.35
702.758	7
703.078	7.01
703.398	6.97
703.719	7.1
704.039	7.66
704.359	7.95
704.679	7.1
704.999	6.91
705.319	7.62
705.638	7.61
705.958	7.61
706.278	7.92
706.597	7.03
706.917	7.37
707.237	5.84
707.556	7.17
707.876	7.65
708.195	6.7
708.514	6.6
708.834	6.95
709.153	6.98
709.472	6.97
709.791	7
710.11	7.49
710.429	8.82
710.748	7.49
711.067	6.9
711.386	8.37
711.705	7.25
712.023	7.06
712.342	6.73
712.661	6.71
712.979	7.49
713.298	7.38
713.616	6.32
713.935	7.14
714.253	7.02
714.572	8.16
714.89	6.81
715.208	6.75
715.526	6.66
715.844	8.38
716.162	7.58
716.48	6.74
716.798	7.75
717.116	7.47
717.434	7.1
717.752	7.01
718.069	6.85
718.387	7.51
718.705	6.94
719.022	6.4
719.34	7.92
719.657	7.89
719.975	7.32
720.292	6.52
720.609	6.85
720.927	7.46
721.244	7.63
721.561	6.68
721.878	7.82
722.195	7.15
722.512	7.95
722.829	7.29
723.146	6.3
723.463	7.4
723.779	6.79
724.096	7.8
724.413	8.54
724.729	7.89
725.046	8.48
725.362	7.83
725.679	7.82
725.995	6.26
726.311	7.76
726.628	7.83
726.944	7.49
727.26	7.6
727.576	7.73
727.892	7.56
728.208	5.38
728.524	7.42
728.84	5.91
729.156	9.06
729.472	6.92
729.787	7.16
730.103	7.61
730.419	7.91
730.734	8.76
731.05	7.32
731.365	7.57
731.681	7.65
731.996	7.79
732.311	7.23
732.626	7.94
732.942	7.73
733.257	7.95
733.572	7.75
733.887	8.63
734.202	7.63
734.517	8.33
734.832	6.25
735.146	7.68
735.461	6.51
735.776	7.47
736.091	6.21
736.405	6.71
736.72	7.08
737.034	6.83
737.349	9.09
737.663	7.48
737.977	7.74
738.292	7.76
738.606	7.18
738.92	6.92
739.234	7.69
739.548	7.59
739.862	7.87
740.176	7.78
740.49	7.16
740.804	8.74
741.117	7.43
741.431	7.81
741.745	7.55
742.058	9.07
742.372	5.88
742.685	6.83
742.999	6.29
743.312	8.03
743.626	6.35
743.939	6.49
744.252	8.82
744.565	8.99
744.878	8.79
745.191	8.12
745.505	9.88
745.817	8.53
746.13	8.65
746.443	9.13
746.756	7.58
747.069	8.6
747.381	8.49
747.694	9.52
748.007	7.55
748.319	7.96
748.632	6.11
748.944	8.62
749.256	6.55
749.569	8.86
749.881	8.32
750.193	8.69
750.505	7.83
750.817	9.82
751.129	7.65
751.441	9.01
751.753	7.78
752.065	7.51
752.377	8.31
752.689	8.18
753	9.08
753.312	8.15
753.624	7.63
753.935	8.62
754.247	8.67
754.558	9.65
754.869	7.49
755.181	7.25
755.492	8.53
755.803	8.03
756.114	9.88
756.425	7.16
756.736	6.85
757.047	7.42
757.358	7.94
757.669	9.32
757.98	10.03
758.291	8.62
758.601	8.29
758.912	8
759.223	7.38
759.533	8.79
759.844	7.31
760.154	9.65
760.464	6.49
760.775	8.59
761.085	7.98
761.395	7.9
761.705	8.61
762.016	7.95
762.326	7.56
762.636	9.62
762.945	7.11
763.255	7.43
763.565	8.71
763.875	7.94
764.185	6.71
764.494	9.33
764.804	8.44
765.113	9.09
765.423	9.71
765.732	8.96
766.042	9.28
766.351	8.48
766.66	7.68
766.97	8.33
767.279	8.89
767.588	6.72
767.897	8.71
768.206	9.4
768.515	9.02
768.824	9
769.133	8.87
769.441	7.09
769.75	7.53
770.059	7.85
770.367	8.76
770.676	7.66
770.984	7.58
771.293	8.96
771.601	6.15
771.91	8.48
772.218	8.11
772.526	8.09
772.834	8.91
773.142	9.63
773.45	8.22
773.758	7.27
774.066	8.32
774.374	6.32
774.682	8.94
774.99	5.94
775.298	8.09
775.605	10.88
775.913	5.81
776.22	8.39
776.528	6.69
776.835	6.29
777.143	10.16
777.45	6.77
777.757	9.17
778.065	8.84
778.372	3.03
778.679	8.68
778.986	9.01
779.293	5.16
779.6	7.54
779.907	10.49
780.214	7.22
780.52	9.79
780.827	6.97
781.134	9.1
781.44	9.81
781.747	6.34
782.053	4.05
782.36	10.58
782.666	7.67
782.973	5.82
783.279	9.83
783.585	8.39
783.891	8.57
784.197	6.93
784.503	7.49
784.809	8.56
785.115	6.22
785.421	8.13
785.727	7.39
786.033	9.65
786.339	8.39
786.644	8.57
786.95	9.04
787.255	6.35
787.561	5.88
787.866	8.64
788.172	7.89
788.477	7.97
788.782	5.6
789.088	6.74
789.393	12.43
789.698	10.37
790.003	9.62
790.308	9.19
790.613	10.81
790.918	8.29
791.223	9.36
791.527	4.45
791.832	9.78
792.137	8.06
792.441	11.15
792.746	6.79
793.05	10.29
793.355	11.84
793.659	10.26
793.963	10.58
794.268	10.92
794.572	4.89
794.876	10.25
795.18	7.89
795.484	5.85
795.788	6.5
796.092	10.34
796.396	9.51
796.7	9.33
797.004	12.03
797.307	3.26
797.611	8.93
797.915	7.05
798.218	4.95
798.522	7.91
798.825	8.48
799.128	7.01
799.432	8.69
799.735	8.97
800.038	8.13
800.341	10.42
800.644	6.2
800.947	10.67
801.25	7.98
801.553	8.9
801.856	9.56
802.159	5.65
802.462	10.76
802.764	10.94
803.067	9.97
803.37	8.91
803.672	9.06
803.975	12.29
804.277	12.83
804.579	12.7
804.882	7.9
805.184	11.1
805.486	11.95
805.788	10.32
806.09	10.77
806.392	6.9
806.694	7.29
806.996	7.03
807.298	6.54
807.6	8.23
807.902	12.35
808.203	6.96
808.505	11.7
808.807	7.26
809.108	8.34
809.409	9.07
809.711	13.24
810.012	10.32
810.313	9.19
810.615	7.55
810.916	6.74
811.217	8.65
811.518	6.08
811.819	13.1
812.12	9.24
812.421	10.6
812.722	11.38
813.023	8.6
813.323	13.36
813.624	10.71
813.925	7.06
814.225	8.99
814.526	9.78
814.826	13.34
815.126	2.75
815.427	10.06
815.727	5.25
816.027	5.9
816.327	10.62
816.627	7.5
816.927	10.94
817.227	8.99
817.527	9.73
817.827	6.37
818.127	9.86
818.427	10.44
818.727	7.56
819.026	12.57
819.326	4.44
819.625	8.81
819.925	7.23
820.224	8.18
820.524	11.6
820.823	12.88
821.122	8.43
821.421	10.19
821.72	10.63
822.019	12.64
822.318	10.57
822.617	10.6
822.916	10.52
823.215	7.42
823.514	10.33
823.813	10.58
824.111	11.06
824.41	11.07
824.709	11.29
825.007	10.33
825.306	10.47
825.604	10.36
825.902	10.3
826.201	10.93
826.499	9.31
826.797	9.56
827.095	10.04
827.393	10.71
827.691	9.69
827.989	10.29
828.287	11.98
828.585	11.53
828.882	11.09
829.18	11.42
829.478	10.19
829.775	10.49
830.073	11.31
830.37	11.81
830.668	12.11
830.965	10.46
831.263	8.96
831.56	10.37
831.857	7.55
832.154	10.39
832.451	9.41
832.748	11.45
833.045	7.9
833.342	13.04
833.639	13.75
833.936	11.5
834.232	14.45
834.529	7.82
834.826	13.07
835.122	9.18
835.419	10.47
835.715	6.14
836.012	9.16
836.308	10.14
836.604	12.38
836.901	9.83
837.197	10.39
837.493	9.65
837.789	7.87
838.085	12.02
838.381	10.34
838.677	11.35
838.972	9.46
839.268	10.02
839.564	6.52
839.86	5.15
840.155	8.63
840.451	10.31
840.746	9.63
841.042	7.88
841.337	3.39
841.632	12.88
841.928	6.81
842.223	11.55
842.518	4.91
842.813	10.78
843.108	9.22
843.403	13.04
843.698	8.3
843.993	13
844.287	4.93
844.582	5.56
844.877	10.24
845.171	8.21
845.466	8.48
845.761	11.79
846.055	5.29
846.349	19.5
846.644	14.49
846.938	15.48
847.232	-4.11
847.526	9.44
847.82	3.44
848.114	-3.99
848.408	18.9
848.702	-10.93
848.996	3.95
849.29	3.59
849.584	-6.12
849.877	17.5
850.171	-7.33
850.465	19.9
850.758	7.67
851.052	-1.43
851.345	3.36
851.638	11.42
851.932	6.94
852.225	15.98
852.518	13.14
852.811	11.94
853.104	10.63
853.397	14.48
853.69	6.82
853.983	19.76
854.276	-25.04
854.569	6.16
854.861	1.31
855.154	4.24
855.447	-6.29
855.739	0.09
856.032	21.43
856.324	12.93
856.616	-14.67
856.909	-13.06
857.201	14.61
857.493	16.34
857.785	10.73
858.077	2.19
858.369	13.25
858.661	11.8
858.953	1.08
859.245	-1.99
859.537	5.62
859.829	14.49
860.12	19.88
860.412	4.52
860.703	20.93
860.995	18.41
861.286	-0.13
861.578	24.54
861.869	-3.78
862.16	-2.21
862.452	17.03
862.743	27.02
863.034	-3
863.325	-4.69
863.616	-10.43
863.907	2.96
864.198	-9.02
864.488	2.46
864.779	32.26
865.07	15.59
865.36	-10.38
865.651	11.09
865.941	-0.04
866.232	21.7
866.522	-10.08
866.813	-6.86
867.103	12.59
867.393	14.03
867.683	-2.88
867.973	-7.78
868.263	3.67
868.553	8.04
868.843	2.74
869.133	-6.13
869.423	0.52
869.713	-11.25
870.002	6.86
870.292	7.76
870.582	-13.45
870.871	3.66
871.161	22.2
871.45	16.72
871.739	25.31
872.029	36.69
872.318	10.82
872.607	23.27
872.896	-1.37
873.185	-13.5
873.474	1.74
873.763	12.73
874.052	4.73
874.341	10.32
874.63	-27.18
874.918	-7.88
875.207	8.75
875.496	20.42
875.784	-15.27
876.073	15.5
876.361	13.53
876.649	-2.36
876.938	6.13
877.226	33.83
877.514	-6.65
877.802	-13.17
878.09	-9.41
878.378	13.67
878.666	21.4
878.954	15.33
879.242	21.18
879.53	-19.61
879.817	-2.74
880.105	1.08
880.392	8.79
880.68	19.03
880.967	10.5
881.255	-2.38
881.542	-9.96
881.83	9.73
882.117	-8.24
882.404	19.29
882.691	-4.59
882.978	10.14
883.265	17.18
883.552	9.52
883.839	4.88
884.126	20.62
884.413	3.87
884.699	14.3
884.986	10.2
885.273	12.53
885.559	12.53
885.846	12.53
