Data from 0227_chest_Reflection__1__01.txt Node

Date: Fri Oct 20 20:37:29 CDT 2023
User: ToomeyLab
Spectrometer: FLMS14357
Trigger mode: 0
Integration Time (sec): 1.000000E-2
Scans to average: 100
Electric dark correction enabled: true
Nonlinearity correction enabled: false
Boxcar width: 0
XAxis mode: Wavelengths
Number of Pixels in Spectrum: 2048
>>>>>Begin Spectral Data<<<<<
189.047	-64.37
189.435	-64.37
189.823	-64.37
190.211	189.97
190.599	49.89
190.987	325.74
191.375	26.21
191.763	-45.67
192.151	21.71
192.538	434.4
192.926	-52.09
193.314	71.69
193.702	5.71
194.089	128.85
194.477	674.39
194.864	60.2
195.252	-10.4
195.639	94.9
196.027	-149.82
196.414	39.39
196.801	115.7
197.189	30.81
197.576	-824.79
197.963	-450.93
198.351	19.95
198.738	-0.09
199.125	19.57
199.512	30.1
199.899	36.17
200.286	-21.74
200.673	5.54
201.06	20.11
201.447	-22.82
201.833	21.82
202.22	21.66
202.607	49.39
202.994	20.29
203.38	7.73
203.767	36.93
204.154	46.96
204.54	55.85
204.927	3.41
205.313	0.53
205.699	39.67
206.086	5.72
206.472	53.39
206.858	3.01
207.245	-26.72
207.631	24
208.017	8.82
208.403	5.88
208.789	32.74
209.175	19.64
209.561	-12.64
209.947	-7.58
210.333	18.92
210.719	3.22
211.105	-18.69
211.491	54.74
211.876	13.5
212.262	10.54
212.648	27.08
213.034	-7.14
213.419	6.89
213.805	0.47
214.19	8.13
214.576	1.27
214.961	21.8
215.346	29.82
215.732	24.89
216.117	-13.3
216.502	7.65
216.888	5.37
217.273	-14
217.658	2.05
218.043	19
218.428	0.02
218.813	2.13
219.198	0.61
219.583	-12.47
219.968	-0.25
220.353	13.85
220.738	12.13
221.122	-17.54
221.507	16.13
221.892	1.27
222.276	-0.78
222.661	24.97
223.046	13.26
223.43	-3.26
223.815	6.48
224.199	18.07
224.583	0.66
224.968	-0.92
225.352	-0.57
225.736	2.88
226.121	2.83
226.505	-0.55
226.889	1.9
227.273	1.92
227.657	10.95
228.041	3.52
228.425	3.47
228.809	3.36
229.193	3.58
229.577	4.13
229.961	2.74
230.344	4.09
230.728	3.18
231.112	4.05
231.495	3
231.879	4.35
232.263	5.1
232.646	2.32
233.03	3.15
233.413	2.97
233.797	3.59
234.18	3.81
234.563	5.5
234.946	7.08
235.33	4.85
235.713	3.13
236.096	4.41
236.479	4.41
236.862	4.86
237.245	3.04
237.628	4.01
238.011	3.76
238.394	2.88
238.777	5.5
239.16	4.4
239.543	6.97
239.925	6.16
240.308	4.01
240.691	5.5
241.073	5.51
241.456	3.33
241.838	3.56
242.221	4.52
242.603	3.29
242.986	3.82
243.368	3.81
243.75	3.57
244.133	3.18
244.515	3.19
244.897	3.43
245.279	3.78
245.661	3.36
246.043	3.69
246.425	3.53
246.807	3.39
247.189	3.43
247.571	2.21
247.953	3.92
248.335	4.01
248.717	3.16
249.098	3.28
249.48	3.18
249.862	3.53
250.243	3.59
250.625	3.63
251.006	3.37
251.388	3.7
251.769	4.01
252.151	3.45
252.532	3.75
252.913	3.96
253.295	2.59
253.676	3.35
254.057	3.34
254.438	3.7
254.819	3.2
255.2	3.83
255.581	2.46
255.962	3.87
256.343	4.18
256.724	2.25
257.105	4.96
257.486	4.26
257.867	3.75
258.247	4.63
258.628	2.69
259.009	3.74
259.389	2.55
259.77	2.85
260.15	3.31
260.531	3.85
260.911	3.81
261.292	2.93
261.672	3.45
262.052	3.28
262.432	3.33
262.813	3.23
263.193	3.6
263.573	2.92
263.953	3.14
264.333	3.29
264.713	4.05
265.093	3.56
265.473	3.61
265.853	3.03
266.233	3.77
266.612	2.88
266.992	3.96
267.372	3.55
267.752	2.46
268.131	3.45
268.511	3.43
268.89	3.5
269.27	3.57
269.649	2.92
270.029	3.34
270.408	3.74
270.787	3.23
271.167	3.12
271.546	3.5
271.925	3.81
272.304	4.02
272.683	3.44
273.062	3.41
273.441	3.45
273.82	3.03
274.199	3.78
274.578	3.2
274.957	3.44
275.336	3.21
275.715	3.42
276.093	3.18
276.472	3.56
276.851	3.42
277.229	3.3
277.608	2.71
277.986	3.46
278.365	4.08
278.743	3.31
279.122	3.01
279.5	3.21
279.878	2.7
280.257	3.33
280.635	3.61
281.013	3.97
281.391	3.59
281.769	3.53
282.147	3.1
282.525	3.73
282.903	3.25
283.281	3.52
283.659	3.16
284.037	3.46
284.415	2.7
284.792	2.74
285.17	3.39
285.548	2.89
285.925	3.32
286.303	3.08
286.68	3.08
287.058	4.04
287.435	3.46
287.813	2.92
288.19	3.05
288.567	3.3
288.945	3.47
289.322	3.39
289.699	3.02
290.076	3.7
290.453	3.15
290.83	3.29
291.207	3.63
291.584	2.8
291.961	2.86
292.338	3.06
292.715	3.52
293.092	3
293.469	3.38
293.845	2.7
294.222	3.09
294.599	3.11
294.975	3.89
295.352	3.34
295.728	3.61
296.105	3.47
296.481	3.68
296.858	3.19
297.234	3.42
297.61	2.97
297.986	3.44
298.363	3.6
298.739	3.56
299.115	3.2
299.491	3.25
299.867	3.42
300.243	3.46
300.619	3.34
300.995	3.65
301.371	3.84
301.746	3.53
302.122	3.63
302.498	2.96
302.874	3.57
303.249	3.54
303.625	3.68
304	3.98
304.376	2.88
304.751	3.18
305.127	2.83
305.502	3.71
305.878	3.22
306.253	3.54
306.628	3.43
307.003	3.08
307.378	3.46
307.754	3.49
308.129	3.66
308.504	3.82
308.879	3.76
309.254	3.89
309.629	3.19
310.003	2.77
310.378	3.27
310.753	3.84
311.128	3.71
311.502	3.31
311.877	3.52
312.252	3.42
312.626	3.73
313.001	3.26
313.375	3.23
313.75	3.75
314.124	3.39
314.498	3.96
314.873	3.58
315.247	3.29
315.621	3.86
315.995	3.77
316.369	3.38
316.743	3.65
317.117	3.8
317.491	3.06
317.865	4.08
318.239	3.69
318.613	3.66
318.987	3.36
319.361	3.07
319.734	3.29
320.108	3.39
320.482	3.71
320.855	3.24
321.229	4.17
321.602	3.43
321.976	3.4
322.349	3.81
322.723	2.9
323.096	3.72
323.469	3.25
323.843	3.62
324.216	3.81
324.589	4
324.962	3.56
325.335	3.61
325.708	3.52
326.081	3.96
326.454	3.41
326.827	3.73
327.2	3.73
327.573	4.19
327.945	3.76
328.318	3.23
328.691	3.84
329.063	3.79
329.436	3.25
329.809	3.55
330.181	3.9
330.553	4.11
330.926	3.43
331.298	3.61
331.671	3.17
332.043	3.32
332.415	3.83
332.787	3.95
333.159	3.54
333.532	3.56
333.904	3.73
334.276	3.21
334.648	3.76
335.02	4.23
335.391	3.67
335.763	3.77
336.135	3.43
336.507	3.57
336.879	3.68
337.25	3.72
337.622	3.96
337.993	4.05
338.365	3.95
338.736	3.47
339.108	4.3
339.479	3.43
339.851	3.45
340.222	3.63
340.593	3.2
340.964	3.58
341.336	4.08
341.707	3.32
342.078	3.76
342.449	3.81
342.82	3.44
343.191	3.67
343.562	4
343.933	3.87
344.303	3.89
344.674	3.89
345.045	3.93
345.416	4.33
345.786	3.61
346.157	3.65
346.527	3.8
346.898	3.77
347.268	3.83
347.639	3.77
348.009	3.72
348.38	3.78
348.75	3.55
349.12	3.95
349.49	3.58
349.861	3.93
350.231	2.95
350.601	3.54
350.971	4.01
351.341	3.6
351.711	4.55
352.081	3.73
352.45	3.65
352.82	3.75
353.19	4.12
353.56	3.67
353.929	3.42
354.299	3.84
354.669	3.47
355.038	3.88
355.408	3.81
355.777	3.95
356.147	3.61
356.516	3.94
356.885	3.86
357.254	3.82
357.624	3.75
357.993	3.66
358.362	3.78
358.731	3.73
359.1	3.34
359.469	3.67
359.838	4.08
360.207	3.38
360.576	4.03
360.945	3.39
361.314	4.03
361.682	3.65
362.051	3.41
362.42	3.63
362.788	3.81
363.157	3.71
363.525	3.7
363.894	3.85
364.262	3.82
364.631	3.91
364.999	3.88
365.367	4.01
365.735	3.79
366.104	3.69
366.472	3.83
366.84	4.02
367.208	3.98
367.576	3.73
367.944	3.88
368.312	3.73
368.68	3.8
369.048	3.82
369.416	4.03
369.783	4.32
370.151	3.98
370.519	3.93
370.886	4.23
371.254	4.23
371.621	4.18
371.989	3.31
372.356	3.99
372.724	3.74
373.091	3.96
373.458	3.78
373.826	3.91
374.193	3.82
374.56	3.98
374.927	3.9
375.294	4.14
375.661	3.97
376.028	4.03
376.395	4.14
376.762	3.88
377.129	4.2
377.496	3.99
377.863	4.48
378.229	4.15
378.596	3.97
378.963	3.94
379.329	4.03
379.696	3.98
380.062	4.07
380.429	3.91
380.795	3.85
381.161	3.84
381.528	4.31
381.894	3.81
382.26	4.22
382.626	4.28
382.993	4.26
383.359	4.01
383.725	4.09
384.091	4.05
384.457	4.42
384.823	4.25
385.188	4.08
385.554	4.2
385.92	3.85
386.286	4.07
386.651	3.91
387.017	4.25
387.383	3.92
387.748	3.82
388.114	3.7
388.479	3.97
388.845	4.2
389.21	4.13
389.575	3.75
389.94	4.02
390.306	3.91
390.671	3.92
391.036	3.61
391.401	4.18
391.766	4.15
392.131	4.01
392.496	4.02
392.861	4.05
393.226	3.96
393.591	3.85
393.956	4.16
394.32	4.29
394.685	4.2
395.05	4.14
395.414	4.27
395.779	4.06
396.143	3.98
396.508	3.83
396.872	4.13
397.236	4.09
397.601	4.2
397.965	3.91
398.329	3.92
398.694	4.17
399.058	4.04
399.422	4.05
399.786	4.15
400.15	3.94
400.514	3.88
400.878	4.25
401.242	4.26
401.605	4.16
401.969	4.06
402.333	4.35
402.697	4.38
403.06	4.12
403.424	4.03
403.787	4.25
404.151	4.21
404.514	4.18
404.878	4.33
405.241	4.25
405.604	3.99
405.968	4.13
406.331	4.03
406.694	4.07
407.057	4.17
407.42	4.38
407.783	4.21
408.146	4.29
408.509	4.14
408.872	4.37
409.235	3.97
409.598	4.05
409.961	4.24
410.323	3.94
410.686	4.02
411.049	4.36
411.411	4.15
411.774	4.32
412.136	4.16
412.499	4.16
412.861	4.34
413.223	4.33
413.586	4.26
413.948	4.18
414.31	4.07
414.672	4.27
415.035	4.08
415.397	4.26
415.759	4.32
416.121	4.19
416.483	4.35
416.845	4.19
417.206	4.33
417.568	4.4
417.93	4.34
418.292	4.03
418.653	4.12
419.015	4.12
419.377	4.19
419.738	4.33
420.1	4.05
420.461	4.09
420.822	4.17
421.184	4.21
421.545	4.11
421.906	4.11
422.267	4.04
422.629	4.11
422.99	4.02
423.351	4.12
423.712	4.12
424.073	4.23
424.434	4.09
424.795	4.12
425.155	4.1
425.516	4.15
425.877	4.26
426.238	4.05
426.598	4.24
426.959	4.1
427.32	4.17
427.68	4.17
428.041	4.22
428.401	4.21
428.761	4.21
429.122	4.19
429.482	4.27
429.842	4.27
430.202	4.27
430.563	4.3
430.923	4.27
431.283	4.37
431.643	4.31
432.003	4.55
432.363	4.19
432.722	4.38
433.082	4.32
433.442	4.27
433.802	4.42
434.161	4.17
434.521	4.41
434.881	4.32
435.24	4.35
435.6	4.3
435.959	4.25
436.319	4.23
436.678	4.41
437.037	4.36
437.396	4.5
437.756	4.35
438.115	4.18
438.474	4.35
438.833	4.45
439.192	4.3
439.551	4.41
439.91	4.25
440.269	4.35
440.628	4.44
440.987	4.31
441.345	4.25
441.704	4.36
442.063	4.33
442.421	4.38
442.78	4.35
443.138	4.38
443.497	4.49
443.855	4.39
444.214	4.42
444.572	4.3
444.93	4.52
445.288	4.38
445.647	4.61
446.005	4.3
446.363	4.42
446.721	4.33
447.079	4.42
447.437	4.35
447.795	4.33
448.153	4.38
448.51	4.45
448.868	4.32
449.226	4.3
449.584	4.43
449.941	4.34
450.299	4.42
450.656	4.44
451.014	4.51
451.371	4.5
451.729	4.44
452.086	4.46
452.443	4.63
452.801	4.46
453.158	4.58
453.515	4.46
453.872	4.45
454.229	4.6
454.586	4.59
454.943	4.61
455.3	4.45
455.657	4.5
456.014	4.4
456.371	4.47
456.727	4.61
457.084	4.64
457.441	4.47
457.797	4.58
458.154	4.54
458.51	4.64
458.867	4.5
459.223	4.56
459.58	4.57
459.936	4.45
460.292	4.59
460.648	4.36
461.005	4.37
461.361	4.53
461.717	4.32
462.073	4.54
462.429	4.5
462.785	4.59
463.141	4.68
463.496	4.57
463.852	4.59
464.208	4.74
464.564	4.75
464.919	4.55
465.275	4.9
465.631	4.7
465.986	4.81
466.342	4.68
466.697	4.56
467.052	4.69
467.408	4.75
467.763	4.73
468.118	4.85
468.473	4.74
468.829	4.62
469.184	4.76
469.539	4.58
469.894	4.86
470.249	4.8
470.603	4.75
470.958	4.78
471.313	4.98
471.668	4.85
472.023	4.84
472.377	4.75
472.732	4.58
473.086	4.91
473.441	4.88
473.795	4.93
474.15	4.73
474.504	4.65
474.859	4.64
475.213	4.84
475.567	4.94
475.921	4.81
476.275	4.81
476.63	5.01
476.984	4.86
477.338	4.75
477.692	4.95
478.045	4.93
478.399	4.84
478.753	4.75
479.107	4.86
479.461	4.81
479.814	5.05
480.168	4.99
480.521	4.83
480.875	4.87
481.228	4.86
481.582	4.96
481.935	4.87
482.289	4.82
482.642	4.95
482.995	4.81
483.348	4.86
483.701	4.74
484.055	4.79
484.408	4.79
484.761	4.69
485.114	4.63
485.466	4.59
485.819	4.53
486.172	4.48
486.525	4.59
486.878	4.67
487.23	4.71
487.583	4.75
487.936	4.71
488.288	4.78
488.641	4.79
488.993	4.72
489.345	4.67
489.698	4.7
490.05	4.67
490.402	4.69
490.754	4.76
491.107	4.8
491.459	4.88
491.811	4.87
492.163	4.89
492.515	4.85
492.866	4.93
493.218	4.8
493.57	4.73
493.922	4.74
494.274	4.82
494.625	4.86
494.977	4.92
495.328	5.07
495.68	5.1
496.031	4.93
496.383	5.07
496.734	5.07
497.086	5.09
497.437	5.13
497.788	4.98
498.139	5.17
498.49	5.11
498.842	4.98
499.193	5.17
499.544	5.14
499.894	5.09
500.245	5.07
500.596	5.05
500.947	5.17
501.298	5.22
501.648	5.19
501.999	5.17
502.35	5.18
502.7	5.31
503.051	5.41
503.401	5.27
503.752	5.37
504.102	5.24
504.452	5.23
504.803	5.26
505.153	5.34
505.503	5.2
505.853	5.36
506.203	5.27
506.553	5.22
506.903	5.38
507.253	5.32
507.603	5.34
507.953	5.39
508.303	5.27
508.652	5.48
509.002	5.35
509.352	5.37
509.701	5.42
510.051	5.38
510.4	5.33
510.75	5.34
511.099	5.38
511.449	5.34
511.798	5.46
512.147	5.42
512.496	5.49
512.846	5.4
513.195	5.56
513.544	5.41
513.893	5.37
514.242	5.43
514.591	5.51
514.939	5.39
515.288	5.41
515.637	5.55
515.986	5.65
516.334	5.4
516.683	5.64
517.032	5.47
517.38	5.5
517.729	5.62
518.077	5.58
518.426	5.57
518.774	5.42
519.122	5.57
519.47	5.57
519.819	5.46
520.167	5.5
520.515	5.49
520.863	5.52
521.211	5.6
521.559	5.6
521.907	5.61
522.255	5.69
522.602	5.72
522.95	5.61
523.298	5.74
523.645	5.83
523.993	5.65
524.341	5.89
524.688	5.9
525.036	5.89
525.383	5.68
525.73	5.93
526.078	5.77
526.425	5.95
526.772	5.74
527.119	5.73
527.466	5.73
527.814	5.74
528.161	5.64
528.508	5.77
528.854	5.81
529.201	5.75
529.548	5.75
529.895	5.73
530.242	5.59
530.588	5.59
530.935	5.6
531.282	5.68
531.628	5.76
531.975	5.76
532.321	5.84
532.667	5.89
533.014	6.01
533.36	5.95
533.706	5.98
534.052	5.97
534.399	5.94
534.745	5.86
535.091	5.87
535.437	5.89
535.783	5.94
536.129	6.02
536.474	6.08
536.82	6.19
537.166	6.14
537.512	6.28
537.857	6.21
538.203	6.13
538.549	6.21
538.894	6.21
539.239	6.22
539.585	6.22
539.93	6.33
540.276	6.37
540.621	6.44
540.966	6.42
541.311	6.48
541.656	6.42
542.001	6.46
542.346	6.49
542.691	6.29
543.036	6.22
543.381	6.14
543.726	6.21
544.071	6.28
544.415	6.36
544.76	6.43
545.105	6.4
545.449	6.42
545.794	6.52
546.138	6.54
546.483	6.61
546.827	6.58
547.171	6.61
547.516	6.66
547.86	6.74
548.204	6.65
548.548	6.62
548.892	6.61
549.236	6.77
549.58	6.7
549.924	6.8
550.268	6.92
550.612	6.9
550.956	7.04
551.3	6.99
551.643	6.97
551.987	7.02
552.33	6.98
552.674	7.12
553.017	7.11
553.361	7.15
553.704	7.17
554.048	7.17
554.391	7.11
554.734	7.25
555.077	7.17
555.42	7.11
555.764	7.19
556.107	7.31
556.45	7.34
556.793	7.22
557.135	7.17
557.478	7.41
557.821	7.46
558.164	7.45
558.507	7.46
558.849	7.63
559.192	7.5
559.534	7.47
559.877	7.43
560.219	7.51
560.562	7.62
560.904	7.61
561.246	7.7
561.589	7.6
561.931	7.73
562.273	7.63
562.615	7.84
562.957	7.82
563.299	7.78
563.641	7.85
563.983	7.78
564.325	7.8
564.667	7.87
565.008	7.87
565.35	7.87
565.692	7.79
566.033	7.96
566.375	7.98
566.716	8.03
567.058	7.93
567.399	8.03
567.741	7.9
568.082	8.12
568.423	8.01
568.764	8.05
569.105	8.1
569.447	8.24
569.788	7.97
570.129	8.48
570.47	8.22
570.811	8.29
571.151	8.38
571.492	8.45
571.833	8.49
572.174	8.45
572.514	8.45
572.855	8.41
573.195	8.38
573.536	8.27
573.876	8.55
574.217	8.38
574.557	8.36
574.898	8.37
575.238	8.51
575.578	8.66
575.918	8.53
576.258	8.72
576.598	8.69
576.938	8.7
577.278	8.62
577.618	8.56
577.958	8.67
578.298	8.65
578.638	8.85
578.977	8.89
579.317	8.84
579.657	9.08
579.996	9.13
580.336	9.13
580.675	9
581.014	8.99
581.354	9.22
581.693	9.19
582.032	9.22
582.372	9.25
582.711	9.39
583.05	9.38
583.389	9.42
583.728	9.39
584.067	9.43
584.406	9.53
584.745	9.43
585.083	9.6
585.422	9.5
585.761	9.68
586.1	9.83
586.438	9.49
586.777	9.7
587.115	9.81
587.454	9.58
587.792	9.91
588.13	10.11
588.469	9.81
588.807	9.63
589.145	9.95
589.483	9.87
589.821	10.1
590.159	10.08
590.497	10.08
590.835	10
591.173	9.93
591.511	10.1
591.849	9.99
592.187	9.97
592.524	10.03
592.862	10.29
593.2	10.26
593.537	10.25
593.875	10.28
594.212	10.42
594.55	10.4
594.887	10.59
595.224	10.29
595.561	10.55
595.899	10.59
596.236	10.56
596.573	10.61
596.91	10.41
597.247	10.55
597.584	10.57
597.921	10.85
598.258	10.7
598.594	10.78
598.931	10.27
599.268	10.59
599.604	10.73
599.941	10.62
600.277	10.8
600.614	11.01
600.95	10.76
601.287	10.91
601.623	10.94
601.959	11.05
602.296	11.07
602.632	11.13
602.968	10.8
603.304	11.48
603.64	11
603.976	11.09
604.312	11.42
604.648	11.52
604.984	11.39
605.319	11.38
605.655	11.2
605.991	11.17
606.326	11.25
606.662	11.32
606.998	11.23
607.333	11.39
607.668	11.1
608.004	11.68
608.339	11.52
608.674	11.68
609.01	11.9
609.345	11.89
609.68	11.9
610.015	11.89
610.35	11.81
610.685	12.34
611.02	11.86
611.355	11.73
611.689	11.62
612.024	12.07
612.359	12.03
612.694	12.09
613.028	12.06
613.363	11.95
613.697	12.39
614.032	12.41
614.366	11.99
614.7	12.51
615.035	12.42
615.369	12.6
615.703	12.15
616.037	12.56
616.371	12.81
616.705	12.61
617.039	12.7
617.373	12.76
617.707	12.92
618.041	12.89
618.375	12.81
618.709	12.41
619.042	13.24
619.376	13.34
619.71	13.16
620.043	13.3
620.377	12.87
620.71	13.04
621.043	13.42
621.377	13.11
621.71	13.3
622.043	13.1
622.376	13.44
622.709	13.28
623.043	13.42
623.376	13.49
623.709	13.31
624.041	13.37
624.374	13.46
624.707	13.28
625.04	13.26
625.373	13.58
625.705	13.26
626.038	13.32
626.37	13.36
626.703	13.59
627.035	13.46
627.368	13.76
627.7	14.06
628.032	13.59
628.365	13.79
628.697	14.01
629.029	13.77
629.361	13.73
629.693	13.99
630.025	14
630.357	14.11
630.689	14.07
631.021	14.29
631.353	14.27
631.684	14.22
632.016	14.26
632.348	14.38
632.679	14.17
633.011	14.24
633.342	14.36
633.674	14.77
634.005	14.49
634.336	14.59
634.668	14.34
634.999	14.77
635.33	14.28
635.661	14.92
635.992	14.87
636.323	15
636.654	14.67
636.985	14.96
637.316	14.88
637.647	14.86
637.977	14.87
638.308	14.85
638.639	14.55
638.969	15.02
639.3	15.17
639.63	15.46
639.961	15.16
640.291	14.95
640.622	15.26
640.952	15.34
641.282	15.66
641.612	15.43
641.943	15.83
642.273	15.53
642.603	15.62
642.933	15.51
643.263	16.02
643.592	15.74
643.922	15.73
644.252	15.59
644.582	15.62
644.911	15.93
645.241	16.05
645.571	15.88
645.9	16.16
646.23	16.31
646.559	15.86
646.888	16.02
647.218	15.78
647.547	15.87
647.876	16.08
648.205	16.23
648.534	16.15
648.863	16.44
649.192	15.85
649.521	16.4
649.85	16.14
650.179	16
650.508	16.22
650.837	16.56
651.165	16.52
651.494	16.33
651.822	16.64
652.151	16.78
652.479	16.6
652.808	16.57
653.136	16.29
653.465	16.41
653.793	16.73
654.121	17.2
654.449	16.88
654.777	16.91
655.105	16.82
655.433	17.83
655.761	17.1
656.089	17.22
656.417	17.04
656.745	17.57
657.073	17.03
657.4	17.79
657.728	17.34
658.056	17.7
658.383	17.16
658.711	16.89
659.038	17.7
659.365	17.23
659.693	17.81
660.02	17.16
660.347	17.44
660.674	17.71
661.001	17.31
661.329	17.58
661.656	17.85
661.982	17.41
662.309	17.61
662.636	17.98
662.963	17.89
663.29	17.95
663.616	18.27
663.943	17.79
664.27	18.42
664.596	17.64
664.923	17.85
665.249	17.84
665.576	17.77
665.902	18.41
666.228	18.48
666.554	18.91
666.881	18.34
667.207	17.92
667.533	18.12
667.859	18.37
668.185	18.66
668.511	18.7
668.837	18.56
669.162	18.83
669.488	18.64
669.814	17.9
670.139	18.25
670.465	18.49
670.791	18.71
671.116	18.59
671.442	18.78
671.767	18.6
672.092	18.77
672.418	19.08
672.743	18.95
673.068	19.9
673.393	19.03
673.718	18.95
674.043	18.89
674.368	19.61
674.693	20.03
675.018	19.9
675.343	19.92
675.667	19.15
675.992	19.95
676.317	19.63
676.641	19.57
676.966	19.92
677.29	20.36
677.615	19.85
677.939	19.2
678.264	19.87
678.588	19.31
678.912	20.01
679.236	19.32
679.56	19.66
679.885	20.39
680.209	19.43
680.532	19.65
680.856	19.45
681.18	20.6
681.504	19.86
681.828	20.02
682.152	19.88
682.475	20.16
682.799	20.5
683.122	20.08
683.446	20.37
683.769	20.19
684.093	20.09
684.416	20.64
684.739	19.93
685.062	19.52
685.386	20.46
685.709	20.21
686.032	20.44
686.355	20.95
686.678	20.67
687.001	20.51
687.324	20.27
687.646	20.28
687.969	21.19
688.292	21.01
688.614	20.84
688.937	21.15
689.26	20.86
689.582	20.94
689.904	21.07
690.227	21.17
690.549	21.72
690.871	21.28
691.194	21
691.516	21.32
691.838	22.14
692.16	21.1
692.482	20.49
692.804	21.35
693.126	21.41
693.448	21.93
693.769	21.5
694.091	21.83
694.413	21.32
694.735	21.51
695.056	21.85
695.378	22.27
695.699	22.38
696.021	21.64
696.342	22.65
696.663	22.01
696.984	21.32
697.306	23.12
697.627	21.55
697.948	22.03
698.269	21.6
698.59	21.96
698.911	21.61
699.232	21.07
699.553	22.36
699.873	22.43
700.194	22.32
700.515	21.92
700.835	22.46
701.156	22.28
701.477	22.23
701.797	21.36
702.117	21.97
702.438	22.55
702.758	22.37
703.078	22.89
703.398	22.5
703.719	22.88
704.039	23.2
704.359	22.45
704.679	22.64
704.999	22.31
705.319	22.76
705.638	21.72
705.958	22.77
706.278	22.55
706.597	22.36
706.917	22.01
707.237	23.61
707.556	22.49
707.876	22.69
708.195	24.26
708.514	22.79
708.834	22.4
709.153	23.35
709.472	23.55
709.791	24.05
710.11	22.73
710.429	23.32
710.748	23.6
711.067	21.86
711.386	22.57
711.705	23.72
712.023	24.01
712.342	22.95
712.661	23.24
712.979	23.46
713.298	24.08
713.616	23.6
713.935	23.13
714.253	23.98
714.572	23.42
714.89	23.4
715.208	24.07
715.526	23.64
715.844	22.82
716.162	24.14
716.48	24.44
716.798	23.74
717.116	23.55
717.434	23.55
717.752	23.54
718.069	24.05
718.387	24.09
718.705	24.02
719.022	24.38
719.34	24.31
719.657	24.16
719.975	24.01
720.292	24.2
720.609	25.07
720.927	24.73
721.244	24.78
721.561	25.76
721.878	24.89
722.195	25.08
722.512	25.73
722.829	25.83
723.146	23.9
723.463	24.79
723.779	24.92
724.096	25.42
724.413	26.22
724.729	25.48
725.046	27.38
725.362	25.12
725.679	24.78
725.995	25.08
726.311	26.73
726.628	25.38
726.944	26.48
727.26	25.9
727.576	25
727.892	25.92
728.208	24.97
728.524	25.28
728.84	26.02
729.156	26.46
729.472	25.06
729.787	25.99
730.103	25.54
730.419	26.36
730.734	25.43
731.05	24.59
731.365	24.95
731.681	26.24
731.996	25.98
732.311	27.02
732.626	25.95
732.942	25.6
733.257	25.89
733.572	26.04
733.887	26.64
734.202	25.61
734.517	26.73
734.832	24.95
735.146	26.69
735.461	25.95
735.776	26.07
736.091	25.81
736.405	25.18
736.72	27.04
737.034	25.59
737.349	27.74
737.663	27.13
737.977	28.21
738.292	25.29
738.606	27.23
738.92	27.81
739.234	26.15
739.548	26.75
739.862	26.39
740.176	26.68
740.49	27.02
740.804	28.31
741.117	27.81
741.431	27.92
741.745	26.51
742.058	25.61
742.372	27.08
742.685	27.32
742.999	26.18
743.312	28.68
743.626	26.91
743.939	28.33
744.252	26.71
744.565	27.26
744.878	25.84
745.191	28.5
745.505	26.09
745.817	25.89
746.13	27.59
746.443	29.41
746.756	29.29
747.069	26.91
747.381	27.81
747.694	27.1
748.007	26.76
748.319	28.14
748.632	27.75
748.944	28.35
749.256	26.91
749.569	28.02
749.881	29.1
750.193	27.48
750.505	27.86
750.817	28.15
751.129	28.02
751.441	27.77
751.753	26.81
752.065	28.12
752.377	28.17
752.689	29.58
753	27.79
753.312	25.79
753.624	26.56
753.935	28.41
754.247	28.11
754.558	28.95
754.869	30.49
755.181	29.44
755.492	27.98
755.803	28.85
756.114	26.18
756.425	28.51
756.736	29.16
757.047	28.35
757.358	28.54
757.669	30.1
757.98	28.11
758.291	27.46
758.601	28.11
758.912	29.25
759.223	26.42
759.533	30.94
759.844	29.78
760.154	29.14
760.464	30.32
760.775	29.63
761.085	28.47
761.395	28.68
761.705	29.45
762.016	29.68
762.326	29.99
762.636	30.99
762.945	29.72
763.255	30.96
763.565	29.27
763.875	28.72
764.185	29.2
764.494	28.51
764.804	28.73
765.113	29.53
765.423	29.33
765.732	29.2
766.042	29.57
766.351	29.75
766.66	29.53
766.97	30.22
767.279	29.52
767.588	29.73
767.897	28.7
768.206	30.61
768.515	30.63
768.824	30.35
769.133	29.31
769.441	29.19
769.75	29.04
770.059	29.75
770.367	31.01
770.676	33.03
770.984	28.13
771.293	30
771.601	31.73
771.91	29.21
772.218	30.23
772.526	29.19
772.834	30.07
773.142	28.88
773.45	28.67
773.758	27.29
774.066	33.21
774.374	28.61
774.682	32.36
774.99	29.69
775.298	27.62
775.605	30.25
775.913	31.93
776.22	25.67
776.528	31.49
776.835	33.1
777.143	27.34
777.45	31.94
777.757	30.55
778.065	31.4
778.372	32.74
778.679	31.43
778.986	31.74
779.293	33.1
779.6	31.17
779.907	31.43
780.214	29.1
780.52	31.47
780.827	30.73
781.134	30.76
781.44	27.94
781.747	31.64
782.053	35.03
782.36	29.6
782.666	30.43
782.973	30.62
783.279	28.45
783.585	28.11
783.891	28.32
784.197	35
784.503	33.73
784.809	32.25
785.115	32.52
785.421	30.2
785.727	32.42
786.033	32.33
786.339	31
786.644	32.16
786.95	34.21
787.255	31.18
787.561	31.13
787.866	30.16
788.172	34.23
788.477	32.68
788.782	34.12
789.088	31.21
789.393	29.85
789.698	27.35
790.003	30.17
790.308	34.47
790.613	30.86
790.918	33.17
791.223	30.52
791.527	28.96
791.832	35.27
792.137	33.63
792.441	30.92
792.746	33.3
793.05	30.3
793.355	32.47
793.659	34.16
793.963	33.83
794.268	30.44
794.572	32.46
794.876	33.91
795.18	27.13
795.484	30.99
795.788	36.34
796.092	27.94
796.396	29.53
796.7	32.1
797.004	29.24
797.307	34.6
797.611	33.6
797.915	30.71
798.218	28.34
798.522	29.65
798.825	34.58
799.128	36.03
799.432	33.3
799.735	36.39
800.038	34.49
800.341	32.32
800.644	40.03
800.947	32.37
801.25	30.27
801.553	36.41
801.856	34.45
802.159	34.31
802.462	35.3
802.764	33.93
803.067	33.96
803.37	28.44
803.672	35.27
803.975	34.55
804.277	35.12
804.579	26.23
804.882	34.52
805.184	35.2
805.486	31.57
805.788	34.23
806.09	35.81
806.392	36.65
806.694	35.18
806.996	34.34
807.298	34.03
807.6	30.72
807.902	34.17
808.203	36.77
808.505	37.07
808.807	32.17
809.108	29.85
809.409	33.03
809.711	34.6
810.012	34.45
810.313	35.6
810.615	26.69
810.916	30.12
811.217	32.94
811.518	34.92
811.819	31.89
812.12	36.94
812.421	31.07
812.722	35.12
813.023	43.71
813.323	29.62
813.624	31.96
813.925	33.94
814.225	32.87
814.526	37.42
814.826	37.6
815.126	36.26
815.427	35.05
815.727	40.46
816.027	35.64
816.327	36.65
816.627	34.51
816.927	36.51
817.227	30.84
817.527	35.31
817.827	36.27
818.127	34.94
818.427	33.62
818.727	30.97
819.026	31.64
819.326	39.94
819.625	33
819.925	39.8
820.224	38.79
820.524	37.36
820.823	32.15
821.122	33.53
821.421	35.53
821.72	42.11
822.019	34.51
822.318	36.44
822.617	30.38
822.916	39.15
823.215	38.63
823.514	34.81
823.813	35.02
824.111	36.44
824.41	36.36
824.709	36.66
825.007	35.09
825.306	36.07
825.604	36.64
825.902	35.97
826.201	36.92
826.499	37.46
826.797	36.27
827.095	36.19
827.393	35.98
827.691	37.58
827.989	36.88
828.287	37.46
828.585	38.95
828.882	36.46
829.18	33.71
829.478	36.06
829.775	37.52
830.073	35.43
830.37	38.06
830.668	36.65
830.965	36.38
831.263	36.21
831.56	38.26
831.857	35.96
832.154	38.22
832.451	37.7
832.748	36.45
833.045	33.56
833.342	40.61
833.639	36.01
833.936	38.39
834.232	33.53
834.529	38.01
834.826	31.02
835.122	34.57
835.419	38.98
835.715	33.99
836.012	35.1
836.308	34.96
836.604	38.12
836.901	37.58
837.197	38.92
837.493	38.6
837.789	37.83
838.085	36.46
838.381	36.74
838.677	37.08
838.972	36.45
839.268	35.24
839.564	36.05
839.86	37.5
840.155	38.5
840.451	43.31
840.746	35.49
841.042	40.05
841.337	30.03
841.632	33.78
841.928	34.31
842.223	41.26
842.518	35.28
842.813	36.48
843.108	38.36
843.403	42.4
843.698	40.81
843.993	34.86
844.287	40.62
844.582	39.32
844.877	39.64
845.171	37.6
845.466	35.67
845.761	36.43
846.055	35.43
846.349	40.57
846.644	39.75
846.938	44.71
847.232	36.66
847.526	40.6
847.82	17.76
848.114	38.98
848.408	54.51
848.702	27.02
848.996	46.07
849.29	33.66
849.584	26.81
849.877	34
850.171	60.59
850.465	38.89
850.758	49.37
851.052	34.05
851.345	49.67
851.638	27.78
851.932	44.82
852.225	44.28
852.518	35.15
852.811	33.79
853.104	36.63
853.397	51.62
853.69	32.77
853.983	36.3
854.276	33.5
854.569	52.05
854.861	30.42
855.154	46.42
855.447	25.73
855.739	42.39
856.032	43.66
856.324	23.47
856.616	33.76
856.909	38.49
857.201	37.63
857.493	25.36
857.785	25.69
858.077	42.16
858.369	47.38
858.661	30.38
858.953	33.6
859.245	8.59
859.537	40.53
859.829	22.86
860.12	50.54
860.412	25.99
860.703	31.5
860.995	52.06
861.286	46.16
861.578	21.49
861.869	-2.72
862.16	37.18
862.452	33.59
862.743	48.72
863.034	32.72
863.325	45.3
863.616	-11.38
863.907	53.8
864.198	49.21
864.488	28.15
864.779	48.91
865.07	25.94
865.36	32.52
865.651	44.77
865.941	32.5
866.232	29.14
866.522	27.41
866.813	25.32
867.103	37.52
867.393	35.83
867.683	51.88
867.973	48.9
868.263	50.92
868.553	49.75
868.843	14.37
869.133	51.98
869.423	27.82
869.713	31.33
870.002	51.31
870.292	21.65
870.582	52.56
870.871	20.65
871.161	32.39
871.45	42.06
871.739	25.76
872.029	41.97
872.318	31.53
872.607	53.91
872.896	27.54
873.185	52.3
873.474	67.86
873.763	28.15
874.052	58.7
874.341	41.46
874.63	53.85
874.918	35.07
875.207	61.28
875.496	38.13
875.784	11.48
876.073	15.8
876.361	26.17
876.649	37.63
876.938	35.36
877.226	43.44
877.514	36.02
877.802	27.01
878.09	27.74
878.378	53.31
878.666	45.34
878.954	17.22
879.242	27.37
879.53	36.1
879.817	58.41
880.105	13.02
880.392	53.75
880.68	58.91
880.967	60.66
881.255	51.05
881.542	51.57
881.83	40.18
882.117	81.54
882.404	30.34
882.691	51.22
882.978	45.79
883.265	58.26
883.552	29.07
883.839	31.89
884.126	44.36
884.413	27.84
884.699	34.14
884.986	52.16
885.273	38.73
885.559	38.73
885.846	38.73
