Data from 0227_crown_Reflection__1__06.txt Node

Date: Fri Oct 20 20:39:40 CDT 2023
User: ToomeyLab
Spectrometer: FLMS14357
Trigger mode: 0
Integration Time (sec): 1.000000E-2
Scans to average: 100
Electric dark correction enabled: true
Nonlinearity correction enabled: false
Boxcar width: 0
XAxis mode: Wavelengths
Number of Pixels in Spectrum: 2048
>>>>>Begin Spectral Data<<<<<
189.047	215.83
189.435	215.83
189.823	215.83
190.211	1356.75
190.599	83.91
190.987	220.64
191.375	-181.24
191.763	265.85
192.151	120.88
192.538	755.97
192.926	207.2
193.314	10.2
193.702	57.02
194.089	155.22
194.477	849.86
194.864	67.82
195.252	288.9
195.639	-71.93
196.027	249.2
196.414	55.7
196.801	-84.24
197.189	-4.83
197.576	-747.22
197.963	-282.23
198.351	27.19
198.738	14.55
199.125	39.09
199.512	36.94
199.899	18.27
200.286	-7.13
200.673	39.37
201.06	18.62
201.447	-4.56
201.833	37.34
202.22	-6.97
202.607	44.48
202.994	22.49
203.38	-3.92
203.767	20
204.154	46.32
204.54	35.48
204.927	29.31
205.313	18.52
205.699	26.78
206.086	34.62
206.472	46.09
206.858	40.63
207.245	-5.03
207.631	26.69
208.017	13.93
208.403	-5.04
208.789	65.33
209.175	-20.77
209.561	50.39
209.947	9.81
210.333	49.32
210.719	22.22
211.105	31.6
211.491	44.34
211.876	24.2
212.262	25.05
212.648	14.78
213.034	10.28
213.419	9.99
213.805	0.08
214.19	4.43
214.576	21.92
214.961	27
215.346	42.99
215.732	14.79
216.117	5.24
216.502	41.86
216.888	17.45
217.273	-11.31
217.658	19.44
218.043	26.52
218.428	20.06
218.813	29.23
219.198	-5.11
219.583	9.02
219.968	2.26
220.353	31.33
220.738	24.3
221.122	8.06
221.507	23.04
221.892	24.04
222.276	21.25
222.661	24.87
223.046	28.69
223.43	15.1
223.815	24.72
224.199	22.51
224.583	3.87
224.968	11.76
225.352	10.87
225.736	15
226.121	14.68
226.505	13.9
226.889	15.72
227.273	11.36
227.657	10.61
228.041	13.62
228.425	10.07
228.809	12.3
229.193	11.21
229.577	12.59
229.961	11.72
230.344	12.78
230.728	11.28
231.112	12.41
231.495	12.03
231.879	12.23
232.263	12.61
232.646	11.81
233.03	12.31
233.413	10.86
233.797	12.04
234.18	13.78
234.563	13.46
234.946	11.69
235.33	12.22
235.713	12.18
236.096	12.55
236.479	12.3
236.862	12.23
237.245	10.49
237.628	11.99
238.011	13.91
238.394	10.84
238.777	12.74
239.16	11.76
239.543	12.56
239.925	13.35
240.308	10.7
240.691	10.7
241.073	12.37
241.456	12.38
241.838	10.44
242.221	11.92
242.603	11.34
242.986	11.44
243.368	10.65
243.75	10.39
244.133	10.21
244.515	10.02
244.897	10.8
245.279	10.42
245.661	10.57
246.043	9.33
246.425	10.38
246.807	10.05
247.189	10.09
247.571	9.48
247.953	9.63
248.335	10.03
248.717	9.17
249.098	9.47
249.48	9.61
249.862	9.91
250.243	10.11
250.625	9.62
251.006	10
251.388	9.98
251.769	10.34
252.151	9.17
252.532	10.6
252.913	8.89
253.295	8.64
253.676	9.13
254.057	9.1
254.438	9.35
254.819	9.83
255.2	9.64
255.581	10.02
255.962	8.8
256.343	9.04
256.724	8.43
257.105	8.45
257.486	9.24
257.867	8.78
258.247	10.18
258.628	8.55
259.009	8.05
259.389	8.26
259.77	7.97
260.15	8.7
260.531	8.68
260.911	8.88
261.292	8.13
261.672	8.55
262.052	8.29
262.432	8.42
262.813	8.61
263.193	8.82
263.573	8.73
263.953	8.74
264.333	8.22
264.713	8.9
265.093	8.78
265.473	8.74
265.853	8.77
266.233	9.08
266.612	8.61
266.992	8.22
267.372	8.17
267.752	7.45
268.131	8.43
268.511	8.21
268.89	8.54
269.27	7.9
269.649	7.92
270.029	8.21
270.408	8.19
270.787	8.35
271.167	7.82
271.546	7.97
271.925	8.74
272.304	7.61
272.683	7.81
273.062	7.56
273.441	7.79
273.82	7.8
274.199	7.83
274.578	7.62
274.957	8.19
275.336	7.9
275.715	8.04
276.093	7.6
276.472	7.45
276.851	7.88
277.229	7.97
277.608	7.43
277.986	7.01
278.365	8.3
278.743	7.58
279.122	7.62
279.5	7.42
279.878	6.94
280.257	7.55
280.635	8.3
281.013	7.55
281.391	8.09
281.769	7.18
282.147	7.34
282.525	7.41
282.903	7.38
283.281	7.65
283.659	7.59
284.037	7.45
284.415	6.98
284.792	7.44
285.17	7.67
285.548	7.37
285.925	7.39
286.303	6.96
286.68	6.87
287.058	7.87
287.435	7.14
287.813	7.07
288.19	7.14
288.567	7.25
288.945	7.65
289.322	7.65
289.699	6.7
290.076	7.52
290.453	6.82
290.83	6.81
291.207	7.29
291.584	6.59
291.961	6.74
292.338	6.79
292.715	7.11
293.092	6.98
293.469	7.29
293.845	6.97
294.222	7.27
294.599	6.9
294.975	7.29
295.352	7.15
295.728	7.21
296.105	6.76
296.481	6.76
296.858	7.21
297.234	7.04
297.61	6.45
297.986	7.02
298.363	7.19
298.739	6.86
299.115	6.94
299.491	7.01
299.867	7.17
300.243	6.99
300.619	6.88
300.995	6.68
301.371	7.17
301.746	6.94
302.122	7.25
302.498	7.14
302.874	7.21
303.249	6.67
303.625	7.06
304	7.37
304.376	6.85
304.751	6.5
305.127	6.72
305.502	7.34
305.878	6.77
306.253	6.59
306.628	7.18
307.003	6.95
307.378	7
307.754	6.66
308.129	7.59
308.504	6.8
308.879	6.89
309.254	7.43
309.629	6.48
310.003	6.59
310.378	7.02
310.753	7.02
311.128	7.1
311.502	6.89
311.877	7.2
312.252	6.55
312.626	6.93
313.001	6.81
313.375	6.67
313.75	6.56
314.124	6.61
314.498	6.84
314.873	7.04
315.247	6.95
315.621	6.78
315.995	7.29
316.369	6.76
316.743	6.58
317.117	6.93
317.491	6.59
317.865	6.93
318.239	7.26
318.613	6.9
318.987	6.91
319.361	6.25
319.734	6.41
320.108	6.92
320.482	6.95
320.855	6.75
321.229	7.46
321.602	7.88
321.976	6.87
322.349	7.49
322.723	6.63
323.096	7.07
323.469	6.83
323.843	6.84
324.216	7.37
324.589	6.62
324.962	7.17
325.335	7.02
325.708	6.98
326.081	7.18
326.454	7.08
326.827	7.27
327.2	7.62
327.573	7.16
327.945	7.06
328.318	7.02
328.691	7.25
329.063	7.26
329.436	7.07
329.809	7.15
330.181	7.3
330.553	7.04
330.926	6.83
331.298	6.38
331.671	7.16
332.043	6.88
332.415	6.97
332.787	7.04
333.159	6.77
333.532	7.19
333.904	6.8
334.276	7.32
334.648	7.21
335.02	7.35
335.391	7.09
335.763	7.62
336.135	7.4
336.507	7.59
336.879	7.26
337.25	7.19
337.622	7.51
337.993	7.71
338.365	7.16
338.736	7.32
339.108	7.26
339.479	7.31
339.851	7.33
340.222	7
340.593	6.73
340.964	7.27
341.336	7.74
341.707	7.48
342.078	7.41
342.449	6.86
342.82	7.09
343.191	7.3
343.562	7.23
343.933	7.3
344.303	7.23
344.674	7.11
345.045	7.79
345.416	7.41
345.786	7.59
346.157	7.39
346.527	7.35
346.898	7.57
347.268	7.25
347.639	7.94
348.009	7.51
348.38	7.69
348.75	7.82
349.12	7.57
349.49	7.14
349.861	7.93
350.231	7.15
350.601	7.53
350.971	7.86
351.341	7.38
351.711	7.86
352.081	7.43
352.45	7.31
352.82	7.57
353.19	8.18
353.56	7.92
353.929	7.41
354.299	7.6
354.669	7.18
355.038	7.65
355.408	7.68
355.777	7.88
356.147	7.69
356.516	7.35
356.885	7.65
357.254	7.74
357.624	7.78
357.993	7.23
358.362	7.33
358.731	7.33
359.1	7.03
359.469	7.41
359.838	7.75
360.207	7.67
360.576	7.7
360.945	7.48
361.314	7.58
361.682	7.61
362.051	7.27
362.42	7.61
362.788	7.49
363.157	7.62
363.525	7.57
363.894	7.67
364.262	7.6
364.631	7.8
364.999	7.83
365.367	8.05
365.735	7.74
366.104	7.77
366.472	7.88
366.84	7.98
367.208	7.91
367.576	7.86
367.944	8.11
368.312	7.84
368.68	8.01
369.048	7.84
369.416	8.12
369.783	7.92
370.151	7.93
370.519	8.11
370.886	7.97
371.254	8.1
371.621	8.51
371.989	7.86
372.356	8.35
372.724	8.46
373.091	7.84
373.458	7.58
373.826	8.23
374.193	7.93
374.56	8.06
374.927	8.16
375.294	8
375.661	8.02
376.028	8.36
376.395	8.29
376.762	8.04
377.129	8.07
377.496	8.12
377.863	8.07
378.229	8.08
378.596	8.26
378.963	7.86
379.329	8.29
379.696	8.25
380.062	8.28
380.429	8.09
380.795	7.95
381.161	8.24
381.528	8.47
381.894	7.93
382.26	8.21
382.626	8.35
382.993	8.26
383.359	8.52
383.725	8.56
384.091	8.19
384.457	8.16
384.823	8.24
385.188	8.45
385.554	8.24
385.92	8.13
386.286	8.54
386.651	7.94
387.017	8.41
387.383	7.95
387.748	8.04
388.114	8.16
388.479	8.09
388.845	8.35
389.21	8.42
389.575	8.23
389.94	8.35
390.306	8.27
390.671	8.12
391.036	8.35
391.401	8.49
391.766	8.36
392.131	8.37
392.496	8.39
392.861	8.37
393.226	8.19
393.591	8.25
393.956	8.41
394.32	8.51
394.685	8.22
395.05	8.38
395.414	8.54
395.779	8.2
396.143	8.25
396.508	8.13
396.872	8.34
397.236	8.28
397.601	8.16
397.965	8.23
398.329	8.17
398.694	8.45
399.058	8.36
399.422	8.34
399.786	8.17
400.15	8.39
400.514	8.14
400.878	8.66
401.242	8.51
401.605	8.48
401.969	8.16
402.333	8.47
402.697	8.44
403.06	8.53
403.424	8.53
403.787	8.5
404.151	8.24
404.514	8.52
404.878	8.58
405.241	8.55
405.604	8.22
405.968	8.44
406.331	8.18
406.694	8.33
407.057	8.1
407.42	8.48
407.783	8.51
408.146	8.14
408.509	8.35
408.872	8.64
409.235	8.5
409.598	8.56
409.961	8.38
410.323	8.62
410.686	8.21
411.049	8.56
411.411	8.43
411.774	8.44
412.136	8.43
412.499	8.44
412.861	8.52
413.223	8.45
413.586	8.54
413.948	8.58
414.31	8.32
414.672	8.05
415.035	8.35
415.397	8.47
415.759	8.43
416.121	8.5
416.483	8.62
416.845	8.58
417.206	8.54
417.568	8.64
417.93	8.32
418.292	8.18
418.653	8.34
419.015	8.38
419.377	8.31
419.738	8.39
420.1	8.28
420.461	8.21
420.822	8.28
421.184	8.16
421.545	8.22
421.906	8.17
422.267	8.16
422.629	8.21
422.99	8.07
423.351	8.12
423.712	8.07
424.073	8.25
424.434	8.22
424.795	8.21
425.155	8.26
425.516	8.08
425.877	8.1
426.238	8.07
426.598	8.16
426.959	8.09
427.32	8.19
427.68	8.23
428.041	8.21
428.401	8.32
428.761	8.36
429.122	8.37
429.482	8.46
429.842	8.39
430.202	8.43
430.563	8.3
430.923	8.51
431.283	8.46
431.643	8.54
432.003	8.5
432.363	8.21
432.722	8.38
433.082	8.47
433.442	8.29
433.802	8.52
434.161	8.38
434.521	8.43
434.881	8.35
435.24	8.3
435.6	8.28
435.959	8.29
436.319	8.23
436.678	8.27
437.037	8.32
437.396	8.34
437.756	8.47
438.115	8.33
438.474	8.49
438.833	8.53
439.192	8.19
439.551	8.27
439.91	8.47
440.269	8.3
440.628	8.27
440.987	8.2
441.345	8.26
441.704	8.23
442.063	8.2
442.421	8.1
442.78	8.14
443.138	8.42
443.497	8.29
443.855	8.24
444.214	8.29
444.572	8.28
444.93	8.39
445.288	8.33
445.647	8.55
446.005	8.09
446.363	8.29
446.721	8.27
447.079	8.29
447.437	8.16
447.795	8.03
448.153	8.07
448.51	8.07
448.868	7.99
449.226	8.16
449.584	8.2
449.941	8.15
450.299	8.24
450.656	8.19
451.014	8.33
451.371	8.26
451.729	8.13
452.086	8.19
452.443	8.25
452.801	8.32
453.158	8.3
453.515	8.26
453.872	8.26
454.229	8.37
454.586	8.29
454.943	8.17
455.3	8.25
455.657	8.33
456.014	8.09
456.371	8.15
456.727	8.38
457.084	8.21
457.441	8.32
457.797	8.42
458.154	8.11
458.51	8.22
458.867	8.25
459.223	8.28
459.58	8.09
459.936	8.19
460.292	8.04
460.648	8.01
461.005	8.07
461.361	8.04
461.717	7.88
462.073	8.04
462.429	8.04
462.785	8.07
463.141	8.3
463.496	8.16
463.852	8.24
464.208	8.34
464.564	8.35
464.919	8.19
465.275	8.32
465.631	8.34
465.986	8.17
466.342	8.15
466.697	8.06
467.052	8.12
467.408	8.19
467.763	8.3
468.118	8.37
468.473	8.27
468.829	8.21
469.184	7.99
469.539	8.16
469.894	8.24
470.249	8.02
470.603	8.12
470.958	8.29
471.313	8.31
471.668	8.11
472.023	8.06
472.377	8.15
472.732	8.18
473.086	8.19
473.441	8.16
473.795	8.22
474.15	7.84
474.504	7.78
474.859	8.08
475.213	8.22
475.567	8.13
475.921	8.2
476.275	8.05
476.63	8.36
476.984	8.29
477.338	8.14
477.692	8.01
478.045	8.2
478.399	8.06
478.753	8.11
479.107	7.98
479.461	8.12
479.814	8.18
480.168	8.19
480.521	8.03
480.875	7.98
481.228	8.05
481.582	8.06
481.935	7.97
482.289	8
482.642	8.04
482.995	7.94
483.348	7.97
483.701	7.84
484.055	7.97
484.408	7.81
484.761	7.82
485.114	7.58
485.466	7.44
485.819	7.46
486.172	7.39
486.525	7.5
486.878	7.6
487.23	7.69
487.583	7.71
487.936	7.71
488.288	7.69
488.641	7.73
488.993	7.56
489.345	7.55
489.698	7.6
490.05	7.54
490.402	7.58
490.754	7.68
491.107	7.69
491.459	7.8
491.811	7.8
492.163	7.81
492.515	7.77
492.866	7.73
493.218	7.64
493.57	7.5
493.922	7.56
494.274	7.58
494.625	7.7
494.977	7.64
495.328	7.85
495.68	7.91
496.031	7.76
496.383	7.91
496.734	7.92
497.086	7.94
497.437	7.92
497.788	7.92
498.139	7.91
498.49	7.76
498.842	7.77
499.193	7.89
499.544	7.78
499.894	7.84
500.245	7.76
500.596	7.88
500.947	7.8
501.298	7.83
501.648	7.82
501.999	7.8
502.35	7.85
502.7	7.93
503.051	7.85
503.401	7.82
503.752	7.78
504.102	7.89
504.452	7.72
504.803	7.81
505.153	7.86
505.503	7.77
505.853	7.82
506.203	7.82
506.553	7.81
506.903	7.71
507.253	7.85
507.603	7.88
507.953	7.71
508.303	7.79
508.652	7.86
509.002	7.8
509.352	7.84
509.701	7.77
510.051	7.59
510.4	7.76
510.75	7.72
511.099	7.61
511.449	7.77
511.798	7.68
512.147	7.72
512.496	7.79
512.846	7.67
513.195	7.76
513.544	7.75
513.893	7.56
514.242	7.65
514.591	7.65
514.939	7.59
515.288	7.56
515.637	7.68
515.986	7.82
516.334	7.63
516.683	7.65
517.032	7.64
517.38	7.58
517.729	7.7
518.077	7.7
518.426	7.65
518.774	7.57
519.122	7.69
519.47	7.75
519.819	7.43
520.167	7.51
520.515	7.43
520.863	7.61
521.211	7.54
521.559	7.54
521.907	7.52
522.255	7.64
522.602	7.64
522.95	7.49
523.298	7.61
523.645	7.63
523.993	7.58
524.341	7.65
524.688	7.67
525.036	7.68
525.383	7.53
525.73	7.66
526.078	7.6
526.425	7.61
526.772	7.48
527.119	7.46
527.466	7.4
527.814	7.36
528.161	7.31
528.508	7.34
528.854	7.4
529.201	7.34
529.548	7.34
529.895	7.26
530.242	7.12
530.588	7
530.935	7.06
531.282	7.18
531.628	7.21
531.975	7.15
532.321	7.26
532.667	7.29
533.014	7.37
533.36	7.36
533.706	7.4
534.052	7.38
534.399	7.18
534.745	7.21
535.091	7.13
535.437	7.17
535.783	7.17
536.129	7.23
536.474	7.29
536.82	7.32
537.166	7.24
537.512	7.34
537.857	7.37
538.203	7.29
538.549	7.29
538.894	7.24
539.239	7.25
539.585	7.28
539.93	7.31
540.276	7.45
540.621	7.45
540.966	7.42
541.311	7.45
541.656	7.31
542.001	7.45
542.346	7.27
542.691	7.15
543.036	7.13
543.381	6.98
543.726	7.04
544.071	7.05
544.415	7.08
544.76	7.15
545.105	7.18
545.449	7.18
545.794	7.25
546.138	7.23
546.483	7.22
546.827	7.32
547.171	7.27
547.516	7.05
547.86	7.23
548.204	7.02
548.548	7.18
548.892	7.16
549.236	7.2
549.58	7.07
549.924	7.14
550.268	7.12
550.612	7.26
550.956	7.43
551.3	7.26
551.643	7.24
551.987	7.38
552.33	7.18
552.674	7.14
553.017	7.22
553.361	7.35
553.704	7.3
554.048	7.12
554.391	7.13
554.734	7.21
555.077	7.14
555.42	7.17
555.764	7.22
556.107	7.35
556.45	7.17
556.793	7.12
557.135	7.1
557.478	7.09
557.821	7.31
558.164	7.41
558.507	7.31
558.849	7.33
559.192	7.4
559.534	7.36
559.877	7
560.219	7.28
560.562	7.26
560.904	7.14
561.246	7.07
561.589	6.88
561.931	7.27
562.273	7.29
562.615	7.36
562.957	7.13
563.299	7.18
563.641	7.17
563.983	7.05
564.325	6.88
564.667	7.15
565.008	7.12
565.35	7.08
565.692	7.07
566.033	7.15
566.375	7.11
566.716	6.92
567.058	6.86
567.399	7.12
567.741	7.04
568.082	7
568.423	7.06
568.764	7.03
569.105	7.1
569.447	6.92
569.788	7.03
570.129	6.97
570.47	7.05
570.811	7.2
571.151	6.93
571.492	7
571.833	7.07
572.174	7.06
572.514	7
572.855	6.94
573.195	6.96
573.536	6.8
573.876	6.95
574.217	6.8
574.557	6.83
574.898	6.75
575.238	6.8
575.578	6.99
575.918	6.69
576.258	6.95
576.598	7.09
576.938	6.87
577.278	6.92
577.618	6.75
577.958	6.81
578.298	6.79
578.638	6.86
578.977	6.97
579.317	6.8
579.657	6.9
579.996	6.91
580.336	7.05
580.675	6.84
581.014	7.03
581.354	6.82
581.693	7.01
582.032	6.87
582.372	6.82
582.711	6.89
583.05	7.05
583.389	6.8
583.728	6.81
584.067	6.66
584.406	7.07
584.745	7.15
585.083	6.78
585.422	6.86
585.761	6.87
586.1	6.9
586.438	6.49
586.777	6.91
587.115	7.07
587.454	6.88
587.792	7.08
588.13	6.81
588.469	6.93
588.807	6.49
589.145	6.78
589.483	6.73
589.821	6.79
590.159	6.72
590.497	6.69
590.835	6.9
591.173	6.82
591.511	6.74
591.849	6.74
592.187	6.54
592.524	6.54
592.862	6.73
593.2	6.71
593.537	6.68
593.875	6.63
594.212	6.79
594.55	6.81
594.887	6.72
595.224	6.59
595.561	6.4
595.899	6.74
596.236	6.78
596.573	6.72
596.91	6.65
597.247	6.49
597.584	6.51
597.921	6.59
598.258	6.75
598.594	6.76
598.931	6.36
599.268	6.38
599.604	6.49
599.941	6.59
600.277	6.5
600.614	6.78
600.95	6.64
601.287	6.6
601.623	6.58
601.959	6.9
602.296	6.63
602.632	6.72
602.968	6.45
603.304	6.42
603.64	6.45
603.976	6.61
604.312	6.78
604.648	6.49
604.984	6.76
605.319	6.52
605.655	6.46
605.991	6.43
606.326	6.33
606.662	6.34
606.998	6.17
607.333	6.5
607.668	6.36
608.004	6.46
608.339	6.3
608.674	6.49
609.01	6.48
609.345	6.63
609.68	6.6
610.015	6.4
610.35	6.61
610.685	6.69
611.02	6.49
611.355	6.42
611.689	6.28
612.024	6.62
612.359	6.51
612.694	6.52
613.028	6.48
613.363	6.22
613.697	6.41
614.032	6.42
614.366	6.47
614.7	6.63
615.035	6.65
615.369	6.35
615.703	6.05
616.037	6.66
616.371	6.66
616.705	6.67
617.039	6.34
617.373	6.52
617.707	6.71
618.041	6.32
618.375	6.21
618.709	6.11
619.042	6.37
619.376	6.61
619.71	6.52
620.043	6.45
620.377	6.36
620.71	6.51
621.043	6.71
621.377	6.5
621.71	6.39
622.043	6.41
622.376	6.37
622.709	6.47
623.043	6.51
623.376	6.22
623.709	6.12
624.041	6.08
624.374	6.56
624.707	6.1
625.04	6.4
625.373	6.44
625.705	6.43
626.038	6.34
626.37	6.27
626.703	6.12
627.035	6.27
627.368	6.36
627.7	6.34
628.032	6.32
628.365	6.48
628.697	6.19
629.029	6.33
629.361	6.44
629.693	6.58
630.025	6.3
630.357	6.18
630.689	6.22
631.021	6.53
631.353	6.41
631.684	6.29
632.016	6.2
632.348	6.45
632.679	6.03
633.011	6.43
633.342	6.3
633.674	6.32
634.005	6.3
634.336	6.43
634.668	6.25
634.999	6.1
635.33	6.11
635.661	6.76
635.992	6.31
636.323	6.28
636.654	6.65
636.985	6.3
637.316	6.34
637.647	6.29
637.977	6.02
638.308	6.01
638.639	6.03
638.969	6.41
639.3	6.15
639.63	6.17
639.961	6.1
640.291	6.25
640.622	6.04
640.952	6.42
641.282	6.17
641.612	6.15
641.943	6.77
642.273	6.07
642.603	6.63
642.933	6.11
643.263	6.58
643.592	6.55
643.922	6.75
644.252	6.14
644.582	6.09
644.911	6.37
645.241	6.43
645.571	6.61
645.9	5.98
646.23	6.13
646.559	6.22
646.888	6.38
647.218	6.58
647.547	6.1
647.876	5.96
648.205	6.33
648.534	5.97
648.863	6
649.192	6.02
649.521	5.93
649.85	6.04
650.179	6.24
650.508	5.87
650.837	6.47
651.165	6.47
651.494	6.3
651.822	6.46
652.151	6.62
652.479	6.45
652.808	6.25
653.136	6.05
653.465	6.71
653.793	6.44
654.121	6.8
654.449	5.99
654.777	6.28
655.105	6.31
655.433	6.99
655.761	6.46
656.089	6.33
656.417	6.25
656.745	6.1
657.073	6.27
657.4	7.19
657.728	6.82
658.056	6.6
658.383	6.6
658.711	6.04
659.038	6.43
659.365	6.78
659.693	6.34
660.02	6.04
660.347	6.18
660.674	6.06
661.001	6.15
661.329	6.31
661.656	6.14
661.982	5.95
662.309	6.29
662.636	6.47
662.963	6.64
663.29	6.48
663.616	6.28
663.943	5.88
664.27	6.44
664.596	6.29
664.923	6.29
665.249	6.23
665.576	6.48
665.902	6.68
666.228	6.24
666.554	6.49
666.881	5.75
667.207	5.99
667.533	6.84
667.859	6.6
668.185	6.5
668.511	6.73
668.837	6.46
669.162	6.15
669.488	6.18
669.814	5.64
670.139	6.42
670.465	6.31
670.791	6.71
671.116	6.62
671.442	6.18
671.767	6.11
672.092	6.15
672.418	6.03
672.743	5.79
673.068	6.53
673.393	6.32
673.718	5.8
674.043	6.4
674.368	6.72
674.693	6.99
675.018	6.99
675.343	6.16
675.667	5.92
675.992	6.24
676.317	6.19
676.641	6.8
676.966	6.1
677.29	5.94
677.615	6.54
677.939	5.89
678.264	6.36
678.588	5.67
678.912	6.94
679.236	6.32
679.56	6.4
679.885	6.59
680.209	6.69
680.532	5.91
680.856	6.49
681.18	5.8
681.504	6.39
681.828	6.74
682.152	6.72
682.475	6.18
682.799	6.37
683.122	6.05
683.446	6.3
683.769	6.48
684.093	6.63
684.416	5.91
684.739	5.94
685.062	5.87
685.386	6.08
685.709	6.67
686.032	6.01
686.355	6.25
686.678	6.35
687.001	6.89
687.324	5.69
687.646	6.4
687.969	7.3
688.292	7.04
688.614	6.61
688.937	6.27
689.26	6.11
689.582	6.54
689.904	5.34
690.227	6.63
690.549	6.64
690.871	6.71
691.194	6.8
691.516	6.54
691.838	7.13
692.16	6.31
692.482	6.16
692.804	6.33
693.126	6.4
693.448	7.28
693.769	6.85
694.091	6.81
694.413	6.96
694.735	5.98
695.056	6.41
695.378	6.6
695.699	6.33
696.021	6.4
696.342	6.46
696.663	6.18
696.984	5.95
697.306	6.75
697.627	6.76
697.948	6.1
698.269	6.21
698.59	6.73
698.911	6.84
699.232	5.93
699.553	6.71
699.873	6.86
700.194	7.09
700.515	6.21
700.835	6.7
701.156	6.08
701.477	6.02
701.797	6.09
702.117	6.62
702.438	6.11
702.758	5.93
703.078	6.38
703.398	6.37
703.719	6.76
704.039	6.88
704.359	6.99
704.679	5.84
704.999	5.66
705.319	6.83
705.638	6.36
705.958	6.8
706.278	5.9
706.597	7.35
706.917	6.26
707.237	7.11
707.556	5.65
707.876	5.68
708.195	7.51
708.514	5.84
708.834	7.31
709.153	6.61
709.472	6.86
709.791	7.62
710.11	6.9
710.429	6.48
710.748	7.02
711.067	6.23
711.386	5.8
711.705	6.52
712.023	7.43
712.342	7.5
712.661	6.6
712.979	6.34
713.298	6.61
713.616	6.71
713.935	6.44
714.253	6.38
714.572	6.17
714.89	6.91
715.208	6.65
715.526	7.25
715.844	6.83
716.162	7.06
716.48	7.27
716.798	6.57
717.116	6.02
717.434	6.43
717.752	6.57
718.069	5.98
718.387	6.21
718.705	6.19
719.022	7.5
719.34	7.37
719.657	7.33
719.975	6.81
720.292	6.54
720.609	6.38
720.927	5.71
721.244	7.58
721.561	7.9
721.878	6.56
722.195	6.83
722.512	6.64
722.829	7.79
723.146	7.17
723.463	6.57
723.779	7.26
724.096	6.38
724.413	7.58
724.729	7.28
725.046	8.35
725.362	7.22
725.679	5.61
725.995	8.61
726.311	7.52
726.628	7.91
726.944	7.02
727.26	6.26
727.576	7.32
727.892	7.42
728.208	6.02
728.524	7.71
728.84	6.54
729.156	7.86
729.472	7.07
729.787	6.9
730.103	7.55
730.419	7.07
730.734	6.35
731.05	6.15
731.365	6.4
731.681	6.83
731.996	7.44
732.311	7.1
732.626	6.06
732.942	6.75
733.257	6.42
733.572	6.76
733.887	7.04
734.202	6.42
734.517	7.65
734.832	8.32
735.146	8.55
735.461	7.16
735.776	6.78
736.091	6.21
736.405	7.07
736.72	6.84
737.034	7.3
737.349	8.1
737.663	6.93
737.977	6.96
738.292	5.88
738.606	7.18
738.92	5.6
739.234	6.61
739.548	5.97
739.862	6.4
740.176	6.87
740.49	6.54
740.804	8.3
741.117	8
741.431	6.52
741.745	7.72
742.058	6.72
742.372	5.99
742.685	7.27
742.999	5.96
743.312	5.35
743.626	7.51
743.939	8.75
744.252	6.07
744.565	8.1
744.878	5.5
745.191	7.2
745.505	6.21
745.817	8.15
746.13	6.52
746.443	8.56
746.756	7.05
747.069	5.27
747.381	10.37
747.694	6.69
748.007	6.39
748.319	8.54
748.632	7.83
748.944	7.55
749.256	8.43
749.569	5.81
749.881	7.86
750.193	6.37
750.505	4.72
750.817	7.76
751.129	8.26
751.441	6.27
751.753	7.07
752.065	9.7
752.377	8.39
752.689	9.04
753	7.69
753.312	5.42
753.624	6.62
753.935	8.55
754.247	8.04
754.558	8.3
754.869	8.86
755.181	8.18
755.492	5.31
755.803	5.7
756.114	6.8
756.425	6.5
756.736	7.61
757.047	7.63
757.358	8.53
757.669	7.86
757.98	6.23
758.291	7.16
758.601	8.72
758.912	9.4
759.223	5.29
759.533	8.96
759.844	9.71
760.154	9.34
760.464	8.06
760.775	7.94
761.085	7.83
761.395	8.36
761.705	8.02
762.016	8.47
762.326	9.82
762.636	9.87
762.945	6.02
763.255	8.02
763.565	7.55
763.875	7.13
764.185	5.53
764.494	9.18
764.804	6.94
765.113	8.21
765.423	7.57
765.732	7.02
766.042	7.55
766.351	8.3
766.66	7.2
766.97	7
767.279	6.92
767.588	6.92
767.897	6.77
768.206	8.31
768.515	7.23
768.824	7.85
769.133	6.88
769.441	7.37
769.75	8.98
770.059	7.52
770.367	8.1
770.676	8.1
770.984	8.37
771.293	6.81
771.601	7.08
771.91	6
772.218	10.82
772.526	7.89
772.834	8.66
773.142	7.68
773.45	8
773.758	8.67
774.066	7.51
774.374	6.6
774.682	6.19
774.99	7.03
775.298	7.16
775.605	8.19
775.913	11.16
776.22	7.53
776.528	9.43
776.835	8.01
777.143	6.89
777.45	11.39
777.757	9.82
778.065	12.49
778.372	7.6
778.679	11.01
778.986	8.71
779.293	10.57
779.6	7.74
779.907	10.13
780.214	8
780.52	9.08
780.827	6.3
781.134	10.04
781.44	11.69
781.747	7.71
782.053	9.63
782.36	7.54
782.666	3.15
782.973	6.37
783.279	5.1
783.585	8.53
783.891	7.41
784.197	8.35
784.503	9.12
784.809	8.73
785.115	8.94
785.421	8.6
785.727	8.39
786.033	10.34
786.339	11.23
786.644	10.27
786.95	13.32
787.255	8.01
787.561	6.49
787.866	7.85
788.172	7.4
788.477	4.36
788.782	4.62
789.088	7.55
789.393	9.23
789.698	6.52
790.003	8.28
790.308	9.6
790.613	9.25
790.918	7.66
791.223	7.17
791.527	8.07
791.832	10.75
792.137	12.63
792.441	5.91
792.746	7.98
793.05	6.95
793.355	12.03
793.659	12.17
793.963	10.49
794.268	7.94
794.572	9.63
794.876	6.71
795.18	6.86
795.484	7.74
795.788	10.7
796.092	7.39
796.396	10.75
796.7	7.79
797.004	6.62
797.307	10.46
797.611	10.87
797.915	7.75
798.218	8.14
798.522	7.98
798.825	10.29
799.128	11.14
799.432	7.06
799.735	7.12
800.038	8.85
800.341	6.95
800.644	12.14
800.947	10.16
801.25	10.4
801.553	8.2
801.856	8.23
802.159	6.75
802.462	9.12
802.764	14.8
803.067	9.5
803.37	9.81
803.672	8.38
803.975	11.47
804.277	9.59
804.579	4.79
804.882	11.44
805.184	7.19
805.486	6.95
805.788	12.47
806.09	8.19
806.392	10.9
806.694	9.3
806.996	11.62
807.298	11.19
807.6	10.78
807.902	4.61
808.203	15.31
808.505	13.75
808.807	5.82
809.108	6.09
809.409	11.15
809.711	0.29
810.012	8.08
810.313	7.31
810.615	10.67
810.916	8.49
811.217	10.61
811.518	6.49
811.819	9.83
812.12	11.38
812.421	0.06
812.722	8.38
813.023	10.93
813.323	3.91
813.624	10.46
813.925	12.05
814.225	13
814.526	14.32
814.826	13.71
815.126	12.25
815.427	6.35
815.727	11.75
816.027	6.96
816.327	15.19
816.627	19.33
816.927	5.51
817.227	10.41
817.527	4
817.827	9.58
818.127	4.65
818.427	7.02
818.727	11.22
819.026	4.17
819.326	14.67
819.625	2.98
819.925	14.24
820.224	12.46
820.524	13.9
820.823	6.65
821.122	4.9
821.421	14.21
821.72	16.14
822.019	5.11
822.318	9.95
822.617	5.32
822.916	11.41
823.215	12
823.514	11.1
823.813	10.08
824.111	9.32
824.41	9.63
824.709	9.09
825.007	6.96
825.306	8.92
825.604	8.02
825.902	8.55
826.201	9.68
826.499	9.09
826.797	9.69
827.095	8.86
827.393	8.51
827.691	8.84
827.989	8.78
828.287	9.1
828.585	8.49
828.882	7.02
829.18	8.65
829.478	6.68
829.775	9.33
830.073	10.2
830.37	10.91
830.668	10.68
830.965	9.2
831.263	11.07
831.56	11.16
831.857	7.25
832.154	9.88
832.451	10.34
832.748	10.4
833.045	10.09
833.342	11.28
833.639	12.11
833.936	12.3
834.232	12.01
834.529	10.88
834.826	3.95
835.122	10.48
835.419	13.63
835.715	10.72
836.012	8.18
836.308	6.43
836.604	9.77
836.901	9.58
837.197	10.28
837.493	11.83
837.789	9.12
838.085	6.98
838.381	12.88
838.677	9.6
838.972	12.84
839.268	10.06
839.564	7.89
839.86	12.36
840.155	15.55
840.451	15.22
840.746	9
841.042	13.38
841.337	7.56
841.632	7.17
841.928	8.92
842.223	24.34
842.518	7.74
842.813	13.84
843.108	11.39
843.403	12.44
843.698	19.71
843.993	5.17
844.287	6.25
844.582	19.72
844.877	12.57
845.171	18.44
845.466	13.01
845.761	5.94
846.055	13.86
846.349	20.18
846.644	11.99
846.938	14.8
847.232	21.08
847.526	22.23
847.82	13.49
848.114	17.66
848.408	18.26
848.702	-0.79
848.996	9.28
849.29	19.65
849.584	8.97
849.877	25.78
850.171	27.77
850.465	19.7
850.758	8.72
851.052	-4.16
851.345	9.9
851.638	10.99
851.932	11.47
852.225	26.21
852.518	36.33
852.811	26.88
853.104	21.13
853.397	28.03
853.69	21.59
853.983	5.83
854.276	20.55
854.569	24.29
854.861	5.98
855.154	35.6
855.447	14.94
855.739	10.33
856.032	1.51
856.324	21.89
856.616	9.07
856.909	2.69
857.201	11.82
857.493	-5.49
857.785	32.74
858.077	28.54
858.369	21.15
858.661	10.16
858.953	12.32
859.245	-16.1
859.537	0.01
859.829	13.51
860.12	19.59
860.412	23.03
860.703	22.78
860.995	27.14
861.286	15.11
861.578	7.87
861.869	-0.19
862.16	21.9
862.452	26.6
862.743	32.56
863.034	9.65
863.325	21.27
863.616	-5.08
863.907	4.59
864.198	27.31
864.488	23.63
864.779	13.6
865.07	25.99
865.36	31.06
865.651	21.82
865.941	4.94
866.232	16.87
866.522	19.86
866.813	5.5
867.103	-2.27
867.393	15.73
867.683	15.15
867.973	39.19
868.263	28.33
868.553	10.06
868.843	6.21
869.133	19.11
869.423	15.55
869.713	32.16
870.002	37.88
870.292	21.86
870.582	19.6
870.871	16.38
871.161	18.16
871.45	24.43
871.739	18.11
872.029	19.2
872.318	30.01
872.607	15.55
872.896	29.98
873.185	21.39
873.474	17.79
873.763	9.66
874.052	39.09
874.341	10.82
874.63	22.89
874.918	-3.36
875.207	-0.43
875.496	-3.28
875.784	-4.22
876.073	19.42
876.361	26.89
876.649	-19.35
876.938	4.58
877.226	15.49
877.514	7.15
877.802	-12.34
878.09	-6.79
878.378	26.92
878.666	10.04
878.954	19.72
879.242	7.86
879.53	36.66
879.817	-2.66
880.105	-16.84
880.392	35.83
880.68	-9.35
880.967	-4.87
881.255	21.81
881.542	-2.87
881.83	10.85
882.117	20.53
882.404	-0.81
882.691	11.63
882.978	24.29
883.265	2.63
883.552	9.99
883.839	6.93
884.126	24.36
884.413	8.53
884.699	13.51
884.986	18.03
885.273	11.04
885.559	11.04
885.846	11.04
