Data from 0227_forehead_Reflection__4__14.txt Node

Date: Fri Oct 20 20:41:27 CDT 2023
User: ToomeyLab
Spectrometer: FLMS14357
Trigger mode: 0
Integration Time (sec): 1.000000E-2
Scans to average: 100
Electric dark correction enabled: true
Nonlinearity correction enabled: false
Boxcar width: 0
XAxis mode: Wavelengths
Number of Pixels in Spectrum: 2048
>>>>>Begin Spectral Data<<<<<
189.047	333.85
189.435	333.85
189.823	333.85
190.211	459.52
190.599	100.94
190.987	452.09
191.375	-238.16
191.763	212.49
192.151	-58.2
192.538	116.93
192.926	250.14
193.314	103.68
193.702	184.82
194.089	101.58
194.477	74.11
194.864	-2.15
195.252	232.68
195.639	-103.16
196.027	184.54
196.414	54.78
196.801	55.83
197.189	26.14
197.576	223.95
197.963	95.81
198.351	35.94
198.738	47.01
199.125	72.03
199.512	15.24
199.899	63.33
200.286	-2.44
200.673	57.44
201.06	29.92
201.447	36.82
201.833	67.31
202.22	75.97
202.607	34.69
202.994	34.03
203.38	17.14
203.767	27.1
204.154	30.67
204.54	55.82
204.927	20.7
205.313	9.41
205.699	47.47
206.086	38.47
206.472	68.45
206.858	77.88
207.245	-7.27
207.631	31.79
208.017	34.71
208.403	37.43
208.789	39.53
209.175	-15.67
209.561	40.54
209.947	11.3
210.333	39.34
210.719	44.52
211.105	52.05
211.491	63.91
211.876	38.03
212.262	55.34
212.648	45.74
213.034	32.38
213.419	29.64
213.805	36.81
214.19	49.06
214.576	25.05
214.961	40.34
215.346	45.01
215.732	28.27
216.117	8.5
216.502	37.02
216.888	33.02
217.273	47.42
217.658	41.77
218.043	35.87
218.428	38.23
218.813	41.01
219.198	29.1
219.583	19.47
219.968	22.73
220.353	39.42
220.738	28.75
221.122	24.22
221.507	35.82
221.892	24.47
222.276	36.06
222.661	37.03
223.046	22.59
223.43	14.67
223.815	26.6
224.199	14.46
224.583	5.73
224.968	11.31
225.352	13.14
225.736	17.34
226.121	9.94
226.505	13.02
226.889	16.57
227.273	14.2
227.657	11.16
228.041	11.57
228.425	10.72
228.809	8.06
229.193	6.88
229.577	10.44
229.961	6.23
230.344	5.17
230.728	4.61
231.112	5.59
231.495	4.79
231.879	5.15
232.263	6.07
232.646	4.89
233.03	5.02
233.413	4.5
233.797	5.35
234.18	6.55
234.563	7.21
234.946	7.68
235.33	6.82
235.713	6.44
236.096	6.15
236.479	6.16
236.862	5.86
237.245	3.92
237.628	5.61
238.011	7.52
238.394	5.13
238.777	8.4
239.16	6.26
239.543	6.6
239.925	7.9
240.308	6.26
240.691	6.54
241.073	8.31
241.456	5.87
241.838	5.23
242.221	6.29
242.603	5.46
242.986	5.51
243.368	5.72
243.75	4.89
244.133	4.79
244.515	4.7
244.897	5.01
245.279	4.84
245.661	4.89
246.043	3.93
246.425	5.4
246.807	6.03
247.189	5.34
247.571	5.5
247.953	5.2
248.335	5.2
248.717	4.55
249.098	4.52
249.48	4.65
249.862	5.02
250.243	5.18
250.625	4.8
251.006	5.25
251.388	5.01
251.769	5.93
252.151	4.61
252.532	5.25
252.913	6.41
253.295	5.3
253.676	5.22
254.057	4.67
254.438	5.15
254.819	5.13
255.2	5.75
255.581	6.47
255.962	5.47
256.343	5.52
256.724	5.69
257.105	5.86
257.486	5.7
257.867	7.31
258.247	5.86
258.628	4.97
259.009	4.67
259.389	4.7
259.77	4.91
260.15	5.39
260.531	5.18
260.911	5.12
261.292	4.58
261.672	4.62
262.052	4.85
262.432	4.81
262.813	4.75
263.193	5.16
263.573	4.75
263.953	5.34
264.333	5.71
264.713	5.29
265.093	6
265.473	5.63
265.853	5.49
266.233	4.67
266.612	5.76
266.992	5.95
267.372	4.53
267.752	5.08
268.131	5.55
268.511	5.31
268.89	5.68
269.27	5.09
269.649	4.55
270.029	5.18
270.408	4.97
270.787	5.54
271.167	4.66
271.546	5.31
271.925	5.59
272.304	5.05
272.683	5.48
273.062	4.57
273.441	4.83
273.82	4.79
274.199	5.12
274.578	5.04
274.957	5.31
275.336	4.93
275.715	5.29
276.093	5.16
276.472	5.13
276.851	4.95
277.229	5.73
277.608	4.36
277.986	4.97
278.365	5.23
278.743	5.42
279.122	5.05
279.5	5.02
279.878	5.35
280.257	4.9
280.635	5.21
281.013	5.59
281.391	5.58
281.769	5.09
282.147	5.02
282.525	5.63
282.903	5.18
283.281	5.2
283.659	5.01
284.037	5.16
284.415	4.76
284.792	4.53
285.17	5.3
285.548	5.09
285.925	4.73
286.303	4.7
286.68	4.75
287.058	5.47
287.435	5.37
287.813	4.46
288.19	5.12
288.567	4.99
288.945	5.2
289.322	5.27
289.699	4.3
290.076	5.99
290.453	5.51
290.83	5.13
291.207	5.68
291.584	5.24
291.961	5.33
292.338	5.39
292.715	5.63
293.092	5.7
293.469	5.74
293.845	5.41
294.222	5.81
294.599	5.47
294.975	6.41
295.352	5.79
295.728	5.65
296.105	5.47
296.481	5.62
296.858	5.71
297.234	6.08
297.61	5.86
297.986	5.58
298.363	6.09
298.739	5.7
299.115	5.74
299.491	5.62
299.867	6.15
300.243	5.88
300.619	6.08
300.995	5.87
301.371	6.21
301.746	5.98
302.122	6.43
302.498	5.96
302.874	6.25
303.249	6.4
303.625	6.07
304	6.98
304.376	6.31
304.751	6.13
305.127	6.46
305.502	6.95
305.878	6.89
306.253	7.05
306.628	7.09
307.003	6.86
307.378	6.71
307.754	6.79
308.129	7.57
308.504	7.41
308.879	7.67
309.254	7.67
309.629	6.49
310.003	7.48
310.378	7.18
310.753	7.52
311.128	7.3
311.502	7.49
311.877	7.55
312.252	7.39
312.626	8.05
313.001	7.57
313.375	7.65
313.75	7.64
314.124	7.67
314.498	8.01
314.873	7.66
315.247	8.19
315.621	7.8
315.995	8.23
316.369	8.43
316.743	8.65
317.117	8.72
317.491	7.75
317.865	8.65
318.239	8.6
318.613	8.4
318.987	8.9
319.361	8.53
319.734	8.69
320.108	8.31
320.482	8.82
320.855	9.07
321.229	9.52
321.602	9.42
321.976	9.31
322.349	9.52
322.723	9.31
323.096	9.65
323.469	9.08
323.843	9.44
324.216	9.31
324.589	9.7
324.962	9.71
325.335	9.76
325.708	9.55
326.081	9.88
326.454	9.98
326.827	9.9
327.2	9.96
327.573	10.12
327.945	9.83
328.318	9.3
328.691	9.6
329.063	9.77
329.436	9.95
329.809	10.82
330.181	10.46
330.553	10.41
330.926	10.04
331.298	10.25
331.671	9.88
332.043	10.35
332.415	10.56
332.787	11.01
333.159	10.11
333.532	10.67
333.904	10.96
334.276	10.44
334.648	11.32
335.02	11.13
335.391	10.84
335.763	11.14
336.135	11.2
336.507	11.21
336.879	10.97
337.25	11.29
337.622	11.19
337.993	12.09
338.365	11.39
338.736	11.41
339.108	11.52
339.479	11.48
339.851	11.6
340.222	11.36
340.593	11.46
340.964	11.27
341.336	12.15
341.707	11.77
342.078	11.69
342.449	11.5
342.82	11.65
343.191	11.72
343.562	11.92
343.933	12.12
344.303	12.34
344.674	12.16
345.045	12.37
345.416	11.84
345.786	12.05
346.157	12.32
346.527	12.27
346.898	12.11
347.268	12.45
347.639	12.63
348.009	11.89
348.38	12.48
348.75	12.55
349.12	12.48
349.49	12.65
349.861	12.95
350.231	12.6
350.601	12.46
350.971	12.92
351.341	13.23
351.711	13.42
352.081	13.15
352.45	13.17
352.82	12.92
353.19	13.06
353.56	13.1
353.929	13.13
354.299	13.1
354.669	13.47
355.038	13.14
355.408	13.51
355.777	13.23
356.147	13.68
356.516	13.02
356.885	13.53
357.254	13.43
357.624	13.62
357.993	13.38
358.362	13.74
358.731	13.44
359.1	13.23
359.469	13.82
359.838	13.78
360.207	13.74
360.576	14.06
360.945	14.05
361.314	13.78
361.682	14.05
362.051	13.91
362.42	13.94
362.788	14.18
363.157	13.99
363.525	13.98
363.894	13.91
364.262	14.1
364.631	14.21
364.999	14.67
365.367	14.21
365.735	14.41
366.104	14.48
366.472	14.56
366.84	14.72
367.208	14.98
367.576	14.55
367.944	15.03
368.312	14.86
368.68	14.64
369.048	15.1
369.416	15.17
369.783	15.39
370.151	15.01
370.519	15.27
370.886	15.31
371.254	15.34
371.621	15.57
371.989	15.56
372.356	15.39
372.724	15.78
373.091	15.14
373.458	15.41
373.826	15.37
374.193	15.58
374.56	15.66
374.927	15.81
375.294	15.87
375.661	15.75
376.028	16.21
376.395	16.32
376.762	15.94
377.129	16.43
377.496	15.86
377.863	16.29
378.229	16.4
378.596	15.98
378.963	16.3
379.329	16.43
379.696	16.28
380.062	16.51
380.429	16.28
380.795	16.38
381.161	16.61
381.528	17.22
381.894	16.58
382.26	17.06
382.626	17.24
382.993	16.76
383.359	17.05
383.725	17.23
384.091	17.48
384.457	16.78
384.823	17.21
385.188	17.43
385.554	17.16
385.92	17.31
386.286	17.53
386.651	17.18
387.017	17.45
387.383	17.55
387.748	17.21
388.114	17.43
388.479	17.58
388.845	17.71
389.21	17.58
389.575	17.46
389.94	17.89
390.306	18.1
390.671	17.79
391.036	17.86
391.401	18.2
391.766	18.11
392.131	18.39
392.496	18
392.861	18.1
393.226	18.35
393.591	18.07
393.956	18.4
394.32	18.42
394.685	18.42
395.05	18.67
395.414	18.77
395.779	18.35
396.143	18.44
396.508	18.43
396.872	18.73
397.236	18.9
397.601	19
397.965	18.72
398.329	18.87
398.694	18.95
399.058	18.79
399.422	19.42
399.786	19.1
400.15	19.31
400.514	19.18
400.878	19.32
401.242	19.47
401.605	19.41
401.969	19.62
402.333	19.56
402.697	19.72
403.06	19.73
403.424	19.6
403.787	19.58
404.151	19.63
404.514	19.83
404.878	19.94
405.241	19.91
405.604	19.7
405.968	19.96
406.331	19.78
406.694	19.99
407.057	19.94
407.42	20.16
407.783	20.27
408.146	20.25
408.509	20.27
408.872	20.4
409.235	20.36
409.598	20.32
409.961	20.65
410.323	20.68
410.686	20.59
411.049	20.69
411.411	20.54
411.774	21
412.136	20.6
412.499	20.84
412.861	21
413.223	21.21
413.586	20.92
413.948	21.1
414.31	21.55
414.672	21.22
415.035	21.38
415.397	21.17
415.759	21.17
416.121	21.42
416.483	21.6
416.845	21.38
417.206	21.42
417.568	21.5
417.93	21.51
418.292	21.12
418.653	21.43
419.015	21.31
419.377	21.36
419.738	21.47
420.1	21.45
420.461	21.42
420.822	21.51
421.184	21.6
421.545	21.51
421.906	21.63
422.267	21.33
422.629	21.52
422.99	21.55
423.351	21.86
423.712	21.71
424.073	21.82
424.434	21.81
424.795	21.88
425.155	22.07
425.516	21.92
425.877	21.84
426.238	21.77
426.598	22.23
426.959	22.07
427.32	22.23
427.68	22.41
428.041	22.41
428.401	22.63
428.761	22.77
429.122	22.78
429.482	22.92
429.842	23
430.202	23.14
430.563	23.17
430.923	23.18
431.283	23.24
431.643	23.39
432.003	23.29
432.363	23.35
432.722	23.51
433.082	23.56
433.442	23.42
433.802	23.86
434.161	23.75
434.521	23.61
434.881	23.66
435.24	23.81
435.6	23.68
435.959	23.74
436.319	23.6
436.678	23.9
437.037	24.03
437.396	24.02
437.756	24.12
438.115	24.13
438.474	24.1
438.833	24.32
439.192	24.12
439.551	24.28
439.91	24.22
440.269	24.33
440.628	24.4
440.987	24.3
441.345	24.16
441.704	24.25
442.063	24.35
442.421	24.14
442.78	24.26
443.138	24.47
443.497	24.75
443.855	24.77
444.214	24.87
444.572	24.86
444.93	25.02
445.288	25.12
445.647	25.27
446.005	24.85
446.363	24.94
446.721	24.93
447.079	25.25
447.437	24.97
447.795	24.9
448.153	24.97
448.51	24.96
448.868	25.07
449.226	25.24
449.584	25.46
449.941	25.49
450.299	25.46
450.656	25.58
451.014	25.83
451.371	25.82
451.729	25.87
452.086	25.91
452.443	26.01
452.801	26.1
453.158	26.15
453.515	26.18
453.872	26.15
454.229	26.33
454.586	26.16
454.943	26.27
455.3	26.36
455.657	26.51
456.014	26.29
456.371	26.69
456.727	26.74
457.084	26.93
457.441	26.87
457.797	26.93
458.154	26.7
458.51	26.91
458.867	27
459.223	26.79
459.58	26.82
459.936	27.05
460.292	26.9
460.648	26.8
461.005	26.92
461.361	26.84
461.717	26.46
462.073	26.94
462.429	27.1
462.785	27.23
463.141	27.45
463.496	27.47
463.852	27.62
464.208	27.62
464.564	28.05
464.919	27.63
465.275	27.89
465.631	27.93
465.986	28.22
466.342	27.93
466.697	28.01
467.052	28.12
467.408	28.14
467.763	28.32
468.118	28.47
468.473	28.21
468.829	28.14
469.184	28.38
469.539	28.48
469.894	28.45
470.249	28.71
470.603	28.71
470.958	28.66
471.313	28.86
471.668	28.69
472.023	28.93
472.377	28.92
472.732	28.92
473.086	29.04
473.441	29.18
473.795	29.17
474.15	29.19
474.504	28.91
474.859	29.1
475.213	29.18
475.567	29.41
475.921	29.34
476.275	29.53
476.63	29.67
476.984	29.73
477.338	29.6
477.692	29.53
478.045	29.48
478.399	29.48
478.753	29.52
479.107	29.52
479.461	29.78
479.814	29.99
480.168	29.7
480.521	29.97
480.875	29.88
481.228	29.85
481.582	29.75
481.935	29.84
482.289	30.1
482.642	30.09
482.995	29.9
483.348	29.8
483.701	29.7
484.055	29.86
484.408	29.63
484.761	29.39
485.114	29.03
485.466	28.47
485.819	28.67
486.172	29.24
486.525	29.61
486.878	29.73
487.23	29.98
487.583	30.13
487.936	30.09
488.288	30.04
488.641	29.9
488.993	29.61
489.345	29.69
489.698	29.84
490.05	29.94
490.402	30.11
490.754	30.3
491.107	30.47
491.459	30.72
491.811	30.84
492.163	30.9
492.515	30.91
492.866	30.72
493.218	30.1
493.57	30.2
493.922	30.61
494.274	30.88
494.625	31.07
494.977	31.28
495.328	31.57
495.68	31.67
496.031	31.55
496.383	31.96
496.734	31.96
497.086	32.2
497.437	32.04
497.788	32.07
498.139	32.24
498.49	31.95
498.842	31.87
499.193	32
499.544	32.15
499.894	32.03
500.245	32.28
500.596	32.44
500.947	32.36
501.298	32.63
501.648	32.61
501.999	32.68
502.35	32.91
502.7	33
503.051	33.04
503.401	33.11
503.752	33.01
504.102	33.19
504.452	33.26
504.803	33.18
505.153	33.27
505.503	33.18
505.853	33.26
506.203	33.1
506.553	33.33
506.903	33.47
507.253	33.71
507.603	33.63
507.953	33.57
508.303	33.71
508.652	33.85
509.002	33.76
509.352	33.96
509.701	33.73
510.051	33.6
510.4	33.78
510.75	33.66
511.099	33.88
511.449	33.82
511.798	33.97
512.147	33.95
512.496	33.96
512.846	34.06
513.195	34.14
513.544	34.11
513.893	33.99
514.242	34.18
514.591	34.29
514.939	34.42
515.288	34.34
515.637	34.42
515.986	34.61
516.334	34.62
516.683	34.76
517.032	34.77
517.38	34.89
517.729	34.96
518.077	34.95
518.426	34.93
518.774	35.04
519.122	34.93
519.47	34.95
519.819	34.81
520.167	34.63
520.515	34.5
520.863	34.83
521.211	34.97
521.559	35.1
521.907	35.25
522.255	35.33
522.602	35.53
522.95	35.57
523.298	35.62
523.645	35.81
523.993	35.74
524.341	35.85
524.688	35.91
525.036	35.84
525.383	35.89
525.73	35.97
526.078	35.96
526.425	36
526.772	35.8
527.119	35.62
527.466	35.6
527.814	35.68
528.161	35.85
528.508	35.94
528.854	35.84
529.201	35.91
529.548	35.8
529.895	35.4
530.242	34.9
530.588	35.08
530.935	35.86
531.282	36.07
531.628	36.02
531.975	36.09
532.321	36.37
532.667	36.5
533.014	36.73
533.36	36.79
533.706	36.62
534.052	36.66
534.399	36.64
534.745	36.37
535.091	36.06
535.437	36.31
535.783	36.65
536.129	36.96
536.474	37.05
536.82	37.32
537.166	37.25
537.512	37.52
537.857	37.2
538.203	37.23
538.549	37.16
538.894	37.34
539.239	37.55
539.585	37.68
539.93	37.81
540.276	38.1
540.621	38.3
540.966	38.22
541.311	38.4
541.656	38.16
542.001	38.11
542.346	38.02
542.691	37.47
543.036	37.19
543.381	37.15
543.726	37.67
544.071	38.02
544.415	38.05
544.76	38.13
545.105	38.24
545.449	38.41
545.794	38.62
546.138	38.84
546.483	38.77
546.827	38.86
547.171	39.02
547.516	38.81
547.86	39.09
548.204	38.98
548.548	38.87
548.892	38.84
549.236	38.99
549.58	39.2
549.924	39.47
550.268	39.77
550.612	39.64
550.956	40.1
551.3	39.95
551.643	39.93
551.987	40.2
552.33	40.18
552.674	40.34
553.017	40.27
553.361	40.4
553.704	40.26
554.048	40.36
554.391	40.31
554.734	40.31
555.077	40.34
555.42	40.42
555.764	40.69
556.107	40.98
556.45	40.79
556.793	40.97
557.135	40.83
557.478	40.97
557.821	41.35
558.164	41.38
558.507	41.32
558.849	41.44
559.192	41.41
559.534	41.38
559.877	41.19
560.219	41.47
560.562	41.61
560.904	41.6
561.246	41.66
561.589	41.75
561.931	41.91
562.273	42.02
562.615	41.97
562.957	41.63
563.299	42.08
563.641	42.06
563.983	42.17
564.325	42.14
564.667	42.17
565.008	42.27
565.35	42.42
565.692	42.47
566.033	42.46
566.375	42.34
566.716	42.5
567.058	42.7
567.399	42.48
567.741	42.25
568.082	42.07
568.423	42.18
568.764	42.36
569.105	42.87
569.447	42.79
569.788	42.99
570.129	43
570.47	42.79
570.811	43.08
571.151	43.08
571.492	43.05
571.833	43.24
572.174	43.17
572.514	43.19
572.855	43.46
573.195	43.11
573.536	43.08
573.876	43.17
574.217	43.08
574.557	43.22
574.898	43.22
575.238	43.42
575.578	43.67
575.918	43.57
576.258	43.68
576.598	43.8
576.938	43.51
577.278	43.7
577.618	43.71
577.958	43.96
578.298	44.07
578.638	44.32
578.977	44.09
579.317	44.31
579.657	44.42
579.996	44.59
580.336	44.51
580.675	44.45
581.014	44.96
581.354	44.62
581.693	44.84
582.032	45.06
582.372	44.94
582.711	44.86
583.05	45.35
583.389	45.04
583.728	45.35
584.067	45.66
584.406	45.56
584.745	45.24
585.083	45.64
585.422	45.42
585.761	45.46
586.1	45.68
586.438	45.3
586.777	45.61
587.115	45.68
587.454	45.71
587.792	45.79
588.13	45.85
588.469	45.97
588.807	45.71
589.145	45.94
589.483	46.33
589.821	45.99
590.159	46.01
590.497	46.17
590.835	46.38
591.173	45.95
591.511	46.29
591.849	46.08
592.187	46.23
592.524	46.1
592.862	46.39
593.2	46.28
593.537	46.85
593.875	46.69
594.212	46.89
594.55	46.72
594.887	46.62
595.224	46.94
595.561	46.53
595.899	47.26
596.236	46.87
596.573	46.88
596.91	47.16
597.247	46.78
597.584	46.9
597.921	46.95
598.258	47.05
598.594	46.77
598.931	46.35
599.268	46.7
599.604	47.23
599.941	47.22
600.277	47.25
600.614	47.85
600.95	47.75
601.287	47.41
601.623	47.93
601.959	47.88
602.296	47.44
602.632	48.21
602.968	48.11
603.304	48.15
603.64	47.95
603.976	47.68
604.312	48.23
604.648	47.54
604.984	47.93
605.319	47.87
605.655	47.57
605.991	47.94
606.326	47.77
606.662	47.74
606.998	47.62
607.333	48.17
607.668	48.25
608.004	48.24
608.339	48.4
608.674	48.32
609.01	48.76
609.345	48.8
609.68	48.86
610.015	48.63
610.35	48.81
610.685	49.1
611.02	48.61
611.355	48.4
611.689	48.36
612.024	48.81
612.359	48.84
612.694	49.02
613.028	49.12
613.363	49.33
613.697	49.63
614.032	49.29
614.366	49.62
614.7	49.37
615.035	49.55
615.369	49.83
615.703	49.84
616.037	49.77
616.371	49.91
616.705	49.92
617.039	50.24
617.373	49.99
617.707	50.58
618.041	50.25
618.375	50.15
618.709	49.89
619.042	50.3
619.376	49.9
619.71	50.39
620.043	50.62
620.377	50.51
620.71	50.66
621.043	50.79
621.377	50.33
621.71	50.41
622.043	50.96
622.376	50.34
622.709	50.45
623.043	51
623.376	51.03
623.709	51.16
624.041	50.99
624.374	51.7
624.707	51.21
625.04	50.88
625.373	50.97
625.705	51.09
626.038	51.32
626.37	51.35
626.703	51.21
627.035	50.78
627.368	51.2
627.7	51.04
628.032	50.97
628.365	51.36
628.697	51.39
629.029	51.28
629.361	51.02
629.693	51.4
630.025	51.63
630.357	52.13
630.689	51.75
631.021	51.94
631.353	51.95
631.684	51.94
632.016	51.82
632.348	52.02
632.679	51.11
633.011	51.67
633.342	52.16
633.674	52.28
634.005	52.45
634.336	52.31
634.668	52.27
634.999	52.39
635.33	52.43
635.661	52.61
635.992	52.25
636.323	52.59
636.654	52.97
636.985	52.45
637.316	52.57
637.647	52.79
637.977	52.64
638.308	52.41
638.639	52.89
638.969	53.03
639.3	53.22
639.63	52.91
639.961	52.89
640.291	52.97
640.622	52.69
640.952	52.82
641.282	53.44
641.612	53.58
641.943	53.21
642.273	53.05
642.603	53.26
642.933	53.55
643.263	53.66
643.592	53.72
643.922	54.13
644.252	53.64
644.582	53.51
644.911	54.17
645.241	53.9
645.571	53.93
645.9	54.05
646.23	54.07
646.559	53.89
646.888	54.22
647.218	54
647.547	53.96
647.876	54.26
648.205	54.33
648.534	54.26
648.863	54.37
649.192	54
649.521	54.41
649.85	54.58
650.179	54.31
650.508	54.65
650.837	54.84
651.165	54.64
651.494	54.96
651.822	54.15
652.151	54.98
652.479	54.25
652.808	54.54
653.136	54.81
653.465	54.43
653.793	54.87
654.121	54.69
654.449	54.78
654.777	54.65
655.105	55.15
655.433	55.08
655.761	55.16
656.089	55.39
656.417	55.65
656.745	55.33
657.073	55.32
657.4	55.96
657.728	55.55
658.056	55.7
658.383	55.23
658.711	54.77
659.038	55.33
659.365	55.63
659.693	55.32
660.02	55.24
660.347	55.2
660.674	55.36
661.001	55.39
661.329	55.39
661.656	55.52
661.982	55.39
662.309	55.74
662.636	55.84
662.963	56.36
663.29	55.53
663.616	56.12
663.943	55.95
664.27	56.39
664.596	56.19
664.923	56.67
665.249	56.32
665.576	56.44
665.902	56.45
666.228	56.72
666.554	56.76
666.881	56.69
667.207	56.78
667.533	56.41
667.859	56.63
668.185	56
668.511	56.61
668.837	57
669.162	57.45
669.488	56.68
669.814	56.29
670.139	56.91
670.465	56.27
670.791	57.3
671.116	56.43
671.442	56.36
671.767	57.02
672.092	57.06
672.418	57.09
672.743	57.01
673.068	57.81
673.393	57.08
673.718	57.26
674.043	56.99
674.368	57.55
674.693	57.82
675.018	57.86
675.343	57.8
675.667	56.99
675.992	57.24
676.317	57.53
676.641	57.73
676.966	57.92
677.29	58.5
677.615	57.89
677.939	57.94
678.264	58.35
678.588	57.82
678.912	58.16
679.236	56.79
679.56	57.87
679.885	58.1
680.209	58.3
680.532	57.59
680.856	57.38
681.18	58.96
681.504	58.54
681.828	58.23
682.152	57.41
682.475	58.26
682.799	58.88
683.122	58.54
683.446	58.81
683.769	58.05
684.093	58.29
684.416	58.15
684.739	58.27
685.062	58.1
685.386	58.4
685.709	58.91
686.032	58.28
686.355	58.56
686.678	59.25
687.001	59.17
687.324	58.75
687.646	58.65
687.969	58.92
688.292	58.94
688.614	59.56
688.937	58.64
689.26	59.11
689.582	58.74
689.904	58.96
690.227	58.77
690.549	59.48
690.871	58.78
691.194	59.71
691.516	59.26
691.838	59.52
692.16	58.59
692.482	58.47
692.804	59.31
693.126	59.7
693.448	59.75
693.769	59.77
694.091	59.89
694.413	58.83
694.735	58.99
695.056	59.09
695.378	60.82
695.699	59.91
696.021	59.6
696.342	58.5
696.663	59.94
696.984	59.8
697.306	59.75
697.627	59.53
697.948	61.16
698.269	58.65
698.59	60.75
698.911	59.47
699.232	59.61
699.553	60.3
699.873	59.79
700.194	60.39
700.515	59.73
700.835	59.85
701.156	59.83
701.477	59.87
701.797	59.78
702.117	60.31
702.438	59.95
702.758	60.91
703.078	59.8
703.398	59.71
703.719	61.18
704.039	60.99
704.359	60.13
704.679	60.37
704.999	61.02
705.319	61.86
705.638	59.74
705.958	61.21
706.278	60.22
706.597	60.33
706.917	61.62
707.237	60.82
707.556	60.74
707.876	60.98
708.195	61.11
708.514	60.71
708.834	60.57
709.153	60.59
709.472	60.19
709.791	61.64
710.11	61.48
710.429	60.48
710.748	60.6
711.067	61.58
711.386	60.49
711.705	61.27
712.023	61.4
712.342	61.31
712.661	61.58
712.979	61.95
713.298	62.01
713.616	61.37
713.935	61.28
714.253	61.22
714.572	61.36
714.89	60.86
715.208	61.05
715.526	62.09
715.844	60.76
716.162	61.99
716.48	62.82
716.798	61.44
717.116	62.3
717.434	61
717.752	61.27
718.069	62.07
718.387	60.31
718.705	62.58
719.022	61.77
719.34	61.78
719.657	62.56
719.975	61.9
720.292	62.42
720.609	61.6
720.927	61.3
721.244	62.41
721.561	62.74
721.878	62.32
722.195	61.32
722.512	62.12
722.829	62.88
723.146	61.81
723.463	62.44
723.779	62.21
724.096	62.5
724.413	62.41
724.729	62.39
725.046	63.16
725.362	62.88
725.679	61.99
725.995	64.35
726.311	63.53
726.628	61.53
726.944	61.63
727.26	63.01
727.576	62.26
727.892	63.3
728.208	62.89
728.524	63.05
728.84	62.76
729.156	64.09
729.472	63.9
729.787	63.9
730.103	62.71
730.419	63.26
730.734	61.52
731.05	63.42
731.365	62.82
731.681	64.7
731.996	63.8
732.311	62.95
732.626	64.46
732.942	63.51
733.257	62.56
733.572	63.31
733.887	64.31
734.202	62.63
734.517	64.81
734.832	63.29
735.146	64.94
735.461	62.29
735.776	63.61
736.091	63.26
736.405	62.61
736.72	64.25
737.034	64.39
737.349	63.75
737.663	63.76
737.977	62.49
738.292	63.46
738.606	64.91
738.92	62.82
739.234	62.64
739.548	65.03
739.862	63.63
740.176	62.51
740.49	64.24
740.804	63.93
741.117	65.45
741.431	64.13
741.745	64.71
742.058	63.75
742.372	62.92
742.685	64.65
742.999	63.61
743.312	64.52
743.626	63.99
743.939	63.56
744.252	62.96
744.565	64.8
744.878	64.57
745.191	64.75
745.505	62.06
745.817	62.59
746.13	64.22
746.443	65.69
746.756	65.4
747.069	65.55
747.381	67.28
747.694	64.87
748.007	63.31
748.319	64.29
748.632	64.86
748.944	64.47
749.256	65.64
749.569	64.93
749.881	67.43
750.193	63.84
750.505	64.01
750.817	65.17
751.129	65.32
751.441	65.31
751.753	64.99
752.065	65.91
752.377	65.91
752.689	66.92
753	65.35
753.312	65.63
753.624	64.44
753.935	64.2
754.247	64.22
754.558	65.57
754.869	66.56
755.181	63.54
755.492	66.35
755.803	64.78
756.114	64.35
756.425	63.86
756.736	65.22
757.047	64.96
757.358	63.62
757.669	66.2
757.98	65.4
758.291	65.41
758.601	66.1
758.912	64.32
759.223	64
759.533	63.61
759.844	67.36
760.154	64.63
760.464	66.74
760.775	65.96
761.085	65.88
761.395	66.26
761.705	67.24
762.016	64.84
762.326	66.54
762.636	65.13
762.945	67.54
763.255	67.88
763.565	66.94
763.875	67.2
764.185	67.7
764.494	65.88
764.804	65.84
765.113	66.39
765.423	66.93
765.732	65.23
766.042	66.02
766.351	66.68
766.66	65.42
766.97	66.96
767.279	65.72
767.588	67.03
767.897	67.41
768.206	67.64
768.515	66.9
768.824	66.27
769.133	66.57
769.441	63.63
769.75	66.74
770.059	66.34
770.367	65.77
770.676	66.73
770.984	67.68
771.293	66.82
771.601	64.63
771.91	66.33
772.218	67.48
772.526	66.74
772.834	63.59
773.142	67.33
773.45	63.85
773.758	67.51
774.066	67.47
774.374	66.7
774.682	66.98
774.99	66.16
775.298	66.5
775.605	66.42
775.913	67.57
776.22	66.1
776.528	67.53
776.835	63.48
777.143	67.02
777.45	66.29
777.757	66.59
778.065	67.68
778.372	68.34
778.679	65.77
778.986	65.78
779.293	68.02
779.6	65.94
779.907	66.74
780.214	65.58
780.52	67.01
780.827	62.32
781.134	65.54
781.44	68.48
781.747	69.25
782.053	66.84
782.36	69.79
782.666	67.88
782.973	66.72
783.279	66.98
783.585	64.95
783.891	65.25
784.197	72.03
784.503	64.37
784.809	67.53
785.115	66.55
785.421	69.58
785.727	65.97
786.033	65.98
786.339	68.47
786.644	65.61
786.95	69.08
787.255	68.79
787.561	66.51
787.866	67.62
788.172	70.14
788.477	66.98
788.782	68.89
789.088	70.79
789.393	64.61
789.698	66.51
790.003	68.74
790.308	67.2
790.613	65.68
790.918	69.68
791.223	67.13
791.527	68.66
791.832	67.16
792.137	69.22
792.441	65.01
792.746	65.76
793.05	65.02
793.355	66.89
793.659	68.79
793.963	66.43
794.268	69.92
794.572	67.98
794.876	67.68
795.18	66.56
795.484	64.53
795.788	66.75
796.092	65.16
796.396	68.21
796.7	68.59
797.004	66.91
797.307	70.39
797.611	65.3
797.915	63.88
798.218	67.05
798.522	67.26
798.825	72.06
799.128	69.38
799.432	68.06
799.735	71.05
800.038	67.21
800.341	69.86
800.644	71.35
800.947	67.35
801.25	70.4
801.553	68.83
801.856	72.05
802.159	68.82
802.462	72.34
802.764	69.79
803.067	69.22
803.37	65.71
803.672	71.24
803.975	69.06
804.277	68.59
804.579	68.76
804.882	74.29
805.184	68.37
805.486	69.86
805.788	72.4
806.09	71.25
806.392	71.15
806.694	67.14
806.996	70.67
807.298	67.92
807.6	68.57
807.902	74.57
808.203	77.85
808.505	68.96
808.807	63.34
809.108	70.87
809.409	67.67
809.711	66.32
810.012	66.86
810.313	66.24
810.615	70.18
810.916	63
811.217	63.66
811.518	66.11
811.819	66.31
812.12	70.82
812.421	70.32
812.722	73.16
813.023	71.16
813.323	69.84
813.624	67.67
813.925	62.86
814.225	75.25
814.526	72.64
814.826	73.28
815.126	68.92
815.427	65.79
815.727	72.2
816.027	65.31
816.327	69.17
816.627	68.68
816.927	80.28
817.227	66.44
817.527	68.79
817.827	71.78
818.127	68.15
818.427	74.54
818.727	62.22
819.026	73.65
819.326	75.51
819.625	58.32
819.925	71.32
820.224	71.99
820.524	75.64
820.823	70.9
821.122	71.5
821.421	71.16
821.72	79.32
822.019	70.57
822.318	72.1
822.617	64.39
822.916	70.43
823.215	68.92
823.514	72.89
823.813	70.45
824.111	71.5
824.41	69.23
824.709	68.14
825.007	69.5
825.306	70.59
825.604	71.14
825.902	71.07
826.201	70.66
826.499	69.93
826.797	71.16
827.095	69.31
827.393	69.53
827.691	69.6
827.989	68.23
828.287	71.77
828.585	69.67
828.882	67.57
829.18	69.45
829.478	72.13
829.775	70.5
830.073	68.8
830.37	71.28
830.668	71.28
830.965	69.46
831.263	71.43
831.56	71.78
831.857	70.72
832.154	72.29
832.451	70.04
832.748	70.1
833.045	66.33
833.342	73.5
833.639	70.75
833.936	70.88
834.232	72.34
834.529	68.67
834.826	69.12
835.122	74.4
835.419	76.5
835.715	64.54
836.012	70.22
836.308	68.87
836.604	70.16
836.901	69.2
837.197	70.07
837.493	67.91
837.789	69.37
838.085	66.27
838.381	72.11
838.677	72.08
838.972	72.49
839.268	70.43
839.564	71.6
839.86	70.51
840.155	78.66
840.451	68.89
840.746	68.92
841.042	70.87
841.337	67.72
841.632	66.25
841.928	70.8
842.223	67.95
842.518	61.89
842.813	64.68
843.108	69.41
843.403	79.77
843.698	74.5
843.993	69.46
844.287	67.35
844.582	70.22
844.877	75.36
845.171	80.21
845.466	75.25
845.761	57.45
846.055	80.37
846.349	61.73
846.644	69.36
846.938	65.02
847.232	70.53
847.526	80.78
847.82	75.4
848.114	69.16
848.408	89.49
848.702	58.92
848.996	84.41
849.29	71.87
849.584	61.4
849.877	67.2
850.171	88.1
850.465	75.65
850.758	78.28
851.052	68.12
851.345	64.48
851.638	76.8
851.932	70.66
852.225	72.55
852.518	78.84
852.811	81.31
853.104	83.6
853.397	70.72
853.69	91.82
853.983	71.3
854.276	63.12
854.569	78.22
854.861	51.15
855.154	68.35
855.447	78.12
855.739	73.53
856.032	75.54
856.324	98.96
856.616	57.19
856.909	86.26
857.201	59.24
857.493	72.47
857.785	75.51
858.077	63.05
858.369	100.35
858.661	71.61
858.953	68.3
859.245	50.35
859.537	87.93
859.829	88.04
860.12	72.89
860.412	96.67
860.703	99.25
860.995	85.41
861.286	93.2
861.578	101.61
861.869	66.53
862.16	55.14
862.452	65.58
862.743	98.03
863.034	61.56
863.325	68.98
863.616	76.65
863.907	65.31
864.198	117.37
864.488	66.64
864.779	58.38
865.07	85.06
865.36	67.42
865.651	79.76
865.941	80.94
866.232	89.78
866.522	71.8
866.813	42.49
867.103	48.27
867.393	82.59
867.683	88.07
867.973	69.74
868.263	72.75
868.553	65.43
868.843	75.08
869.133	84.12
869.423	69.4
869.713	68.97
870.002	63.21
870.292	73.28
870.582	87.94
870.871	59.63
871.161	79.56
871.45	60.77
871.739	90.44
872.029	87.92
872.318	64.7
872.607	64.29
872.896	65.46
873.185	89.77
873.474	91.79
873.763	58.77
874.052	92.27
874.341	78.24
874.63	83.99
874.918	54.34
875.207	69
875.496	50.5
875.784	62.79
876.073	68.37
876.361	56.47
876.649	52.49
876.938	60.44
877.226	73.52
877.514	82.23
877.802	72.61
878.09	64.33
878.378	86.64
878.666	77.53
878.954	71.54
879.242	60.36
879.53	87.97
879.817	100.53
880.105	81.96
880.392	88.93
880.68	76.13
880.967	80.16
881.255	84.87
881.542	50.19
881.83	81.17
882.117	94.72
882.404	81.45
882.691	53.24
882.978	78.09
883.265	80.35
883.552	72.06
883.839	64.22
884.126	78
884.413	51.82
884.699	62.86
884.986	81.36
885.273	68.13
885.559	68.13
885.846	68.13
