Data from 0227_crown_Reflection__2__07.txt Node

Date: Fri Oct 20 20:39:50 CDT 2023
User: ToomeyLab
Spectrometer: FLMS14357
Trigger mode: 0
Integration Time (sec): 1.000000E-2
Scans to average: 100
Electric dark correction enabled: true
Nonlinearity correction enabled: false
Boxcar width: 0
XAxis mode: Wavelengths
Number of Pixels in Spectrum: 2048
>>>>>Begin Spectral Data<<<<<
189.047	-161.75
189.435	-161.75
189.823	-161.75
190.211	999.65
190.599	92.44
190.987	-89.49
191.375	-137.53
191.763	81.12
192.151	0.36
192.538	78.61
192.926	90.62
193.314	144.59
193.702	257.42
194.089	64.97
194.477	843.32
194.864	92.49
195.252	405.86
195.639	-120.82
196.027	-8.96
196.414	26.88
196.801	29.51
197.189	62.41
197.576	95.95
197.963	-217.84
198.351	21.37
198.738	18.51
199.125	44.86
199.512	39.61
199.899	5.72
200.286	35.63
200.673	29.36
201.06	-8.93
201.447	-29.05
201.833	32.73
202.22	10.7
202.607	20.25
202.994	31
203.38	-18.65
203.767	-1.74
204.154	57.11
204.54	29.61
204.927	-28.48
205.313	-18.76
205.699	35.93
206.086	23.29
206.472	48.72
206.858	33.32
207.245	-21.57
207.631	-4.13
208.017	28.21
208.403	1.87
208.789	26.13
209.175	-62.59
209.561	21.26
209.947	-13.54
210.333	7.13
210.719	10.81
211.105	24.52
211.491	44.4
211.876	-7.04
212.262	37.61
212.648	31.16
213.034	26.64
213.419	25.94
213.805	-3.31
214.19	0.9
214.576	-9.22
214.961	27.34
215.346	38.56
215.732	16
216.117	-14.34
216.502	8.69
216.888	-7.01
217.273	12.21
217.658	0.65
218.043	-17.66
218.428	-1.26
218.813	12.41
219.198	-2.49
219.583	-29.63
219.968	-3.58
220.353	5.94
220.738	34.25
221.122	7.56
221.507	13.87
221.892	9.36
222.276	11.12
222.661	22.39
223.046	18.04
223.43	8.5
223.815	13.65
224.199	15.76
224.583	-4.78
224.968	2.91
225.352	5.01
225.736	3.11
226.121	8.84
226.505	1.2
226.889	12.91
227.273	13
227.657	10.4
228.041	8.95
228.425	9.8
228.809	9
229.193	5.62
229.577	10.96
229.961	6.68
230.344	7.12
230.728	7.9
231.112	9.09
231.495	8.22
231.879	8.85
232.263	8.82
232.646	7.35
233.03	6.54
233.413	6.72
233.797	7.77
234.18	9.19
234.563	8.42
234.946	8
235.33	7.64
235.713	8.26
236.096	9.4
236.479	9.34
236.862	8.14
237.245	7.39
237.628	8.08
238.011	8.05
238.394	7.76
238.777	9.34
239.16	7.88
239.543	10.22
239.925	10.05
240.308	8.27
240.691	5.86
241.073	8.25
241.456	7.8
241.838	7.71
242.221	8.64
242.603	8.54
242.986	8.12
243.368	7.67
243.75	7.13
244.133	6.91
244.515	7.11
244.897	7.07
245.279	8.14
245.661	6.92
246.043	7
246.425	6.56
246.807	6.96
247.189	6.85
247.571	6.95
247.953	7.15
248.335	6.71
248.717	6.52
249.098	6.49
249.48	6.8
249.862	7.28
250.243	7.53
250.625	7.27
251.006	7.45
251.388	7.61
251.769	7.9
252.151	7.27
252.532	7.19
252.913	6.32
253.295	6.12
253.676	6.39
254.057	6.66
254.438	6.59
254.819	6.62
255.2	6.71
255.581	6.11
255.962	7.15
256.343	7.3
256.724	5.74
257.105	7
257.486	6.85
257.867	6.59
258.247	7.06
258.628	6.36
259.009	6.66
259.389	5.81
259.77	6.18
260.15	6.35
260.531	6.15
260.911	6.66
261.292	5.61
261.672	6.22
262.052	6.16
262.432	6.12
262.813	6.18
263.193	6.73
263.573	5.99
263.953	6.84
264.333	6.32
264.713	6.49
265.093	6.38
265.473	7.23
265.853	6.37
266.233	6.36
266.612	6.42
266.992	5.54
267.372	6.54
267.752	5.18
268.131	6.11
268.511	6.54
268.89	6.03
269.27	5.51
269.649	5.3
270.029	5.78
270.408	6.07
270.787	6.18
271.167	5.64
271.546	5.99
271.925	6.31
272.304	5.88
272.683	6.18
273.062	5.34
273.441	5.92
273.82	6.36
274.199	5.86
274.578	5.81
274.957	5.88
275.336	6.18
275.715	6.2
276.093	5.21
276.472	6.12
276.851	6.01
277.229	5.92
277.608	5.84
277.986	5.29
278.365	6.28
278.743	5.64
279.122	5.6
279.5	5.6
279.878	5.09
280.257	6.01
280.635	6.02
281.013	6.06
281.391	6.44
281.769	5.87
282.147	5.16
282.525	5.89
282.903	5.75
283.281	5.79
283.659	5.84
284.037	5.8
284.415	5.44
284.792	5.26
285.17	5.85
285.548	5.27
285.925	5.36
286.303	5.4
286.68	5.57
287.058	5.83
287.435	5.66
287.813	5.25
288.19	5.47
288.567	5.59
288.945	5.92
289.322	5.98
289.699	5.3
290.076	5.75
290.453	5.64
290.83	5.66
291.207	5.94
291.584	4.77
291.961	5.36
292.338	5.12
292.715	5.5
293.092	5.63
293.469	5.52
293.845	5.17
294.222	5.36
294.599	5.59
294.975	6.09
295.352	5.78
295.728	5.52
296.105	4.92
296.481	5.34
296.858	5.56
297.234	5.82
297.61	5.19
297.986	5.1
298.363	5.52
298.739	5.23
299.115	5.21
299.491	5.5
299.867	5.68
300.243	5.18
300.619	5.3
300.995	5.25
301.371	5.34
301.746	5.25
302.122	5.42
302.498	5.15
302.874	5.4
303.249	5.03
303.625	5.32
304	5.31
304.376	5.19
304.751	5.05
305.127	5.18
305.502	5.71
305.878	5.11
306.253	5.54
306.628	5.4
307.003	5.21
307.378	5
307.754	5.54
308.129	5.78
308.504	5.76
308.879	4.79
309.254	5.7
309.629	4.97
310.003	4.75
310.378	6.02
310.753	5.15
311.128	5.6
311.502	5.12
311.877	5.25
312.252	5.13
312.626	5.52
313.001	5.47
313.375	5.05
313.75	5.34
314.124	4.89
314.498	5.09
314.873	5.08
315.247	5.44
315.621	5.48
315.995	5.63
316.369	5.23
316.743	5.29
317.117	4.94
317.491	4.95
317.865	5.6
318.239	5.45
318.613	5.4
318.987	4.96
319.361	4.95
319.734	5.21
320.108	4.88
320.482	5.24
320.855	5.51
321.229	5.35
321.602	5.21
321.976	5.32
322.349	5.48
322.723	5.2
323.096	4.94
323.469	4.97
323.843	5.49
324.216	5.34
324.589	5.19
324.962	5.71
325.335	5.65
325.708	5.27
326.081	5.29
326.454	5.33
326.827	5.87
327.2	5.66
327.573	5.58
327.945	5.37
328.318	4.84
328.691	4.84
329.063	5.5
329.436	4.51
329.809	5.39
330.181	5.55
330.553	5.53
330.926	5.49
331.298	5.18
331.671	5.12
332.043	5.33
332.415	5.55
332.787	5.76
333.159	4.75
333.532	5.3
333.904	5.36
334.276	5.08
334.648	5.91
335.02	5.57
335.391	5.19
335.763	5.59
336.135	5.61
336.507	5.43
336.879	5.41
337.25	5.54
337.622	5.56
337.993	5.49
338.365	5.51
338.736	5.18
339.108	5.63
339.479	5.12
339.851	5.45
340.222	5.38
340.593	5.24
340.964	5.48
341.336	5.59
341.707	5.42
342.078	5.3
342.449	5.47
342.82	5.38
343.191	5.2
343.562	5.47
343.933	5.52
344.303	5.67
344.674	5.51
345.045	5.57
345.416	5.88
345.786	5.44
346.157	5.55
346.527	5.36
346.898	5.67
347.268	5.54
347.639	5.64
348.009	5.13
348.38	5.13
348.75	5.41
349.12	5.9
349.49	5.28
349.861	5.84
350.231	5.3
350.601	5.63
350.971	5.97
351.341	5.34
351.711	5.99
352.081	5.36
352.45	5.29
352.82	5.95
353.19	5.83
353.56	5.91
353.929	5.47
354.299	5.42
354.669	5.97
355.038	5.88
355.408	5.86
355.777	5.57
356.147	5.51
356.516	5.62
356.885	5.73
357.254	5.54
357.624	5.86
357.993	5.53
358.362	5.83
358.731	5.01
359.1	5.26
359.469	5.68
359.838	5.38
360.207	5.53
360.576	5.82
360.945	5.63
361.314	5.62
361.682	5.66
362.051	5.69
362.42	5.33
362.788	5.76
363.157	5.58
363.525	5.55
363.894	5.63
364.262	5.5
364.631	5.93
364.999	5.74
365.367	5.43
365.735	5.45
366.104	5.68
366.472	5.62
366.84	5.69
367.208	5.84
367.576	5.73
367.944	5.7
368.312	5.92
368.68	5.87
369.048	5.63
369.416	6.06
369.783	5.86
370.151	5.82
370.519	5.8
370.886	5.84
371.254	5.79
371.621	6.12
371.989	5.93
372.356	6.14
372.724	6.2
373.091	5.97
373.458	5.64
373.826	6.02
374.193	5.58
374.56	5.6
374.927	6.09
375.294	5.73
375.661	5.79
376.028	6.12
376.395	6.33
376.762	6.18
377.129	5.95
377.496	5.76
377.863	6.41
378.229	6.14
378.596	6.01
378.963	5.98
379.329	6.03
379.696	6
380.062	5.84
380.429	5.92
380.795	5.83
381.161	5.89
381.528	6.3
381.894	5.84
382.26	5.99
382.626	6.11
382.993	5.97
383.359	5.8
383.725	6.06
384.091	5.99
384.457	6.02
384.823	5.85
385.188	6.22
385.554	6.14
385.92	6.09
386.286	6.33
386.651	5.74
387.017	6.22
387.383	5.93
387.748	5.81
388.114	5.87
388.479	5.92
388.845	6.29
389.21	5.87
389.575	5.72
389.94	6.04
390.306	5.73
390.671	5.87
391.036	6.03
391.401	6.37
391.766	6.04
392.131	5.97
392.496	6.18
392.861	5.91
393.226	5.93
393.591	5.92
393.956	6.05
394.32	6.23
394.685	6.04
395.05	6.32
395.414	6.26
395.779	6.05
396.143	5.83
396.508	5.91
396.872	6.35
397.236	6.17
397.601	6.14
397.965	6.02
398.329	5.79
398.694	6.23
399.058	5.83
399.422	6.21
399.786	6.27
400.15	6.23
400.514	5.89
400.878	6.21
401.242	6.24
401.605	6.18
401.969	6.04
402.333	6.06
402.697	6.35
403.06	6.05
403.424	6.23
403.787	6.18
404.151	6.2
404.514	6.12
404.878	6.26
405.241	6.14
405.604	5.99
405.968	6.24
406.331	6.05
406.694	6.13
407.057	6.12
407.42	6.35
407.783	6.16
408.146	6.08
408.509	6.02
408.872	6.22
409.235	6.22
409.598	6.11
409.961	6.58
410.323	6.17
410.686	5.94
411.049	6.37
411.411	6.21
411.774	6.16
412.136	6.15
412.499	6.08
412.861	6.27
413.223	6.06
413.586	6.23
413.948	6.18
414.31	6.33
414.672	6.04
415.035	6.1
415.397	6.11
415.759	6.11
416.121	6.34
416.483	6.37
416.845	6.09
417.206	6.02
417.568	6.22
417.93	6.09
418.292	6.02
418.653	6.21
419.015	6.16
419.377	6
419.738	6.03
420.1	5.93
420.461	5.96
420.822	6.08
421.184	6.14
421.545	6.06
421.906	6.04
422.267	6.01
422.629	6.06
422.99	5.94
423.351	5.96
423.712	6.03
424.073	6.05
424.434	5.93
424.795	5.98
425.155	6.02
425.516	6.07
425.877	5.96
426.238	5.89
426.598	6.05
426.959	5.94
427.32	6.04
427.68	6.14
428.041	6.09
428.401	6.2
428.761	6.16
429.122	6.27
429.482	6.08
429.842	6.31
430.202	6.17
430.563	6.13
430.923	6.26
431.283	6.07
431.643	6.33
432.003	6.28
432.363	6.16
432.722	6.13
433.082	6.22
433.442	6.11
433.802	6.22
434.161	5.98
434.521	6.15
434.881	6.15
435.24	6.08
435.6	6.03
435.959	6.09
436.319	6.1
436.678	6.08
437.037	6.18
437.396	6.21
437.756	6.21
438.115	6.16
438.474	6.37
438.833	6.25
439.192	6.22
439.551	6.03
439.91	6
440.269	6.18
440.628	6.1
440.987	6.07
441.345	6.05
441.704	6.15
442.063	6.09
442.421	5.91
442.78	5.97
443.138	6.12
443.497	6.18
443.855	6.12
444.214	6.2
444.572	6.06
444.93	6.26
445.288	6.18
445.647	6.2
446.005	6.05
446.363	6.13
446.721	6.09
447.079	6.22
447.437	6.11
447.795	5.89
448.153	5.93
448.51	5.93
448.868	6.01
449.226	6.03
449.584	6.16
449.941	6.02
450.299	6.06
450.656	5.94
451.014	6.15
451.371	6.16
451.729	6.08
452.086	6.09
452.443	6.2
452.801	6.11
453.158	6.19
453.515	6.17
453.872	6.16
454.229	6.33
454.586	6.16
454.943	6.12
455.3	6.03
455.657	6.07
456.014	6.05
456.371	6.05
456.727	6.24
457.084	6.11
457.441	6.19
457.797	6.26
458.154	6.03
458.51	6.08
458.867	6.26
459.223	6.18
459.58	6.13
459.936	6.18
460.292	6.15
460.648	5.95
461.005	5.9
461.361	6.08
461.717	5.84
462.073	6.03
462.429	6.01
462.785	6.08
463.141	6.13
463.496	6.02
463.852	6.15
464.208	6.3
464.564	6.05
464.919	6.14
465.275	6.25
465.631	6.2
465.986	6.29
466.342	6.25
466.697	6.14
467.052	6.19
467.408	6.17
467.763	6.29
468.118	6.23
468.473	6.14
468.829	6.03
469.184	6.29
469.539	6.22
469.894	6.17
470.249	6.15
470.603	6.15
470.958	6.19
471.313	6.25
471.668	6.24
472.023	6.08
472.377	6.2
472.732	6
473.086	6.25
473.441	6.14
473.795	6.31
474.15	6.24
474.504	6.08
474.859	6.06
475.213	6.26
475.567	6.24
475.921	6.1
476.275	6.22
476.63	6.25
476.984	6.17
477.338	6.02
477.692	5.99
478.045	6.33
478.399	6.11
478.753	6.16
479.107	6.27
479.461	6.22
479.814	6.31
480.168	6.29
480.521	6.11
480.875	6.23
481.228	6.21
481.582	6.16
481.935	6.15
482.289	6.15
482.642	6.03
482.995	5.99
483.348	6.12
483.701	6.02
484.055	6.02
484.408	5.95
484.761	5.93
485.114	5.77
485.466	5.66
485.819	5.62
486.172	5.59
486.525	5.7
486.878	5.78
487.23	5.84
487.583	5.89
487.936	5.92
488.288	5.92
488.641	5.87
488.993	5.78
489.345	5.78
489.698	5.75
490.05	5.72
490.402	5.78
490.754	5.85
491.107	5.92
491.459	6.02
491.811	5.97
492.163	6.04
492.515	6
492.866	6
493.218	5.82
493.57	5.7
493.922	5.79
494.274	5.81
494.625	5.9
494.977	5.92
495.328	6.07
495.68	6.1
496.031	6.07
496.383	6.06
496.734	6.21
497.086	6.08
497.437	6.06
497.788	5.94
498.139	6.25
498.49	5.99
498.842	5.95
499.193	5.99
499.544	5.97
499.894	5.93
500.245	5.84
500.596	5.98
500.947	5.95
501.298	6.03
501.648	5.98
501.999	6.15
502.35	6
502.7	6.13
503.051	6.1
503.401	6.04
503.752	6.03
504.102	6.07
504.452	6.06
504.803	5.94
505.153	6.05
505.503	6.05
505.853	6.05
506.203	6.11
506.553	5.93
506.903	5.97
507.253	5.97
507.603	6.02
507.953	6.13
508.303	5.84
508.652	5.94
509.002	5.96
509.352	5.99
509.701	5.87
510.051	5.92
510.4	5.98
510.75	5.91
511.099	5.98
511.449	6.04
511.798	5.96
512.147	5.95
512.496	6.04
512.846	5.97
513.195	6.08
513.544	5.92
513.893	5.87
514.242	5.87
514.591	5.98
514.939	5.9
515.288	6
515.637	6.17
515.986	6.04
516.334	5.93
516.683	5.94
517.032	5.89
517.38	5.83
517.729	6.02
518.077	5.91
518.426	5.97
518.774	5.75
519.122	5.9
519.47	5.97
519.819	5.87
520.167	5.81
520.515	5.73
520.863	5.94
521.211	5.79
521.559	5.97
521.907	5.83
522.255	5.87
522.602	5.97
522.95	5.8
523.298	5.99
523.645	5.94
523.993	5.87
524.341	6
524.688	5.89
525.036	6.06
525.383	5.81
525.73	6.07
526.078	5.98
526.425	5.93
526.772	5.89
527.119	5.8
527.466	5.79
527.814	5.81
528.161	5.83
528.508	5.82
528.854	5.81
529.201	5.76
529.548	5.81
529.895	5.72
530.242	5.59
530.588	5.52
530.935	5.52
531.282	5.58
531.628	5.67
531.975	5.6
532.321	5.76
532.667	5.74
533.014	5.78
533.36	5.8
533.706	5.87
534.052	5.82
534.399	5.74
534.745	5.69
535.091	5.6
535.437	5.63
535.783	5.64
536.129	5.7
536.474	5.83
536.82	5.87
537.166	5.74
537.512	5.85
537.857	5.85
538.203	5.69
538.549	5.8
538.894	5.69
539.239	5.74
539.585	5.77
539.93	5.79
540.276	5.95
540.621	5.92
540.966	5.83
541.311	5.96
541.656	5.81
542.001	5.89
542.346	5.82
542.691	5.71
543.036	5.61
543.381	5.5
543.726	5.52
544.071	5.58
544.415	5.66
544.76	5.65
545.105	5.75
545.449	5.74
545.794	5.75
546.138	5.8
546.483	5.73
546.827	5.73
547.171	5.8
547.516	5.74
547.86	5.79
548.204	5.63
548.548	5.75
548.892	5.76
549.236	5.84
549.58	5.66
549.924	5.78
550.268	5.77
550.612	5.78
550.956	5.92
551.3	5.74
551.643	5.74
551.987	5.91
552.33	5.83
552.674	5.92
553.017	5.71
553.361	6.01
553.704	5.9
554.048	5.82
554.391	5.91
554.734	5.8
555.077	5.77
555.42	5.76
555.764	5.74
556.107	6.04
556.45	5.89
556.793	5.74
557.135	5.67
557.478	5.72
557.821	5.84
558.164	5.91
558.507	5.89
558.849	5.99
559.192	5.88
559.534	5.9
559.877	5.74
560.219	5.91
560.562	5.89
560.904	5.73
561.246	5.81
561.589	5.74
561.931	5.89
562.273	5.98
562.615	5.95
562.957	5.91
563.299	5.75
563.641	5.85
563.983	5.72
564.325	5.67
564.667	5.88
565.008	5.79
565.35	5.78
565.692	5.77
566.033	5.88
566.375	5.73
566.716	5.79
567.058	5.67
567.399	5.86
567.741	5.76
568.082	5.69
568.423	5.75
568.764	5.7
569.105	5.7
569.447	5.69
569.788	5.73
570.129	5.79
570.47	5.62
570.811	5.91
571.151	5.74
571.492	5.88
571.833	5.71
572.174	5.82
572.514	5.8
572.855	5.8
573.195	5.88
573.536	5.61
573.876	5.8
574.217	5.57
574.557	5.61
574.898	5.56
575.238	5.58
575.578	5.7
575.918	5.66
576.258	5.81
576.598	5.65
576.938	5.75
577.278	5.79
577.618	5.67
577.958	5.66
578.298	5.57
578.638	5.79
578.977	5.65
579.317	5.76
579.657	5.7
579.996	5.86
580.336	5.92
580.675	5.64
581.014	5.71
581.354	5.58
581.693	5.62
582.032	5.63
582.372	5.52
582.711	5.89
583.05	5.9
583.389	5.56
583.728	5.75
584.067	5.75
584.406	5.55
584.745	5.61
585.083	5.67
585.422	5.76
585.761	5.55
586.1	5.97
586.438	5.58
586.777	5.78
587.115	5.86
587.454	5.84
587.792	5.63
588.13	5.91
588.469	5.75
588.807	5.41
589.145	5.76
589.483	5.59
589.821	5.5
590.159	5.74
590.497	5.87
590.835	5.84
591.173	5.55
591.511	5.56
591.849	5.57
592.187	5.65
592.524	5.64
592.862	5.59
593.2	5.64
593.537	5.39
593.875	5.72
594.212	5.53
594.55	5.88
594.887	5.62
595.224	5.67
595.561	5.33
595.899	5.65
596.236	5.74
596.573	5.59
596.91	5.58
597.247	5.77
597.584	5.57
597.921	5.73
598.258	5.78
598.594	5.71
598.931	5.39
599.268	5.41
599.604	5.68
599.941	5.62
600.277	5.67
600.614	5.52
600.95	5.7
601.287	5.5
601.623	5.55
601.959	5.84
602.296	5.6
602.632	5.53
602.968	5.42
603.304	5.72
603.64	5.53
603.976	5.76
604.312	5.68
604.648	5.73
604.984	5.85
605.319	5.48
605.655	5.51
605.991	5.34
606.326	5.42
606.662	5.48
606.998	5.33
607.333	5.53
607.668	5.26
608.004	5.53
608.339	5.39
608.674	5.57
609.01	5.44
609.345	5.68
609.68	5.64
610.015	5.41
610.35	5.68
610.685	5.76
611.02	5.3
611.355	5.23
611.689	5.33
612.024	5.54
612.359	5.52
612.694	5.59
613.028	5.69
613.363	5.42
613.697	5.6
614.032	5.58
614.366	5.63
614.7	5.65
615.035	5.61
615.369	5.46
615.703	5.52
616.037	5.77
616.371	5.6
616.705	5.68
617.039	5.57
617.373	5.56
617.707	6.02
618.041	5.49
618.375	5.43
618.709	5.72
619.042	5.43
619.376	5.88
619.71	5.58
620.043	5.67
620.377	5.46
620.71	5.76
621.043	5.48
621.377	5.24
621.71	5.57
622.043	5.54
622.376	5.65
622.709	5.69
623.043	5.39
623.376	5.37
623.709	5.5
624.041	5.7
624.374	5.56
624.707	5.26
625.04	5.68
625.373	5.76
625.705	5.5
626.038	5.54
626.37	5.55
626.703	5.3
627.035	5.41
627.368	5.6
627.7	5.63
628.032	5.34
628.365	5.65
628.697	5.73
629.029	5.47
629.361	5.58
629.693	5.56
630.025	5.59
630.357	5.77
630.689	5.12
631.021	5.76
631.353	5.72
631.684	5.23
632.016	5.39
632.348	5.68
632.679	5.23
633.011	5.27
633.342	5.41
633.674	5.21
634.005	5.71
634.336	6.06
634.668	5.43
634.999	5.26
635.33	5.15
635.661	5.77
635.992	5.39
636.323	5.56
636.654	5.64
636.985	5.44
637.316	5.61
637.647	5.38
637.977	5.28
638.308	5.41
638.639	5.56
638.969	5.6
639.3	5.45
639.63	5.48
639.961	5.7
640.291	5.87
640.622	5.39
640.952	5.87
641.282	5.29
641.612	5.58
641.943	5.69
642.273	5.44
642.603	5.48
642.933	5.65
643.263	5.76
643.592	5.34
643.922	6.13
644.252	5.18
644.582	5.41
644.911	5.9
645.241	5.69
645.571	5.92
645.9	5.38
646.23	5.66
646.559	5.43
646.888	5.42
647.218	5.74
647.547	5.4
647.876	5.68
648.205	5.37
648.534	5.54
648.863	6.11
649.192	5.13
649.521	5.53
649.85	5.57
650.179	5.72
650.508	5.35
650.837	5.28
651.165	5.6
651.494	5.23
651.822	5.5
652.151	5.65
652.479	5.56
652.808	5.96
653.136	5.15
653.465	5.56
653.793	5.46
654.121	5.99
654.449	5.49
654.777	5.46
655.105	5.55
655.433	5.7
655.761	5.78
656.089	5.83
656.417	5.6
656.745	5.87
657.073	5.42
657.4	6.69
657.728	5.85
658.056	5.34
658.383	5.49
658.711	5.57
659.038	5.81
659.365	5.69
659.693	5.95
660.02	5.72
660.347	5.19
660.674	5.77
661.001	5.15
661.329	5.77
661.656	5.7
661.982	5.58
662.309	5.83
662.636	5.79
662.963	5.59
663.29	5.65
663.616	5.86
663.943	5.79
664.27	6
664.596	5.56
664.923	5.57
665.249	5.33
665.576	5.64
665.902	5.7
666.228	6.1
666.554	5.65
666.881	5.28
667.207	5.74
667.533	5.83
667.859	5.78
668.185	5.89
668.511	5.84
668.837	5.72
669.162	5.99
669.488	6.13
669.814	5.6
670.139	5.43
670.465	5.59
670.791	5.78
671.116	5.55
671.442	5.66
671.767	5.8
672.092	6.07
672.418	5.64
672.743	5.95
673.068	6.2
673.393	5.51
673.718	5.81
674.043	5.74
674.368	5.85
674.693	6.06
675.018	6.11
675.343	5.39
675.667	5.72
675.992	5.71
676.317	6.18
676.641	6.39
676.966	5.71
677.29	5.92
677.615	5.84
677.939	5.18
678.264	5.98
678.588	5.42
678.912	6.09
679.236	5.18
679.56	6.02
679.885	5.82
680.209	6.06
680.532	5.92
680.856	5.36
681.18	5.44
681.504	5.83
681.828	6.08
682.152	5.91
682.475	5.9
682.799	5.76
683.122	5.88
683.446	5.98
683.769	6.1
684.093	6.05
684.416	5.99
684.739	5.45
685.062	4.84
685.386	5.32
685.709	5.77
686.032	5.56
686.355	6.51
686.678	5.57
687.001	5.5
687.324	5.62
687.646	5.59
687.969	6.3
688.292	5.54
688.614	5.6
688.937	5.14
689.26	5.54
689.582	5.55
689.904	5.32
690.227	5.97
690.549	5.83
690.871	5.7
691.194	5.9
691.516	5.97
691.838	6.75
692.16	5.4
692.482	5.62
692.804	6.06
693.126	6.02
693.448	7.49
693.769	5.8
694.091	6.7
694.413	6.35
694.735	5.28
695.056	6.72
695.378	5.97
695.699	6.62
696.021	6.19
696.342	5.56
696.663	6.08
696.984	5.68
697.306	6.31
697.627	5.93
697.948	6.28
698.269	5.69
698.59	6.13
698.911	5.61
699.232	5.74
699.553	6.14
699.873	6.15
700.194	6.43
700.515	6.09
700.835	5.97
701.156	5.84
701.477	5.96
701.797	5.39
702.117	5.45
702.438	5.67
702.758	5.78
703.078	6.12
703.398	6.49
703.719	6.25
704.039	6.02
704.359	6.59
704.679	6.02
704.999	4.77
705.319	6.21
705.638	5.81
705.958	6.34
706.278	5.43
706.597	6
706.917	5.7
707.237	6.87
707.556	5.15
707.876	5.62
708.195	7.92
708.514	6.44
708.834	6.34
709.153	6.49
709.472	6.13
709.791	7.37
710.11	6.59
710.429	5.49
710.748	6.45
711.067	5.41
711.386	6.25
711.705	6.52
712.023	6.02
712.342	7.5
712.661	6.4
712.979	5.84
713.298	6.58
713.616	5.35
713.935	6.79
714.253	5.89
714.572	6.52
714.89	6.28
715.208	6.4
715.526	6.63
715.844	6.28
716.162	7.2
716.48	6.78
716.798	5.9
717.116	5.18
717.434	5.24
717.752	5.88
718.069	5.9
718.387	6.54
718.705	5.59
719.022	6.57
719.34	6.76
719.657	6.09
719.975	5.93
720.292	6.73
720.609	5.86
720.927	5.64
721.244	6.93
721.561	5.67
721.878	6.09
722.195	7.06
722.512	6.68
722.829	7.55
723.146	7.09
723.463	6.22
723.779	6.66
724.096	6.01
724.413	6.57
724.729	6.82
725.046	7.69
725.362	7.16
725.679	5.17
725.995	7.1
726.311	7.24
726.628	6.38
726.944	6.18
727.26	6.27
727.576	5.91
727.892	7.06
728.208	7.14
728.524	5.42
728.84	5.53
729.156	8.2
729.472	6.14
729.787	6.32
730.103	6.33
730.419	6.45
730.734	6.56
731.05	5.04
731.365	5.46
731.681	6.26
731.996	7.32
732.311	7.17
732.626	6.57
732.942	5.97
733.257	5.51
733.572	7.41
733.887	6.12
734.202	7.21
734.517	6.8
734.832	6.49
735.146	7.49
735.461	6.95
735.776	6.09
736.091	7.1
736.405	6.49
736.72	7.28
737.034	6.48
737.349	6.35
737.663	6.28
737.977	6.98
738.292	5.75
738.606	6.45
738.92	4.67
739.234	6.14
739.548	6.11
739.862	6.87
740.176	6.73
740.49	7.19
740.804	7.3
741.117	6.96
741.431	6.18
741.745	5.01
742.058	5.46
742.372	6.42
742.685	7
742.999	7.01
743.312	8.72
743.626	6.66
743.939	8.86
744.252	7.06
744.565	6.44
744.878	7.26
745.191	6.29
745.505	5.26
745.817	5.63
746.13	7.73
746.443	9.27
746.756	6.29
747.069	5.41
747.381	8.81
747.694	7.23
748.007	8.51
748.319	7.76
748.632	4.91
748.944	7.02
749.256	8.06
749.569	6.53
749.881	9.12
750.193	5.62
750.505	6.32
750.817	7.64
751.129	8.16
751.441	6.69
751.753	6.84
752.065	7.98
752.377	7.25
752.689	6.53
753	6.15
753.312	6.01
753.624	4.41
753.935	7.23
754.247	5.84
754.558	7.33
754.869	9.14
755.181	5.7
755.492	6.79
755.803	5.91
756.114	5.28
756.425	7.45
756.736	7.7
757.047	7.97
757.358	6.75
757.669	8.03
757.98	5.54
758.291	7.46
758.601	8.13
758.912	8.35
759.223	5.6
759.533	7.43
759.844	7.89
760.154	8.47
760.464	7.97
760.775	6.83
761.085	5.93
761.395	8.95
761.705	6.05
762.016	8.58
762.326	8.79
762.636	8.61
762.945	8.56
763.255	8.39
763.565	7.02
763.875	7.07
764.185	6.78
764.494	9.59
764.804	8.34
765.113	6.78
765.423	6.9
765.732	7.07
766.042	6.73
766.351	7.14
766.66	7.12
766.97	6.58
767.279	6.49
767.588	6.2
767.897	8.4
768.206	5.51
768.515	5.95
768.824	6.99
769.133	6.18
769.441	7.12
769.75	8.54
770.059	7.75
770.367	8.05
770.676	9.69
770.984	7.75
771.293	5.95
771.601	8.6
771.91	8.47
772.218	10.18
772.526	6.4
772.834	6.07
773.142	7.62
773.45	5.59
773.758	7.4
774.066	7.39
774.374	5.72
774.682	7.21
774.99	5.89
775.298	3.36
775.605	7.48
775.913	9.92
776.22	6.7
776.528	6.33
776.835	6.84
777.143	5.39
777.45	10.49
777.757	5.6
778.065	12
778.372	10.7
778.679	7.3
778.986	6.35
779.293	7.39
779.6	9.97
779.907	6.21
780.214	7.69
780.52	13.05
780.827	5.84
781.134	6.76
781.44	7.15
781.747	7.2
782.053	8.24
782.36	8.79
782.666	6.86
782.973	7.86
783.279	4.77
783.585	9.37
783.891	3.68
784.197	9.93
784.503	10.06
784.809	4.95
785.115	5.96
785.421	8.47
785.727	10.11
786.033	10.94
786.339	10.1
786.644	7.48
786.95	8.93
787.255	11.03
787.561	5.26
787.866	6.65
788.172	10.04
788.477	4.4
788.782	6
789.088	11.61
789.393	6.67
789.698	6.22
790.003	4.41
790.308	10.12
790.613	6.86
790.918	12.35
791.223	10.98
791.527	5.48
791.832	12.93
792.137	7.68
792.441	7.1
792.746	6.91
793.05	6.68
793.355	11.2
793.659	11.69
793.963	9.68
794.268	5.81
794.572	10.05
794.876	4.94
795.18	6.95
795.484	4.49
795.788	9.54
796.092	6.91
796.396	8.21
796.7	6.05
797.004	10.42
797.307	8.13
797.611	9.28
797.915	4.82
798.218	8.68
798.522	5.19
798.825	12.68
799.128	11
799.432	9.45
799.735	8.72
800.038	7.55
800.341	5.55
800.644	13.2
800.947	4.72
801.25	9.28
801.553	11.3
801.856	11.36
802.159	6.86
802.462	7.19
802.764	7.32
803.067	8.05
803.37	5.68
803.672	8.19
803.975	9.88
804.277	9.49
804.579	4.66
804.882	10.4
805.184	9
805.486	10.75
805.788	15.7
806.09	7.14
806.392	7.38
806.694	6.93
806.996	12.2
807.298	6.99
807.6	11.6
807.902	8.25
808.203	13.64
808.505	13.17
808.807	3.54
809.108	1.74
809.409	10.49
809.711	3.37
810.012	11.72
810.313	4.47
810.615	2.93
810.916	13.46
811.217	8.28
811.518	4.82
811.819	7.85
812.12	10.09
812.421	3.86
812.722	9.14
813.023	10.49
813.323	5.57
813.624	6.79
813.925	11.88
814.225	7.6
814.526	8.27
814.826	12.33
815.126	8.06
815.427	7.97
815.727	15.71
816.027	2.86
816.327	15.03
816.627	13.64
816.927	3.96
817.227	7.62
817.527	1.38
817.827	4.45
818.127	2.78
818.427	7.63
818.727	3.9
819.026	5.19
819.326	13.24
819.625	7.34
819.925	5.89
820.224	10.39
820.524	13.39
820.823	6.44
821.122	7.64
821.421	7.72
821.72	16.57
822.019	9.85
822.318	9.24
822.617	2.6
822.916	9.97
823.215	10.78
823.514	9.05
823.813	9.49
824.111	9.52
824.41	8.67
824.709	10.23
825.007	7.93
825.306	9.98
825.604	8.18
825.902	9.41
826.201	9.49
826.499	8.4
826.797	9.66
827.095	7.72
827.393	9.46
827.691	10.27
827.989	9.23
828.287	11.67
828.585	9.1
828.882	8.27
829.18	9.12
829.478	10.28
829.775	9.26
830.073	8.68
830.37	10.03
830.668	8.85
830.965	9.18
831.263	8.4
831.56	10.35
831.857	10.03
832.154	10.9
832.451	13.04
832.748	8.03
833.045	7.62
833.342	16.75
833.639	12.78
833.936	10.82
834.232	10.53
834.529	13.7
834.826	6.46
835.122	11.4
835.419	14.23
835.715	7.69
836.012	9.2
836.308	8.02
836.604	12.5
836.901	9.46
837.197	10.73
837.493	9.2
837.789	8.71
838.085	9.04
838.381	12.86
838.677	10.39
838.972	11.71
839.268	8.1
839.564	14.26
839.86	8.62
840.155	9.55
840.451	9.86
840.746	16.6
841.042	9.14
841.337	7.03
841.632	9.86
841.928	19.03
842.223	9.49
842.518	3.3
842.813	16.73
843.108	18.83
843.403	7.48
843.698	16.37
843.993	4.4
844.287	5.85
844.582	16.14
844.877	15.49
845.171	14.32
845.466	-1.29
845.761	9.02
846.055	12.11
846.349	15.02
846.644	15.91
846.938	19.74
847.232	6.93
847.526	11.22
847.82	-9.35
848.114	22.98
848.408	25.82
848.702	9.28
848.996	21.87
849.29	8.18
849.584	-12.89
849.877	23.96
850.171	25.49
850.465	22.11
850.758	-7.31
851.052	13.75
851.345	15.79
851.638	9.9
851.932	6.78
852.225	25.68
852.518	32.41
852.811	14.4
853.104	24.08
853.397	19.93
853.69	10.76
853.983	-2.47
854.276	15.7
854.569	14.48
854.861	-1.72
855.154	37.96
855.447	18.15
855.739	5.2
856.032	23.52
856.324	-1.77
856.616	-2.91
856.909	23.51
857.201	20.86
857.493	9.66
857.785	14.25
858.077	26.69
858.369	31.54
858.661	11.03
858.953	-7.23
859.245	-10.64
859.537	6.08
859.829	-1.35
860.12	15.93
860.412	27.57
860.703	24.17
860.995	25.86
861.286	10.78
861.578	24.38
861.869	-2.38
862.16	5.52
862.452	10.53
862.743	14.49
863.034	15.88
863.325	21.55
863.616	11.16
863.907	15.86
864.198	21.73
864.488	4.61
864.779	7.49
865.07	12.62
865.36	23.3
865.651	22.81
865.941	26.67
866.232	11.31
866.522	5.15
866.813	-12.36
867.103	-33.18
867.393	35.32
867.683	26.61
867.973	32.5
868.263	7.52
868.553	15.82
868.843	-3.22
869.133	37.01
869.423	10
869.713	11.63
870.002	32.15
870.292	7
870.582	16.99
870.871	-14.56
871.161	-0.03
871.45	13.07
871.739	28.18
872.029	-11
872.318	12.82
872.607	35.28
872.896	17.27
873.185	21.29
873.474	1.71
873.763	5.08
874.052	0.5
874.341	16.42
874.63	11.91
874.918	24.47
875.207	21.69
875.496	-0.13
875.784	-14.25
876.073	-1.72
876.361	25.17
876.649	-1.06
876.938	3.33
877.226	22.37
877.514	-4.74
877.802	7.69
878.09	-3.02
878.378	34.42
878.666	-1.86
878.954	6.33
879.242	16.69
879.53	32.5
879.817	13
880.105	11.46
880.392	32.96
880.68	-4.16
880.967	-0.03
881.255	21.84
881.542	10.62
881.83	8.96
882.117	34.64
882.404	7.3
882.691	38.13
882.978	22.15
883.265	-20.88
883.552	13.81
883.839	4.71
884.126	19.92
884.413	24.64
884.699	22.46
884.986	25.31
885.273	14.36
885.559	14.36
885.846	14.36
