Data from 0072_crown_Reflection__0__259.txt Node

Date: Fri Dec 16 15:57:37 CST 2022
User: ToomeyLab
Spectrometer: FLMS14357
Trigger mode: 0
Integration Time (sec): 1.000000E-2
Scans to average: 100
Electric dark correction enabled: true
Nonlinearity correction enabled: false
Boxcar width: 0
XAxis mode: Wavelengths
Number of Pixels in Spectrum: 2048
>>>>>Begin Spectral Data<<<<<
189.047	32.25
189.435	32.25
189.823	32.25
190.211	-239.99
190.599	621.26
190.987	-59.19
191.375	-656.6
191.763	179.92
192.151	32.49
192.538	48.34
192.926	-3845.45
193.314	350.28
193.702	-797.1
194.089	1557.72
194.477	20.97
194.864	-40.56
195.252	484.62
195.639	96.5
196.027	-24.8
196.414	287.41
196.801	-194.17
197.189	134.61
197.576	86.39
197.963	-253.49
198.351	7.49
198.738	-15.03
199.125	39.29
199.512	-2.45
199.899	-15.56
200.286	-51.26
200.673	10.5
201.06	19.47
201.447	37.94
201.833	5.05
202.22	6.72
202.607	-5.65
202.994	-55.86
203.38	0.57
203.767	7.23
204.154	-66.09
204.54	13.36
204.927	-8.4
205.313	38.72
205.699	11.05
206.086	-34.12
206.472	-15.02
206.858	12.14
207.245	22.14
207.631	-19.76
208.017	5.85
208.403	19.74
208.789	-0.24
209.175	55.93
209.561	18.73
209.947	-27.91
210.333	-1.4
210.719	24.33
211.105	0.67
211.491	-38.2
211.876	11.45
212.262	-47.57
212.648	-27.15
213.034	-18.15
213.419	21.27
213.805	5.59
214.19	-23.77
214.576	-5.59
214.961	-19.26
215.346	-32.06
215.732	10.7
216.117	-12.82
216.502	5.33
216.888	-16.31
217.273	2.19
217.658	-5.17
218.043	-16.65
218.428	-5.46
218.813	-15.37
219.198	-9.93
219.583	23.75
219.968	-3.59
220.353	31.89
220.738	-16.53
221.122	-26
221.507	-3.81
221.892	-4.22
222.276	1.69
222.661	-11.11
223.046	5.27
223.43	3.45
223.815	0.29
224.199	8.68
224.583	-0.1
224.968	1.12
225.352	-0.22
225.736	12.63
226.121	-0.63
226.505	2.2
226.889	2.5
227.273	4.99
227.657	3.83
228.041	7.72
228.425	6.3
228.809	7.72
229.193	2.15
229.577	5.52
229.961	6.11
230.344	6.18
230.728	6.17
231.112	6.6
231.495	6
231.879	6.53
232.263	5.4
232.646	6.05
233.03	4.96
233.413	6.94
233.797	7.64
234.18	3.52
234.563	5.42
234.946	6.28
235.33	7.11
235.713	5.96
236.096	5.31
236.479	6.2
236.862	8.54
237.245	5.9
237.628	7.38
238.011	6.61
238.394	7.69
238.777	6.22
239.16	3.4
239.543	6.26
239.925	7.13
240.308	7.59
240.691	5.4
241.073	5.62
241.456	5.69
241.838	5.35
242.221	6.06
242.603	5.51
242.986	6.6
243.368	6.07
243.75	6.01
244.133	6.34
244.515	6.25
244.897	5.64
245.279	6.27
245.661	6.32
246.043	6.69
246.425	5.6
246.807	5.63
247.189	6.16
247.571	6.3
247.953	6.22
248.335	6.27
248.717	6.24
249.098	6.34
249.48	5.64
249.862	6.53
250.243	5.74
250.625	6
251.006	6.11
251.388	6.02
251.769	5.76
252.151	5.75
252.532	6.25
252.913	5.97
253.295	6.3
253.676	6.25
254.057	5.74
254.438	5.89
254.819	5.29
255.2	4.98
255.581	5.05
255.962	5.7
256.343	6.57
256.724	5.35
257.105	5.69
257.486	5.79
257.867	4.29
258.247	5.91
258.628	6.41
259.009	5.92
259.389	5.99
259.77	6.05
260.15	6.37
260.531	5.67
260.911	5.71
261.292	5.8
261.672	5.67
262.052	5.72
262.432	5.56
262.813	5.95
263.193	5.06
263.573	6.13
263.953	5.81
264.333	5.49
264.713	5.42
265.093	4.86
265.473	6.25
265.853	5.48
266.233	5.22
266.612	5.32
266.992	5.5
267.372	5.28
267.752	5.38
268.131	5.76
268.511	5.19
268.89	5.7
269.27	5.48
269.649	5.76
270.029	5.43
270.408	5.26
270.787	5.95
271.167	5.79
271.546	5.15
271.925	5.62
272.304	5.66
272.683	5.3
273.062	5.58
273.441	5.74
273.82	5.93
274.199	5.54
274.578	5.17
274.957	5.41
275.336	5.52
275.715	5.49
276.093	5.83
276.472	5.28
276.851	5.52
277.229	5.82
277.608	5.07
277.986	5.37
278.365	5.47
278.743	5.54
279.122	5.15
279.5	5.14
279.878	4.35
280.257	5.68
280.635	4.93
281.013	5.74
281.391	5.52
281.769	5.29
282.147	5.01
282.525	5.27
282.903	4.99
283.281	5.17
283.659	5.6
284.037	5.23
284.415	5.42
284.792	5.58
285.17	4.86
285.548	5.14
285.925	5.1
286.303	4.98
286.68	5.44
287.058	5.35
287.435	5.28
287.813	5.33
288.19	5.72
288.567	4.7
288.945	5.21
289.322	4.68
289.699	4.97
290.076	5.23
290.453	4.61
290.83	5.48
291.207	5.12
291.584	4.89
291.961	4.89
292.338	4.89
292.715	5.56
293.092	5.25
293.469	5.3
293.845	4.71
294.222	5.31
294.599	5.61
294.975	5.1
295.352	5.38
295.728	5.25
296.105	5.05
296.481	5.23
296.858	5.42
297.234	5.01
297.61	5.3
297.986	5.17
298.363	4.74
298.739	5.01
299.115	4.81
299.491	5.17
299.867	5.25
300.243	5.01
300.619	5.14
300.995	4.53
301.371	5.42
301.746	5.26
302.122	4.97
302.498	4.99
302.874	5.08
303.249	5.33
303.625	4.77
304	4.85
304.376	5.14
304.751	5.26
305.127	4.65
305.502	5.1
305.878	4.79
306.253	4.77
306.628	5
307.003	5.42
307.378	5.08
307.754	5.11
308.129	4.59
308.504	4.5
308.879	4.99
309.254	5.16
309.629	4.62
310.003	5.22
310.378	5.21
310.753	4.62
311.128	4.83
311.502	4.61
311.877	4.88
312.252	4.49
312.626	4.73
313.001	4.51
313.375	4.75
313.75	4.98
314.124	5.33
314.498	4.87
314.873	4.63
315.247	4.28
315.621	5.67
315.995	5.31
316.369	5.17
316.743	5.25
317.117	4.72
317.491	4.92
317.865	4.12
318.239	5.44
318.613	5.08
318.987	5.44
319.361	5.07
319.734	4.75
320.108	5.2
320.482	4.72
320.855	4.5
321.229	4.86
321.602	4.88
321.976	4.72
322.349	3.91
322.723	4.48
323.096	4.27
323.469	4.21
323.843	4.74
324.216	4.22
324.589	4.83
324.962	4.88
325.335	4.85
325.708	4.92
326.081	5.24
326.454	5.27
326.827	5.01
327.2	5.33
327.573	4.9
327.945	4.93
328.318	4.99
328.691	5.02
329.063	4.61
329.436	4.94
329.809	4.76
330.181	4.85
330.553	5.18
330.926	5.06
331.298	5.07
331.671	4.98
332.043	4.95
332.415	4.63
332.787	5.53
333.159	4.82
333.532	4.87
333.904	4.77
334.276	5.03
334.648	4.96
335.02	4.85
335.391	4.75
335.763	4.66
336.135	5.02
336.507	5.42
336.879	4.71
337.25	4.89
337.622	4.67
337.993	4.77
338.365	4.94
338.736	4.97
339.108	4.43
339.479	4.85
339.851	5.24
340.222	5.16
340.593	4.77
340.964	4.64
341.336	4.17
341.707	4.73
342.078	4.37
342.449	5.31
342.82	4.66
343.191	4.61
343.562	4.72
343.933	5.08
344.303	5.07
344.674	4.76
345.045	4.95
345.416	4.77
345.786	4.31
346.157	4.66
346.527	4.31
346.898	4.93
347.268	4.67
347.639	4.79
348.009	5.21
348.38	4.71
348.75	4.56
349.12	4.81
349.49	4.66
349.861	4.95
350.231	4.9
350.601	4.96
350.971	5.17
351.341	4.96
351.711	4.5
352.081	4.91
352.45	5.28
352.82	4.88
353.19	4.31
353.56	4.81
353.929	5.04
354.299	4.73
354.669	5.14
355.038	4.81
355.408	5.04
355.777	4.9
356.147	5.01
356.516	5.03
356.885	4.8
357.254	4.74
357.624	4.98
357.993	5.2
358.362	5.05
358.731	5.04
359.1	4.9
359.469	5.18
359.838	4.99
360.207	4.73
360.576	5.11
360.945	4.73
361.314	5.09
361.682	4.5
362.051	4.95
362.42	5.08
362.788	5.08
363.157	4.75
363.525	4.82
363.894	4.81
364.262	4.86
364.631	5.62
364.999	4.8
365.367	4.99
365.735	4.63
366.104	4.79
366.472	5.16
366.84	5.11
367.208	4.72
367.576	4.97
367.944	5.35
368.312	4.76
368.68	5.33
369.048	5.18
369.416	4.9
369.783	5.01
370.151	5.15
370.519	4.83
370.886	5.02
371.254	5.06
371.621	5.25
371.989	4.81
372.356	5.08
372.724	4.94
373.091	4.98
373.458	5.14
373.826	5.05
374.193	5.21
374.56	4.75
374.927	5.15
375.294	5.44
375.661	5.02
376.028	5.01
376.395	4.85
376.762	5.41
377.129	5.52
377.496	5.06
377.863	5.02
378.229	4.98
378.596	4.9
378.963	4.86
379.329	4.94
379.696	4.95
380.062	5.28
380.429	4.97
380.795	4.99
381.161	4.99
381.528	4.67
381.894	5.19
382.26	5.32
382.626	5.11
382.993	5.14
383.359	5.12
383.725	5.27
384.091	5.09
384.457	5.26
384.823	5.26
385.188	5.25
385.554	5.03
385.92	5.2
386.286	5.62
386.651	4.92
387.017	5.26
387.383	5.23
387.748	5.06
388.114	5.42
388.479	5.13
388.845	5.09
389.21	5.19
389.575	5.35
389.94	5.09
390.306	5.34
390.671	5.04
391.036	5.3
391.401	5.52
391.766	5.16
392.131	5.22
392.496	5.39
392.861	4.97
393.226	5.09
393.591	5.38
393.956	5.33
394.32	5.35
394.685	5.4
395.05	4.83
395.414	5.21
395.779	5.23
396.143	5.37
396.508	5.15
396.872	5.25
397.236	4.95
397.601	5.4
397.965	5.08
398.329	5.54
398.694	5.26
399.058	5.26
399.422	5.42
399.786	5.35
400.15	5.34
400.514	5.41
400.878	5.19
401.242	5.42
401.605	5.26
401.969	5.47
402.333	5.21
402.697	5.4
403.06	5.35
403.424	5.2
403.787	5.48
404.151	5.31
404.514	5.36
404.878	5.42
405.241	5.24
405.604	5.43
405.968	5.43
406.331	5.58
406.694	5.26
407.057	5.66
407.42	5.33
407.783	5.36
408.146	5.12
408.509	5.38
408.872	5.32
409.235	5.53
409.598	5.45
409.961	5.56
410.323	5.57
410.686	5.39
411.049	5.31
411.411	5.38
411.774	5.33
412.136	5.47
412.499	5.41
412.861	5.2
413.223	5.57
413.586	5.25
413.948	5.56
414.31	5.54
414.672	5.44
415.035	5.64
415.397	5.6
415.759	5.61
416.121	5.58
416.483	5.67
416.845	5.59
417.206	5.46
417.568	5.62
417.93	5.51
418.292	5.48
418.653	5.58
419.015	5.58
419.377	5.5
419.738	5.45
420.1	5.47
420.461	5.43
420.822	5.55
421.184	5.56
421.545	5.35
421.906	5.5
422.267	5.33
422.629	5.4
422.99	5.49
423.351	5.52
423.712	5.51
424.073	5.52
424.434	5.41
424.795	5.43
425.155	5.41
425.516	5.47
425.877	5.58
426.238	5.43
426.598	5.62
426.959	5.4
427.32	5.57
427.68	5.72
428.041	5.64
428.401	5.56
428.761	5.42
429.122	5.5
429.482	5.64
429.842	5.62
430.202	5.7
430.563	5.74
430.923	5.65
431.283	5.67
431.643	5.69
432.003	5.75
432.363	5.63
432.722	5.72
433.082	5.6
433.442	5.72
433.802	5.58
434.161	5.52
434.521	5.77
434.881	5.62
435.24	5.71
435.6	5.69
435.959	5.68
436.319	5.59
436.678	5.69
437.037	5.65
437.396	5.75
437.756	5.78
438.115	5.56
438.474	5.86
438.833	5.75
439.192	5.79
439.551	5.71
439.91	5.77
440.269	5.81
440.628	5.6
440.987	5.63
441.345	5.78
441.704	5.74
442.063	5.66
442.421	5.76
442.78	5.68
443.138	5.68
443.497	5.6
443.855	5.74
444.214	5.7
444.572	5.68
444.93	5.65
445.288	5.76
445.647	5.85
446.005	5.68
446.363	5.78
446.721	5.59
447.079	5.72
447.437	5.66
447.795	5.73
448.153	5.69
448.51	5.71
448.868	5.87
449.226	5.79
449.584	5.83
449.941	5.76
450.299	5.63
450.656	5.84
451.014	5.74
451.371	5.88
451.729	5.92
452.086	5.68
452.443	5.77
452.801	5.89
453.158	5.86
453.515	5.84
453.872	5.91
454.229	5.78
454.586	5.8
454.943	5.92
455.3	6.13
455.657	5.82
456.014	6.01
456.371	6.03
456.727	5.83
457.084	5.81
457.441	6
457.797	5.87
458.154	5.84
458.51	5.77
458.867	5.85
459.223	5.92
459.58	5.96
459.936	5.75
460.292	5.99
460.648	5.69
461.005	5.78
461.361	5.81
461.717	5.93
462.073	5.87
462.429	5.94
462.785	5.93
463.141	6.04
463.496	5.85
463.852	6.04
464.208	6.06
464.564	5.93
464.919	5.92
465.275	6.02
465.631	6.1
465.986	6.07
466.342	6.13
466.697	6.03
467.052	6.08
467.408	6.01
467.763	5.89
468.118	5.97
468.473	6.14
468.829	5.92
469.184	6.19
469.539	5.91
469.894	6.04
470.249	6.09
470.603	6.18
470.958	6.23
471.313	6.06
471.668	6.08
472.023	6.28
472.377	5.97
472.732	6.01
473.086	5.92
473.441	6.09
473.795	6.26
474.15	6.04
474.504	5.99
474.859	6.07
475.213	6.19
475.567	6.02
475.921	6.09
476.275	6.18
476.63	6.02
476.984	6.02
477.338	6.38
477.692	6.1
478.045	5.89
478.399	6.07
478.753	6.14
479.107	6.21
479.461	6.17
479.814	6.03
480.168	6.12
480.521	6.13
480.875	6.28
481.228	6.27
481.582	6.11
481.935	5.98
482.289	6.11
482.642	6.08
482.995	6.11
483.348	5.96
483.701	6.05
484.055	6.07
484.408	5.93
484.761	5.79
485.114	5.71
485.466	5.72
485.819	5.79
486.172	5.82
486.525	5.9
486.878	5.93
487.23	5.93
487.583	6
487.936	5.94
488.288	5.9
488.641	5.87
488.993	5.84
489.345	5.83
489.698	5.94
490.05	5.88
490.402	6.04
490.754	6.13
491.107	6.06
491.459	6.1
491.811	6.13
492.163	6.08
492.515	6.04
492.866	5.91
493.218	5.93
493.57	5.97
493.922	5.98
494.274	6.08
494.625	6.09
494.977	6.11
495.328	6.19
495.68	6.34
496.031	6.22
496.383	6.12
496.734	6.29
497.086	6.18
497.437	6.29
497.788	6.16
498.139	6.12
498.49	6.22
498.842	6.16
499.193	6.11
499.544	6.36
499.894	6.24
500.245	6.23
500.596	6.36
500.947	6.29
501.298	6.25
501.648	6.23
501.999	6.31
502.35	6.34
502.7	6.32
503.051	6.3
503.401	6.32
503.752	6.21
504.102	6.36
504.452	6.24
504.803	6.26
505.153	6.39
505.503	6.26
505.853	6.34
506.203	6.35
506.553	6.38
506.903	6.35
507.253	6.43
507.603	6.29
507.953	6.37
508.303	6.35
508.652	6.37
509.002	6.33
509.352	6.34
509.701	6.33
510.051	6.28
510.4	6.35
510.75	6.3
511.099	6.24
511.449	6.31
511.798	6.5
512.147	6.19
512.496	6.37
512.846	6.26
513.195	6.3
513.544	6.32
513.893	6.28
514.242	6.39
514.591	6.38
514.939	6.39
515.288	6.3
515.637	6.37
515.986	6.35
516.334	6.46
516.683	6.44
517.032	6.28
517.38	6.43
517.729	6.34
518.077	6.5
518.426	6.29
518.774	6.35
519.122	6.36
519.47	6.37
519.819	6.31
520.167	6.26
520.515	6.3
520.863	6.29
521.211	6.26
521.559	6.29
521.907	6.33
522.255	6.49
522.602	6.41
522.95	6.38
523.298	6.43
523.645	6.45
523.993	6.54
524.341	6.31
524.688	6.37
525.036	6.48
525.383	6.41
525.73	6.45
526.078	6.34
526.425	6.27
526.772	6.22
527.119	6.18
527.466	6.23
527.814	6.31
528.161	6.31
528.508	6.33
528.854	6.15
529.201	6.17
529.548	6.09
529.895	6.02
530.242	6.1
530.588	6.09
530.935	6.12
531.282	6.17
531.628	6.24
531.975	6.36
532.321	6.33
532.667	6.31
533.014	6.28
533.36	6.27
533.706	6.31
534.052	6.31
534.399	6.19
534.745	6.15
535.091	6.24
535.437	6.32
535.783	6.26
536.129	6.35
536.474	6.42
536.82	6.39
537.166	6.46
537.512	6.38
537.857	6.37
538.203	6.42
538.549	6.5
538.894	6.41
539.239	6.5
539.585	6.5
539.93	6.55
540.276	6.4
540.621	6.38
540.966	6.53
541.311	6.47
541.656	6.4
542.001	6.5
542.346	6.34
542.691	6.12
543.036	6.21
543.381	6.24
543.726	6.3
544.071	6.32
544.415	6.41
544.76	6.29
545.105	6.37
545.449	6.36
545.794	6.37
546.138	6.47
546.483	6.41
546.827	6.38
547.171	6.49
547.516	6.6
547.86	6.42
548.204	6.32
548.548	6.56
548.892	6.52
549.236	6.49
549.58	6.52
549.924	6.58
550.268	6.62
550.612	6.67
550.956	6.49
551.3	6.4
551.643	6.56
551.987	6.5
552.33	6.52
552.674	6.7
553.017	6.56
553.361	6.41
553.704	6.46
554.048	6.66
554.391	6.56
554.734	6.58
555.077	6.66
555.42	6.48
555.764	6.6
556.107	6.54
556.45	6.63
556.793	6.77
557.135	6.55
557.478	6.8
557.821	6.49
558.164	6.7
558.507	6.36
558.849	6.6
559.192	6.57
559.534	6.66
559.877	6.79
560.219	6.86
560.562	6.78
560.904	6.55
561.246	6.81
561.589	6.66
561.931	6.7
562.273	6.59
562.615	6.62
562.957	6.64
563.299	6.75
563.641	6.71
563.983	6.77
564.325	6.45
564.667	6.47
565.008	6.49
565.35	6.85
565.692	6.74
566.033	6.65
566.375	6.45
566.716	6.72
567.058	6.77
567.399	6.76
567.741	6.7
568.082	6.53
568.423	6.54
568.764	6.62
569.105	6.61
569.447	6.52
569.788	6.74
570.129	6.65
570.47	6.83
570.811	6.69
571.151	6.67
571.492	6.86
571.833	6.52
572.174	6.58
572.514	6.63
572.855	6.71
573.195	6.65
573.536	6.57
573.876	6.59
574.217	6.52
574.557	6.72
574.898	6.48
575.238	6.76
575.578	6.72
575.918	6.68
576.258	6.57
576.598	6.65
576.938	6.76
577.278	6.61
577.618	6.55
577.958	6.81
578.298	6.61
578.638	6.76
578.977	6.74
579.317	6.88
579.657	6.79
579.996	6.75
580.336	6.71
580.675	6.72
581.014	6.55
581.354	6.77
581.693	6.67
582.032	6.68
582.372	6.72
582.711	6.72
583.05	6.87
583.389	6.88
583.728	6.93
584.067	6.73
584.406	6.7
584.745	6.59
585.083	6.94
585.422	6.82
585.761	6.91
586.1	6.87
586.438	6.75
586.777	6.86
587.115	6.73
587.454	6.71
587.792	6.57
588.13	6.97
588.469	7.06
588.807	6.79
589.145	7.03
589.483	6.67
589.821	6.65
590.159	6.82
590.497	6.42
590.835	6.65
591.173	6.96
591.511	6.67
591.849	6.59
592.187	6.91
592.524	6.73
592.862	6.93
593.2	6.79
593.537	6.48
593.875	6.73
594.212	6.67
594.55	6.68
594.887	7.08
595.224	6.84
595.561	6.92
595.899	6.81
596.236	6.68
596.573	6.47
596.91	6.86
597.247	6.73
597.584	6.89
597.921	6.77
598.258	6.69
598.594	6.7
598.931	6.78
599.268	6.64
599.604	6.81
599.941	6.63
600.277	6.9
600.614	7.16
600.95	7.04
601.287	6.76
601.623	6.94
601.959	6.85
602.296	7.17
602.632	7.05
602.968	6.65
603.304	6.79
603.64	6.76
603.976	6.94
604.312	6.92
604.648	6.95
604.984	6.86
605.319	6.85
605.655	6.92
605.991	6.8
606.326	6.76
606.662	6.65
606.998	6.86
607.333	6.68
607.668	6.92
608.004	6.98
608.339	6.8
608.674	6.67
609.01	6.94
609.345	7.06
609.68	6.71
610.015	6.82
610.35	6.74
610.685	6.91
611.02	7.05
611.355	6.97
611.689	6.81
612.024	7.01
612.359	6.82
612.694	7
613.028	7.13
613.363	6.94
613.697	6.77
614.032	7
614.366	6.69
614.7	7.36
615.035	6.72
615.369	6.79
615.703	7.24
616.037	6.78
616.371	6.83
616.705	6.57
617.039	7.13
617.373	7.03
617.707	6.91
618.041	7.03
618.375	7.06
618.709	7.13
619.042	6.92
619.376	6.77
619.71	6.94
620.043	6.5
620.377	7
620.71	6.97
621.043	6.8
621.377	6.74
621.71	6.96
622.043	7.14
622.376	6.9
622.709	7.25
623.043	6.97
623.376	7.27
623.709	7.3
624.041	6.68
624.374	7.15
624.707	6.86
625.04	6.99
625.373	6.99
625.705	7.21
626.038	7.02
626.37	6.93
626.703	7.31
627.035	6.99
627.368	7.15
627.7	6.96
628.032	6.75
628.365	6.89
628.697	6.81
629.029	7.27
629.361	6.95
629.693	7.12
630.025	7.1
630.357	6.74
630.689	7.21
631.021	7.29
631.353	7.4
631.684	7.36
632.016	6.76
632.348	7.03
632.679	6.91
633.011	6.93
633.342	7.33
633.674	7.01
634.005	7.05
634.336	7.08
634.668	6.98
634.999	7.22
635.33	7.13
635.661	7.17
635.992	7
636.323	7.03
636.654	6.84
636.985	7.41
637.316	7.43
637.647	7.15
637.977	7.06
638.308	6.95
638.639	7.38
638.969	6.84
639.3	7
639.63	6.92
639.961	7.22
640.291	7.34
640.622	7.28
640.952	7.37
641.282	6.7
641.612	6.92
641.943	7.25
642.273	7.23
642.603	7.2
642.933	7.15
643.263	7.01
643.592	7.61
643.922	7.72
644.252	7.17
644.582	7.22
644.911	7.1
645.241	6.93
645.571	6.94
645.9	7.26
646.23	7.02
646.559	7.65
646.888	6.96
647.218	7.41
647.547	7.18
647.876	7.48
648.205	6.86
648.534	7.03
648.863	7.32
649.192	7.07
649.521	6.89
649.85	7.77
650.179	6.89
650.508	7.74
650.837	7.26
651.165	7.29
651.494	6.98
651.822	7.1
652.151	7.55
652.479	7.54
652.808	6.84
653.136	7.3
653.465	7.31
653.793	7.76
654.121	7.37
654.449	7.41
654.777	7.24
655.105	8.05
655.433	7.81
655.761	7.18
656.089	7.57
656.417	7.03
656.745	7.82
657.073	7.67
657.4	7.16
657.728	7.62
658.056	7.19
658.383	7.68
658.711	7.64
659.038	7.65
659.365	7.52
659.693	7.11
660.02	7.3
660.347	7.49
660.674	7.13
661.001	6.99
661.329	7.52
661.656	7.35
661.982	7.41
662.309	7.22
662.636	7.58
662.963	7.53
663.29	7.42
663.616	7.14
663.943	7.65
664.27	7.87
664.596	7.39
664.923	7.42
665.249	7.43
665.576	7.19
665.902	7.07
666.228	7.11
666.554	6.98
666.881	7.84
667.207	6.93
667.533	7.96
667.859	7.54
668.185	7.68
668.511	7.05
668.837	6.8
669.162	7.19
669.488	7.64
669.814	7.81
670.139	7.82
670.465	7.69
670.791	7.54
671.116	7.48
671.442	7.4
671.767	7.31
672.092	8.01
672.418	7.58
672.743	7.19
673.068	7.03
673.393	6.97
673.718	7.53
674.043	7.47
674.368	8.27
674.693	8.04
675.018	7.43
675.343	7.41
675.667	7.47
675.992	7.05
676.317	8.19
676.641	7.44
676.966	7.73
677.29	7.86
677.615	7.66
677.939	7.42
678.264	7.4
678.588	7.18
678.912	7.52
679.236	7.88
679.56	6.97
679.885	7.5
680.209	7.18
680.532	7.42
680.856	7.73
681.18	7.63
681.504	7.51
681.828	7.04
682.152	7.28
682.475	7.58
682.799	7.92
683.122	7.4
683.446	7.6
683.769	7.7
684.093	7.34
684.416	7.33
684.739	7.34
685.062	7.94
685.386	7.34
685.709	7.03
686.032	7.82
686.355	7.73
686.678	7.12
687.001	6.88
687.324	7.83
687.646	7.45
687.969	7.02
688.292	8.22
688.614	8.16
688.937	7.21
689.26	7.35
689.582	8.32
689.904	7.5
690.227	8.05
690.549	7.68
690.871	8.21
691.194	8.47
691.516	8.05
691.838	7.73
692.16	7.78
692.482	7.87
692.804	7.51
693.126	7.68
693.448	7.85
693.769	7.36
694.091	8.17
694.413	7.74
694.735	7.78
695.056	7.66
695.378	8.07
695.699	9
696.021	7.65
696.342	7.53
696.663	8.47
696.984	8.13
697.306	7.71
697.627	8.22
697.948	7.62
698.269	7.72
698.59	8.14
698.911	7.84
699.232	8.15
699.553	8.2
699.873	8.21
700.194	7.94
700.515	7.66
700.835	8.16
701.156	8.5
701.477	7.8
701.797	8.57
702.117	8.7
702.438	8.4
702.758	7.91
703.078	7.71
703.398	8.62
703.719	8.59
704.039	8.32
704.359	8.51
704.679	7.18
704.999	7.98
705.319	7.92
705.638	7.96
705.958	8.2
706.278	8.52
706.597	8.13
706.917	8.28
707.237	7.9
707.556	7.65
707.876	6.99
708.195	7.66
708.514	8.05
708.834	8.23
709.153	9.71
709.472	8.18
709.791	8.62
710.11	8.3
710.429	7.88
710.748	7.7
711.067	7.94
711.386	8.66
711.705	8.19
712.023	7.95
712.342	7.4
712.661	9.13
712.979	9.25
713.298	8.27
713.616	9.41
713.935	8.18
714.253	8.8
714.572	7.97
714.89	8.39
715.208	9.15
715.526	8.3
715.844	8.87
716.162	8.44
716.48	7.22
716.798	8.58
717.116	8.89
717.434	8.19
717.752	7.37
718.069	7.27
718.387	7.99
718.705	7.74
719.022	9.08
719.34	8.25
719.657	8.73
719.975	7.87
720.292	8.16
720.609	8.61
720.927	8.7
721.244	8.75
721.561	9.1
721.878	8.4
722.195	9.01
722.512	9.28
722.829	8.9
723.146	8.1
723.463	7.17
723.779	7.77
724.096	7.09
724.413	8.54
724.729	9.69
725.046	9.23
725.362	7.5
725.679	8.65
725.995	8.4
726.311	9.37
726.628	7.78
726.944	8.65
727.26	7.24
727.576	9.06
727.892	7.89
728.208	8.04
728.524	9.31
728.84	8.53
729.156	9.59
729.472	9.82
729.787	9.55
730.103	8.93
730.419	9.65
730.734	8.48
731.05	8.41
731.365	8.73
731.681	7.87
731.996	6.99
732.311	8.68
732.626	8.49
732.942	9.03
733.257	8.81
733.572	8.56
733.887	9.75
734.202	9.47
734.517	7.52
734.832	9.61
735.146	8.51
735.461	8.19
735.776	10.01
736.091	8.89
736.405	9.21
736.72	9.79
737.034	8.45
737.349	7.9
737.663	8.28
737.977	7.66
738.292	9.61
738.606	8.75
738.92	10.01
739.234	9.07
739.548	9.16
739.862	8.71
740.176	7.19
740.49	9.3
740.804	10.08
741.117	9.07
741.431	8.47
741.745	8.77
742.058	8.43
742.372	7.77
742.685	7.28
742.999	9.34
743.312	6.57
743.626	9.22
743.939	9.13
744.252	8.66
744.565	7.74
744.878	10.24
745.191	8.54
745.505	7.35
745.817	8.95
746.13	7.89
746.443	8.03
746.756	8.01
747.069	8.51
747.381	7.31
747.694	6.95
748.007	9.99
748.319	9.61
748.632	7.07
748.944	8.94
749.256	10.19
749.569	7.95
749.881	9.89
750.193	9.05
750.505	10.53
750.817	8.5
751.129	9.26
751.441	9.19
751.753	11.49
752.065	8.75
752.377	8.95
752.689	9.3
753	7.18
753.312	9.86
753.624	9.24
753.935	7.9
754.247	9.63
754.558	9.94
754.869	9.26
755.181	8.27
755.492	10.28
755.803	8.13
756.114	8.71
756.425	9.39
756.736	8.97
757.047	10.87
757.358	9.75
757.669	9.78
757.98	10.05
758.291	9.82
758.601	9.21
758.912	7.83
759.223	10.07
759.533	11.39
759.844	9.86
760.154	9.96
760.464	8.83
760.775	10.51
761.085	9.28
761.395	10.18
761.705	11.05
762.016	8.49
762.326	8.92
762.636	10.32
762.945	7.81
763.255	8.67
763.565	8.83
763.875	9.02
764.185	11.64
764.494	8.32
764.804	10.54
765.113	9.83
765.423	9.9
765.732	9
766.042	10.71
766.351	9.96
766.66	8.59
766.97	10.73
767.279	10.96
767.588	9
767.897	10.13
768.206	10.77
768.515	9.13
768.824	9.7
769.133	11.56
769.441	11.17
769.75	7.83
770.059	9.03
770.367	7.78
770.676	9.55
770.984	9.05
771.293	9.4
771.601	6.35
771.91	9.39
772.218	9.06
772.526	9.31
772.834	12
773.142	9.74
773.45	5.12
773.758	10.95
774.066	7.81
774.374	9.66
774.682	5.69
774.99	6.9
775.298	9.73
775.605	7.7
775.913	7.25
776.22	8.6
776.528	6.56
776.835	9.1
777.143	8.7
777.45	9.09
777.757	6.15
778.065	9.32
778.372	8.48
778.679	12.3
778.986	7.91
779.293	6.83
779.6	8.65
779.907	3.19
780.214	10.06
780.52	12.14
780.827	10.26
781.134	8.15
781.44	7.38
781.747	10.57
782.053	12.92
782.36	8.5
782.666	10.6
782.973	9.95
783.279	9.57
783.585	9.2
783.891	11.38
784.197	8.74
784.503	8.76
784.809	11.57
785.115	3.6
785.421	8.9
785.727	9.43
786.033	10.96
786.339	8.47
786.644	10.61
786.95	11.67
787.255	11.37
787.561	11.54
787.866	10.01
788.172	9.72
788.477	6.27
788.782	8.25
789.088	10.11
789.393	7.99
789.698	7.06
790.003	11.72
790.308	6.93
790.613	10.25
790.918	10.02
791.223	9.6
791.527	8.78
791.832	9.99
792.137	11.55
792.441	10.64
792.746	10.91
793.05	11.62
793.355	14.38
793.659	9.87
793.963	11.87
794.268	5.91
794.572	14.83
794.876	10.68
795.18	5.52
795.484	9.51
795.788	10.32
796.092	12.91
796.396	11.89
796.7	9.1
797.004	11
797.307	8.47
797.611	8.15
797.915	12.74
798.218	11.97
798.522	7.79
798.825	10.15
799.128	9.16
799.432	11.13
799.735	8.12
800.038	7.64
800.341	8.27
800.644	12.17
800.947	11.8
801.25	5.43
801.553	8.8
801.856	8.38
802.159	8.92
802.462	8.84
802.764	10.87
803.067	8
803.37	8.59
803.672	7.81
803.975	11.45
804.277	13.62
804.579	14.1
804.882	7.47
805.184	9.33
805.486	14.66
805.788	10.39
806.09	4.54
806.392	17.72
806.694	9.71
806.996	9.68
807.298	10.98
807.6	7.95
807.902	10.45
808.203	11.71
808.505	6.35
808.807	15.72
809.108	8.37
809.409	12.15
809.711	9.34
810.012	12.55
810.313	5.48
810.615	7.02
810.916	6.74
811.217	12.61
811.518	14.14
811.819	1.51
812.12	14.51
812.421	8.08
812.722	6.79
813.023	15.45
813.323	16.27
813.624	10.01
813.925	5.68
814.225	12.95
814.526	14.26
814.826	10.69
815.126	17.74
815.427	4.44
815.727	9.27
816.027	13.76
816.327	3.46
816.627	10.63
816.927	6.97
817.227	9.33
817.527	8.62
817.827	10.8
818.127	12.77
818.427	11.27
818.727	13.31
819.026	13.22
819.326	18.19
819.625	12.27
819.925	8.52
820.224	12.69
820.524	12.01
820.823	5.28
821.122	8.39
821.421	13.98
821.72	11.79
822.019	13.07
822.318	15.28
822.617	10.63
822.916	9.12
823.215	14.34
823.514	10.02
823.813	11.71
824.111	11.01
824.41	11.13
824.709	13.37
825.007	13.4
825.306	12.8
825.604	13.23
825.902	13.24
826.201	11.67
826.499	11.89
826.797	12.97
827.095	9.78
827.393	12.48
827.691	12.71
827.989	12.57
828.287	14.92
828.585	9.71
828.882	10.78
829.18	12.84
829.478	10.88
829.775	13.47
830.073	12.66
830.37	11.5
830.668	12.13
830.965	10.55
831.263	12.53
831.56	13.94
831.857	15.72
832.154	12.9
832.451	14.18
832.748	9.65
833.045	12.76
833.342	7.2
833.639	9.57
833.936	10.76
834.232	12.16
834.529	13.34
834.826	12.35
835.122	8.44
835.419	10.69
835.715	12.38
836.012	9.18
836.308	14.34
836.604	9.85
836.901	19.23
837.197	13.61
837.493	12.07
837.789	12.61
838.085	13.18
838.381	11.67
838.677	7.85
838.972	6.91
839.268	11.27
839.564	12.68
839.86	8.61
840.155	10.88
840.451	2.64
840.746	10.13
841.042	5.35
841.337	6.98
841.632	15.08
841.928	9.51
842.223	6.81
842.518	14.73
842.813	14.01
843.108	4.27
843.403	17.52
843.698	11.14
843.993	8.59
844.287	9.23
844.582	20.7
844.877	13.9
845.171	11.98
845.466	-3.13
845.761	8.16
846.055	2.98
846.349	-14.42
846.644	17.17
846.938	-4.14
847.232	-5.5
847.526	28.1
847.82	-17.29
848.114	-2.39
848.408	19.29
848.702	11.37
848.996	8.55
849.29	11.35
849.584	4
849.877	9.57
850.171	20.29
850.465	-0.18
850.758	11.69
851.052	6.89
851.345	16.49
851.638	23.89
851.932	-20.55
852.225	-11.88
852.518	9.78
852.811	8.18
853.104	21.75
853.397	19
853.69	13.63
853.983	1.17
854.276	-8.57
854.569	14.8
854.861	5.89
855.154	12.41
855.447	10.95
855.739	-3.79
856.032	-13.14
856.324	2.32
856.616	10.5
856.909	11.32
857.201	11.66
857.493	-11.38
857.785	1.39
858.077	-15.45
858.369	-3.24
858.661	18.5
858.953	0.9
859.245	-13.45
859.537	19.21
859.829	14.4
860.12	15.08
860.412	-21.01
860.703	-1.03
860.995	-5.21
861.286	12.5
861.578	-14.06
861.869	3.2
862.16	6.81
862.452	1.98
862.743	25.44
863.034	14
863.325	-3.79
863.616	3.04
863.907	1.57
864.198	19.63
864.488	-7.13
864.779	9.23
865.07	1.53
865.36	9.55
865.651	-5.8
865.941	23.13
866.232	-6.58
866.522	28.97
866.813	24.01
867.103	14.15
867.393	3.74
867.683	28.43
867.973	16.37
868.263	8.66
868.553	24.31
868.843	-1.22
869.133	8.57
869.423	6.39
869.713	3.95
870.002	-17.59
870.292	10.74
870.582	8.97
870.871	51.18
871.161	-2.99
871.45	10.33
871.739	-31.1
872.029	-31.07
872.318	1.79
872.607	11.38
872.896	-9.42
873.185	22.55
873.474	21.46
873.763	-4.96
874.052	-12.22
874.341	-62.6
874.63	-10.88
874.918	-9.02
875.207	12.8
875.496	25.69
875.784	-25.2
876.073	11.42
876.361	-7.5
876.649	26.68
876.938	10.58
877.226	5.53
877.514	9.07
877.802	0.37
878.09	9.72
878.378	33.61
878.666	2.09
878.954	35.54
879.242	-15.12
879.53	-14.35
879.817	-1.73
880.105	-36.94
880.392	7.8
880.68	-9.46
880.967	26.42
881.255	-8.87
881.542	23.59
881.83	7.1
882.117	12.65
882.404	-9.49
882.691	-27.67
882.978	-1.46
883.265	19.61
883.552	5.82
883.839	18.69
884.126	-6.35
884.413	-0.65
884.699	14.86
884.986	12.53
885.273	12.12
885.559	12.12
885.846	12.12
