Data from 0072_crown_Reflection__3__262.txt Node

Date: Fri Dec 16 15:58:06 CST 2022
User: ToomeyLab
Spectrometer: FLMS14357
Trigger mode: 0
Integration Time (sec): 1.000000E-2
Scans to average: 100
Electric dark correction enabled: true
Nonlinearity correction enabled: false
Boxcar width: 0
XAxis mode: Wavelengths
Number of Pixels in Spectrum: 2048
>>>>>Begin Spectral Data<<<<<
189.047	83.89
189.435	83.89
189.823	83.89
190.211	-19.02
190.599	-248.5
190.987	-201.37
191.375	-937.02
191.763	83.25
192.151	23.76
192.538	122.06
192.926	3254.55
193.314	371.69
193.702	-890.29
194.089	520
194.477	-2.45
194.864	-7.72
195.252	1252.99
195.639	88.09
196.027	-20.76
196.414	-248.64
196.801	-102.29
197.189	228.67
197.576	-371.31
197.963	-153.61
198.351	11.31
198.738	-7.06
199.125	21.02
199.512	4.23
199.899	-10.71
200.286	-51.23
200.673	18.42
201.06	38.54
201.447	59.2
201.833	2.23
202.22	39.81
202.607	7.64
202.994	5.9
203.38	-50.8
203.767	-22.88
204.154	-13.35
204.54	25.24
204.927	38.14
205.313	29.4
205.699	-4.87
206.086	17.24
206.472	-29.77
206.858	-14.19
207.245	-3.04
207.631	-6.26
208.017	10.01
208.403	-11.58
208.789	10.67
209.175	22.7
209.561	15.97
209.947	-18.67
210.333	-19.7
210.719	-13.44
211.105	-38.77
211.491	-2.73
211.876	20.31
212.262	-11.55
212.648	21.83
213.034	-4.84
213.419	34.97
213.805	0.34
214.19	22.15
214.576	-23.5
214.961	8.55
215.346	-31.45
215.732	-30.26
216.117	28.1
216.502	-22.19
216.888	-35.8
217.273	21.03
217.658	-7.04
218.043	-19.02
218.428	23.5
218.813	6.42
219.198	-13.79
219.583	-9.82
219.968	18.13
220.353	14.56
220.738	-17.35
221.122	0.14
221.507	-12.12
221.892	-9.82
222.276	14.46
222.661	-8.51
223.046	8.07
223.43	-0.07
223.815	2.02
224.199	12.59
224.583	11.74
224.968	12.22
225.352	-6.05
225.736	3.51
226.121	-2.67
226.505	4.44
226.889	8.92
227.273	10.62
227.657	5.61
228.041	7.51
228.425	7.72
228.809	6.01
229.193	8.85
229.577	8.01
229.961	9
230.344	9.02
230.728	8.54
231.112	8.82
231.495	7.78
231.879	7.78
232.263	7.34
232.646	8.08
233.03	5.91
233.413	6.82
233.797	8.6
234.18	8.31
234.563	7.12
234.946	8.22
235.33	9.05
235.713	7.57
236.096	8.15
236.479	9.03
236.862	9.11
237.245	8.59
237.628	8.84
238.011	7.47
238.394	9.15
238.777	7.84
239.16	5.91
239.543	7.63
239.925	9.48
240.308	8.48
240.691	9.27
241.073	8.76
241.456	8.21
241.838	7.32
242.221	8.89
242.603	8.73
242.986	8.77
243.368	8.41
243.75	8.28
244.133	7.94
244.515	7.96
244.897	8.01
245.279	7.34
245.661	8.15
246.043	7.85
246.425	7.85
246.807	8.26
247.189	8.13
247.571	8.42
247.953	8
248.335	8.02
248.717	7.99
249.098	8.07
249.48	8.11
249.862	7.88
250.243	7.34
250.625	8.1
251.006	8.09
251.388	8.11
251.769	7.5
252.151	7.92
252.532	7.55
252.913	7.95
253.295	7.95
253.676	8.21
254.057	7.54
254.438	7.6
254.819	7.96
255.2	8.22
255.581	7.14
255.962	7.12
256.343	8.54
256.724	6.92
257.105	7.98
257.486	7.87
257.867	7.2
258.247	7.98
258.628	8.15
259.009	7.36
259.389	8.33
259.77	6.9
260.15	7.95
260.531	7.78
260.911	7.78
261.292	7.71
261.672	7.32
262.052	7.43
262.432	7.57
262.813	7.55
263.193	7
263.573	7.28
263.953	7.07
264.333	6.67
264.713	7.71
265.093	7.34
265.473	8.51
265.853	7.99
266.233	6.7
266.612	7.36
266.992	7.28
267.372	7.94
267.752	7.6
268.131	7.45
268.511	7.21
268.89	7.64
269.27	7.69
269.649	7.17
270.029	7.23
270.408	7.39
270.787	6.69
271.167	7.08
271.546	6.46
271.925	6.9
272.304	7.71
272.683	6.89
273.062	7.17
273.441	6.98
273.82	7.23
274.199	7.68
274.578	7.03
274.957	7.26
275.336	7.39
275.715	6.9
276.093	7.61
276.472	7.31
276.851	7.17
277.229	7.45
277.608	6.7
277.986	6.95
278.365	6.93
278.743	7.27
279.122	6.43
279.5	6.32
279.878	6.18
280.257	7.48
280.635	6.81
281.013	6.77
281.391	7.1
281.769	7.08
282.147	6.61
282.525	7.13
282.903	7.06
283.281	6.96
283.659	7.13
284.037	6.82
284.415	6.68
284.792	6.59
285.17	6.63
285.548	6.41
285.925	6.74
286.303	6.85
286.68	6.92
287.058	6.92
287.435	6.61
287.813	6.96
288.19	7.01
288.567	6.95
288.945	6.45
289.322	6.48
289.699	6.69
290.076	6.85
290.453	6.52
290.83	7.12
291.207	7.09
291.584	6.6
291.961	6.83
292.338	6.76
292.715	6.67
293.092	6.78
293.469	6.78
293.845	6.57
294.222	6.58
294.599	7.17
294.975	6.75
295.352	6.19
295.728	6.71
296.105	6.22
296.481	7.25
296.858	7.02
297.234	6.52
297.61	6.62
297.986	6.47
298.363	6.36
298.739	6.81
299.115	6.14
299.491	6.52
299.867	6.62
300.243	6.24
300.619	6.71
300.995	6.48
301.371	6.41
301.746	6.25
302.122	6.58
302.498	6.69
302.874	6.83
303.249	6.55
303.625	6.52
304	6.24
304.376	6.86
304.751	6.24
305.127	6.68
305.502	7.13
305.878	6.45
306.253	6.39
306.628	6.64
307.003	6.75
307.378	6
307.754	6.41
308.129	5.81
308.504	6.39
308.879	6.05
309.254	6.7
309.629	6.24
310.003	6.79
310.378	6.59
310.753	6.6
311.128	6.1
311.502	6.06
311.877	6.35
312.252	6.23
312.626	6.22
313.001	6.62
313.375	6.61
313.75	5.78
314.124	6.58
314.498	6.44
314.873	6.18
315.247	6.12
315.621	6.51
315.995	6.08
316.369	6.52
316.743	6.68
317.117	6.09
317.491	6.19
317.865	5.49
318.239	6.56
318.613	5.79
318.987	6.41
319.361	6.62
319.734	6.87
320.108	6.04
320.482	6.35
320.855	6.14
321.229	6.52
321.602	6.56
321.976	5.88
322.349	5.23
322.723	5.7
323.096	5.89
323.469	5.76
323.843	5.9
324.216	5.69
324.589	7.16
324.962	6.56
325.335	5.94
325.708	6.36
326.081	6.54
326.454	6.2
326.827	6.67
327.2	6.53
327.573	6.09
327.945	5.79
328.318	6.37
328.691	6.29
329.063	6.52
329.436	6.3
329.809	6.14
330.181	6.19
330.553	6.68
330.926	6.25
331.298	6.05
331.671	5.77
332.043	5.9
332.415	6.73
332.787	6.79
333.159	6.18
333.532	6.28
333.904	6.39
334.276	6.52
334.648	6.18
335.02	6.01
335.391	6.2
335.763	6.12
336.135	5.96
336.507	6.35
336.879	6.31
337.25	6.64
337.622	6.1
337.993	6.3
338.365	6.26
338.736	6.16
339.108	6.15
339.479	6.28
339.851	6.12
340.222	6.08
340.593	6.06
340.964	6.04
341.336	6.01
341.707	6.16
342.078	5.8
342.449	6.66
342.82	6.31
343.191	6.03
343.562	6.42
343.933	6.11
344.303	5.84
344.674	6.46
345.045	6.03
345.416	6.02
345.786	6.03
346.157	6.22
346.527	6.1
346.898	6.23
347.268	6.44
347.639	6.41
348.009	6.4
348.38	6.56
348.75	6.07
349.12	6.41
349.49	6.41
349.861	6.62
350.231	6.46
350.601	6.3
350.971	6.5
351.341	6.88
351.711	5.96
352.081	6.39
352.45	6.34
352.82	6.62
353.19	6.27
353.56	5.87
353.929	6.19
354.299	5.95
354.669	6.36
355.038	6.37
355.408	6.66
355.777	5.96
356.147	6.69
356.516	6.61
356.885	6.33
357.254	6.7
357.624	6.7
357.993	6.43
358.362	6.6
358.731	6.42
359.1	6.46
359.469	6.26
359.838	6.12
360.207	6.16
360.576	6.44
360.945	6.28
361.314	6.46
361.682	6.13
362.051	6.21
362.42	6.47
362.788	6.4
363.157	6.46
363.525	6.2
363.894	5.89
364.262	6.2
364.631	7.03
364.999	6.18
365.367	6.79
365.735	6.03
366.104	6.02
366.472	6.55
366.84	6.68
367.208	6.08
367.576	6.43
367.944	6.75
368.312	6.05
368.68	6.54
369.048	6.47
369.416	6.21
369.783	6.64
370.151	6.63
370.519	6.39
370.886	6.26
371.254	6.41
371.621	6.32
371.989	6.64
372.356	6.39
372.724	6.69
373.091	6.51
373.458	6.66
373.826	6.68
374.193	6.75
374.56	6.53
374.927	6.55
375.294	7.02
375.661	6.48
376.028	6.55
376.395	6.71
376.762	6.69
377.129	6.71
377.496	6.63
377.863	6.55
378.229	6.56
378.596	6.63
378.963	6.44
379.329	6.39
379.696	6.45
380.062	6.99
380.429	6.72
380.795	6.66
381.161	6.77
381.528	6.34
381.894	6.59
382.26	6.57
382.626	6.53
382.993	6.88
383.359	6.56
383.725	6.83
384.091	6.54
384.457	6.61
384.823	6.77
385.188	6.58
385.554	6.71
385.92	6.83
386.286	7.17
386.651	6.5
387.017	6.7
387.383	6.51
387.748	6.47
388.114	6.88
388.479	6.72
388.845	6.73
389.21	7.06
389.575	6.55
389.94	6.99
390.306	6.64
390.671	6.72
391.036	6.86
391.401	7
391.766	6.62
392.131	6.76
392.496	6.55
392.861	6.5
393.226	6.84
393.591	6.72
393.956	7
394.32	6.59
394.685	6.97
395.05	6.76
395.414	6.83
395.779	6.87
396.143	6.79
396.508	6.74
396.872	6.95
397.236	6.72
397.601	6.85
397.965	6.63
398.329	6.83
398.694	6.79
399.058	6.91
399.422	6.88
399.786	6.85
400.15	6.94
400.514	6.81
400.878	6.92
401.242	7.06
401.605	6.83
401.969	7.02
402.333	6.72
402.697	7.25
403.06	7
403.424	6.72
403.787	7.12
404.151	6.88
404.514	6.96
404.878	6.93
405.241	6.86
405.604	6.72
405.968	7.05
406.331	6.99
406.694	7.02
407.057	7.28
407.42	6.89
407.783	6.95
408.146	6.87
408.509	6.79
408.872	7.06
409.235	6.96
409.598	7.11
409.961	7.08
410.323	6.96
410.686	6.82
411.049	6.92
411.411	7.05
411.774	6.96
412.136	7.05
412.499	6.8
412.861	6.91
413.223	7.21
413.586	6.94
413.948	6.94
414.31	7.17
414.672	6.91
415.035	7.04
415.397	7.08
415.759	7.05
416.121	7.32
416.483	7.25
416.845	7.18
417.206	7.2
417.568	7.02
417.93	7.01
418.292	7.1
418.653	7.16
419.015	7.3
419.377	7.1
419.738	6.82
420.1	6.88
420.461	7.01
420.822	7.01
421.184	7.05
421.545	7.07
421.906	7.1
422.267	6.95
422.629	6.98
422.99	6.96
423.351	7
423.712	7.01
424.073	7.04
424.434	7.02
424.795	6.97
425.155	7.06
425.516	6.98
425.877	7.06
426.238	6.88
426.598	7.08
426.959	6.93
427.32	7.09
427.68	7.18
428.041	7.14
428.401	7.04
428.761	7.01
429.122	7.06
429.482	7.24
429.842	7.28
430.202	7.09
430.563	7.25
430.923	7.21
431.283	7.23
431.643	7.2
432.003	7.14
432.363	7.25
432.722	7.16
433.082	7.2
433.442	7.24
433.802	7.34
434.161	7.24
434.521	7.21
434.881	7.25
435.24	7.13
435.6	7.32
435.959	7.15
436.319	7.17
436.678	7.2
437.037	7.05
437.396	7.26
437.756	7.37
438.115	7.48
438.474	7.29
438.833	7.45
439.192	7.36
439.551	7.38
439.91	7.31
440.269	7.35
440.628	7.29
440.987	7.24
441.345	7.35
441.704	7.34
442.063	7.24
442.421	7.22
442.78	7.19
443.138	7.07
443.497	7.12
443.855	7.35
444.214	7.27
444.572	7.25
444.93	7.46
445.288	7.27
445.647	7.4
446.005	7.29
446.363	7.42
446.721	7.27
447.079	7.43
447.437	7.38
447.795	7.23
448.153	7.3
448.51	7.11
448.868	7.33
449.226	7.37
449.584	7.22
449.941	7.46
450.299	7.38
450.656	7.44
451.014	7.28
451.371	7.49
451.729	7.34
452.086	7.31
452.443	7.35
452.801	7.38
453.158	7.37
453.515	7.41
453.872	7.52
454.229	7.41
454.586	7.35
454.943	7.32
455.3	7.42
455.657	7.15
456.014	7.42
456.371	7.48
456.727	7.43
457.084	7.53
457.441	7.37
457.797	7.51
458.154	7.49
458.51	7.39
458.867	7.4
459.223	7.53
459.58	7.45
459.936	7.52
460.292	7.53
460.648	7.33
461.005	7.41
461.361	7.41
461.717	7.39
462.073	7.28
462.429	7.44
462.785	7.5
463.141	7.44
463.496	7.49
463.852	7.64
464.208	7.58
464.564	7.39
464.919	7.5
465.275	7.64
465.631	7.38
465.986	7.55
466.342	7.48
466.697	7.59
467.052	7.62
467.408	7.46
467.763	7.41
468.118	7.59
468.473	7.62
468.829	7.47
469.184	7.55
469.539	7.32
469.894	7.55
470.249	7.66
470.603	7.57
470.958	7.62
471.313	7.47
471.668	7.65
472.023	7.74
472.377	7.49
472.732	7.42
473.086	7.51
473.441	7.76
473.795	7.8
474.15	7.49
474.504	7.46
474.859	7.59
475.213	7.55
475.567	7.5
475.921	7.66
476.275	7.68
476.63	7.63
476.984	7.56
477.338	7.91
477.692	7.53
478.045	7.63
478.399	7.61
478.753	7.52
479.107	7.54
479.461	7.54
479.814	7.55
480.168	7.51
480.521	7.55
480.875	7.67
481.228	7.61
481.582	7.41
481.935	7.61
482.289	7.67
482.642	7.67
482.995	7.54
483.348	7.46
483.701	7.56
484.055	7.49
484.408	7.51
484.761	7.39
485.114	7.33
485.466	7.25
485.819	7.19
486.172	7.16
486.525	7.14
486.878	7.25
487.23	7.27
487.583	7.34
487.936	7.4
488.288	7.4
488.641	7.39
488.993	7.3
489.345	7.25
489.698	7.35
490.05	7.29
490.402	7.36
490.754	7.4
491.107	7.42
491.459	7.48
491.811	7.57
492.163	7.6
492.515	7.61
492.866	7.44
493.218	7.4
493.57	7.35
493.922	7.31
494.274	7.35
494.625	7.43
494.977	7.52
495.328	7.61
495.68	7.72
496.031	7.59
496.383	7.6
496.734	7.72
497.086	7.55
497.437	7.76
497.788	7.59
498.139	7.67
498.49	7.65
498.842	7.62
499.193	7.59
499.544	7.69
499.894	7.64
500.245	7.7
500.596	7.62
500.947	7.53
501.298	7.64
501.648	7.58
501.999	7.81
502.35	7.61
502.7	7.8
503.051	7.79
503.401	7.68
503.752	7.65
504.102	7.8
504.452	7.6
504.803	7.69
505.153	7.72
505.503	7.59
505.853	7.75
506.203	7.75
506.553	7.84
506.903	7.6
507.253	7.62
507.603	7.48
507.953	7.66
508.303	7.7
508.652	7.72
509.002	7.66
509.352	7.76
509.701	7.65
510.051	7.69
510.4	7.63
510.75	7.65
511.099	7.68
511.449	7.7
511.798	7.78
512.147	7.73
512.496	7.81
512.846	7.57
513.195	7.65
513.544	7.68
513.893	7.59
514.242	7.73
514.591	7.71
514.939	7.71
515.288	7.67
515.637	7.65
515.986	7.71
516.334	7.75
516.683	7.63
517.032	7.56
517.38	7.76
517.729	7.69
518.077	7.8
518.426	7.68
518.774	7.67
519.122	7.68
519.47	7.61
519.819	7.64
520.167	7.71
520.515	7.59
520.863	7.54
521.211	7.64
521.559	7.67
521.907	7.74
522.255	7.71
522.602	7.75
522.95	7.71
523.298	7.69
523.645	7.72
523.993	7.7
524.341	7.71
524.688	7.67
525.036	7.85
525.383	7.86
525.73	7.83
526.078	7.77
526.425	7.67
526.772	7.54
527.119	7.62
527.466	7.63
527.814	7.58
528.161	7.63
528.508	7.61
528.854	7.51
529.201	7.59
529.548	7.54
529.895	7.44
530.242	7.42
530.588	7.38
530.935	7.34
531.282	7.38
531.628	7.39
531.975	7.5
532.321	7.45
532.667	7.56
533.014	7.66
533.36	7.61
533.706	7.63
534.052	7.53
534.399	7.56
534.745	7.5
535.091	7.46
535.437	7.51
535.783	7.56
536.129	7.5
536.474	7.64
536.82	7.6
537.166	7.62
537.512	7.78
537.857	7.63
538.203	7.62
538.549	7.64
538.894	7.6
539.239	7.69
539.585	7.67
539.93	7.75
540.276	7.7
540.621	7.74
540.966	7.77
541.311	7.76
541.656	7.62
542.001	7.73
542.346	7.65
542.691	7.53
543.036	7.54
543.381	7.52
543.726	7.4
544.071	7.46
544.415	7.52
544.76	7.51
545.105	7.62
545.449	7.54
545.794	7.51
546.138	7.72
546.483	7.7
546.827	7.77
547.171	7.68
547.516	7.72
547.86	7.69
548.204	7.65
548.548	7.64
548.892	7.74
549.236	7.7
549.58	7.65
549.924	7.76
550.268	7.83
550.612	7.76
550.956	7.69
551.3	7.86
551.643	7.78
551.987	7.7
552.33	7.82
552.674	7.85
553.017	7.73
553.361	7.84
553.704	7.69
554.048	7.79
554.391	7.72
554.734	7.84
555.077	7.77
555.42	7.74
555.764	7.87
556.107	7.74
556.45	7.68
556.793	7.85
557.135	7.9
557.478	7.82
557.821	7.74
558.164	7.81
558.507	7.69
558.849	7.92
559.192	7.83
559.534	7.74
559.877	7.73
560.219	7.88
560.562	7.81
560.904	7.83
561.246	7.97
561.589	7.92
561.931	7.89
562.273	7.76
562.615	7.87
562.957	7.87
563.299	7.88
563.641	7.95
563.983	7.77
564.325	7.83
564.667	7.77
565.008	7.76
565.35	7.9
565.692	7.77
566.033	7.96
566.375	7.74
566.716	8.09
567.058	7.95
567.399	7.73
567.741	7.89
568.082	7.74
568.423	7.66
568.764	7.75
569.105	7.81
569.447	7.8
569.788	7.77
570.129	7.89
570.47	7.89
570.811	7.88
571.151	7.74
571.492	7.97
571.833	7.81
572.174	7.7
572.514	7.88
572.855	7.94
573.195	7.69
573.536	7.87
573.876	7.79
574.217	7.74
574.557	7.7
574.898	7.62
575.238	7.63
575.578	7.99
575.918	7.75
576.258	7.72
576.598	7.86
576.938	7.79
577.278	7.94
577.618	7.78
577.958	7.78
578.298	7.87
578.638	7.74
578.977	7.79
579.317	7.84
579.657	7.75
579.996	7.79
580.336	7.77
580.675	7.91
581.014	7.79
581.354	7.75
581.693	7.69
582.032	7.75
582.372	7.72
582.711	7.77
583.05	7.98
583.389	7.88
583.728	7.82
584.067	7.64
584.406	8.06
584.745	7.67
585.083	7.85
585.422	7.79
585.761	7.94
586.1	7.96
586.438	7.82
586.777	7.72
587.115	7.9
587.454	7.72
587.792	7.48
588.13	7.91
588.469	7.71
588.807	8.15
589.145	8.07
589.483	7.68
589.821	7.86
590.159	7.64
590.497	7.62
590.835	7.82
591.173	7.82
591.511	7.84
591.849	7.87
592.187	7.78
592.524	7.81
592.862	7.64
593.2	7.67
593.537	7.76
593.875	7.84
594.212	8.01
594.55	8.01
594.887	7.93
595.224	7.7
595.561	7.79
595.899	7.79
596.236	7.84
596.573	7.68
596.91	7.84
597.247	7.59
597.584	7.93
597.921	7.82
598.258	7.92
598.594	7.6
598.931	7.68
599.268	7.63
599.604	7.94
599.941	7.76
600.277	7.65
600.614	7.99
600.95	8.09
601.287	8.02
601.623	7.92
601.959	7.72
602.296	7.89
602.632	8.01
602.968	7.83
603.304	7.74
603.64	7.94
603.976	7.75
604.312	7.85
604.648	7.99
604.984	7.9
605.319	7.91
605.655	7.9
605.991	7.81
606.326	7.78
606.662	7.57
606.998	7.88
607.333	7.79
607.668	7.7
608.004	7.72
608.339	7.72
608.674	7.77
609.01	7.99
609.345	8.02
609.68	7.52
610.015	7.95
610.35	7.72
610.685	7.77
611.02	7.99
611.355	7.93
611.689	7.81
612.024	7.98
612.359	7.99
612.694	7.96
613.028	7.89
613.363	7.87
613.697	7.78
614.032	7.93
614.366	7.88
614.7	8.12
615.035	7.8
615.369	8.16
615.703	8.34
616.037	7.63
616.371	7.65
616.705	7.83
617.039	8.14
617.373	7.84
617.707	7.83
618.041	8.03
618.375	7.75
618.709	8.02
619.042	7.85
619.376	7.76
619.71	8.08
620.043	7.98
620.377	8.03
620.71	7.82
621.043	7.59
621.377	7.56
621.71	7.84
622.043	7.92
622.376	7.6
622.709	8.31
623.043	7.82
623.376	8.12
623.709	8.19
624.041	7.64
624.374	7.81
624.707	7.76
625.04	8.1
625.373	7.89
625.705	8.2
626.038	8.15
626.37	7.76
626.703	7.8
627.035	7.97
627.368	7.97
627.7	8.16
628.032	7.91
628.365	7.69
628.697	7.86
629.029	8.1
629.361	7.76
629.693	8.09
630.025	7.87
630.357	7.73
630.689	8.12
631.021	8.26
631.353	8.21
631.684	7.85
632.016	7.77
632.348	8.05
632.679	7.87
633.011	7.92
633.342	8.12
633.674	8.08
634.005	7.73
634.336	7.74
634.668	7.81
634.999	7.88
635.33	8.05
635.661	8.05
635.992	7.59
636.323	8.04
636.654	7.8
636.985	8.01
637.316	7.95
637.647	8.09
637.977	7.95
638.308	7.88
638.639	7.99
638.969	7.86
639.3	7.97
639.63	7.71
639.961	7.99
640.291	8.36
640.622	8.42
640.952	8.02
641.282	7.7
641.612	7.92
641.943	8.33
642.273	7.98
642.603	8.04
642.933	8.18
643.263	7.83
643.592	7.78
643.922	8.56
644.252	8.09
644.582	7.93
644.911	8.08
645.241	8
645.571	7.79
645.9	8.36
646.23	8.1
646.559	7.79
646.888	7.86
647.218	8
647.547	7.78
647.876	8.44
648.205	7.79
648.534	8.27
648.863	8.16
649.192	8.06
649.521	7.52
649.85	8.14
650.179	7.81
650.508	8.42
650.837	8.13
651.165	8.22
651.494	7.93
651.822	7.78
652.151	8.52
652.479	8.16
652.808	7.96
653.136	8.1
653.465	8.2
653.793	8.44
654.121	8.26
654.449	8.21
654.777	8.13
655.105	8.52
655.433	8.46
655.761	7.82
656.089	8.26
656.417	8.01
656.745	8.7
657.073	8.63
657.4	8.26
657.728	8.19
658.056	7.73
658.383	8.49
658.711	8.13
659.038	8.04
659.365	7.99
659.693	8.13
660.02	7.95
660.347	8.21
660.674	7.91
661.001	7.81
661.329	8.26
661.656	7.83
661.982	8.11
662.309	8.45
662.636	8.02
662.963	8.44
663.29	8.34
663.616	7.89
663.943	8.19
664.27	8.25
664.596	8.27
664.923	8.52
665.249	8.38
665.576	8.37
665.902	8.18
666.228	8.36
666.554	8.09
666.881	8.46
667.207	7.53
667.533	8.47
667.859	7.63
668.185	8.46
668.511	8.28
668.837	7.94
669.162	8.51
669.488	8.08
669.814	8.95
670.139	8.77
670.465	9.01
670.791	8.35
671.116	8.09
671.442	8.56
671.767	8.4
672.092	8.72
672.418	8.46
672.743	8.26
673.068	8.33
673.393	8.36
673.718	7.98
674.043	8.76
674.368	8.59
674.693	8.82
675.018	8.03
675.343	8.64
675.667	8.23
675.992	7.73
676.317	7.98
676.641	8.58
676.966	8.55
677.29	7.95
677.615	7.89
677.939	8.35
678.264	8.27
678.588	8.67
678.912	8.8
679.236	8.29
679.56	8.5
679.885	8.42
680.209	7.7
680.532	8.48
680.856	8.79
681.18	8.19
681.504	8.37
681.828	7.82
682.152	8.53
682.475	8.61
682.799	8.4
683.122	8.25
683.446	8.03
683.769	8.77
684.093	8.87
684.416	8.31
684.739	8.56
685.062	8.56
685.386	8.54
685.709	8.15
686.032	8.09
686.355	7.96
686.678	8.32
687.001	7.72
687.324	7.65
687.646	7.65
687.969	8.46
688.292	9.32
688.614	9.39
688.937	8.48
689.26	8.11
689.582	9.1
689.904	8.08
690.227	8.41
690.549	8.27
690.871	8.16
691.194	9.3
691.516	8.17
691.838	8.04
692.16	8.24
692.482	9.04
692.804	8.39
693.126	8.39
693.448	8.53
693.769	8.57
694.091	8.7
694.413	9.13
694.735	8.59
695.056	8.38
695.378	8.82
695.699	10.13
696.021	8.43
696.342	7.98
696.663	8.59
696.984	8.56
697.306	7.56
697.627	8.42
697.948	8.81
698.269	8.38
698.59	8.55
698.911	8.98
699.232	9.03
699.553	8.74
699.873	8.14
700.194	8.12
700.515	8.5
700.835	8.61
701.156	8.77
701.477	8.35
701.797	8.35
702.117	8.99
702.438	8.83
702.758	9.16
703.078	7.88
703.398	9.35
703.719	7.88
704.039	8.84
704.359	7.87
704.679	8.52
704.999	8.32
705.319	9.13
705.638	9.07
705.958	8.6
706.278	9.53
706.597	8.33
706.917	9.44
707.237	8.54
707.556	8.64
707.876	8.07
708.195	7.98
708.514	8.69
708.834	8.97
709.153	9.57
709.472	9.4
709.791	9.18
710.11	8.18
710.429	7.86
710.748	8.47
711.067	9.32
711.386	8.86
711.705	8.31
712.023	8.93
712.342	9.01
712.661	9.2
712.979	9.14
713.298	9.59
713.616	9.57
713.935	8.57
714.253	9.22
714.572	8.74
714.89	8.95
715.208	9.05
715.526	9.83
715.844	9.86
716.162	8.41
716.48	8.77
716.798	9.7
717.116	9.85
717.434	9.77
717.752	8.96
718.069	7.82
718.387	9.02
718.705	9.49
719.022	9.91
719.34	9.13
719.657	9.77
719.975	8.61
720.292	9.54
720.609	9.18
720.927	8.78
721.244	8.71
721.561	8.97
721.878	8.87
722.195	8.46
722.512	9.16
722.829	8.91
723.146	9.82
723.463	7.92
723.779	8.17
724.096	8.78
724.413	8.81
724.729	8.58
725.046	10.13
725.362	9.08
725.679	10.27
725.995	9.17
726.311	9.01
726.628	8.51
726.944	10.38
727.26	8.78
727.576	9.53
727.892	9.37
728.208	10.36
728.524	9.07
728.84	10.29
729.156	9.09
729.472	10.05
729.787	8.97
730.103	8.48
730.419	9.97
730.734	8.89
731.05	9.98
731.365	8.24
731.681	9.15
731.996	8.63
732.311	10.21
732.626	10.38
732.942	9.8
733.257	10.07
733.572	9.57
733.887	9.72
734.202	8.71
734.517	9.7
734.832	8.67
735.146	7.94
735.461	9.4
735.776	10.65
736.091	8.75
736.405	10.21
736.72	9.61
737.034	7.22
737.349	8.32
737.663	8.27
737.977	10.38
738.292	9.96
738.606	11.92
738.92	10.04
739.234	9.65
739.548	10.49
739.862	10.18
740.176	9
740.49	10.39
740.804	9.74
741.117	10.39
741.431	8.7
741.745	9.36
742.058	8.82
742.372	9.02
742.685	9
742.999	10.49
743.312	9.43
743.626	9.14
743.939	7.94
744.252	9.85
744.565	8.49
744.878	10.99
745.191	9.82
745.505	8.14
745.817	8.5
746.13	9.4
746.443	10.59
746.756	9.7
747.069	9.28
747.381	9.01
747.694	8.84
748.007	10.22
748.319	8.98
748.632	9.14
748.944	10.51
749.256	10.36
749.569	8.25
749.881	8.27
750.193	9.7
750.505	11.2
750.817	8.23
751.129	10.57
751.441	8.56
751.753	10.59
752.065	9.15
752.377	9.72
752.689	11.37
753	8.37
753.312	9.67
753.624	11.29
753.935	7.95
754.247	10.56
754.558	10.29
754.869	10.51
755.181	10.61
755.492	11.56
755.803	8.84
756.114	11.08
756.425	10.6
756.736	7.97
757.047	11.27
757.358	10.08
757.669	10.67
757.98	11.47
758.291	11.15
758.601	9.44
758.912	10.45
759.223	11.18
759.533	11.57
759.844	10.22
760.154	10.24
760.464	9.82
760.775	11.22
761.085	9.97
761.395	11.83
761.705	8.7
762.016	10.05
762.326	9.5
762.636	11.1
762.945	10.23
763.255	11.02
763.565	9.61
763.875	10.39
764.185	10
764.494	9.06
764.804	10.55
765.113	10.66
765.423	11.33
765.732	9.72
766.042	10.17
766.351	9.08
766.66	10.9
766.97	11.34
767.279	11.15
767.588	11.32
767.897	11.16
768.206	9.91
768.515	10.76
768.824	10.49
769.133	10.64
769.441	11.81
769.75	10.41
770.059	11.13
770.367	8.38
770.676	8.52
770.984	11.35
771.293	8.14
771.601	7.92
771.91	11.23
772.218	9.73
772.526	9.74
772.834	10.15
773.142	10.71
773.45	8.46
773.758	10.43
774.066	8.28
774.374	8.1
774.682	9.41
774.99	10.29
775.298	10.59
775.605	7.09
775.913	8.7
776.22	8.67
776.528	9.41
776.835	10.77
777.143	9.34
777.45	9.08
777.757	10.46
778.065	11.32
778.372	10.99
778.679	12.34
778.986	9.28
779.293	10.82
779.6	11.33
779.907	6.42
780.214	12.28
780.52	15.11
780.827	11.16
781.134	9.49
781.44	8.81
781.747	10.88
782.053	10.62
782.36	7.2
782.666	11.75
782.973	9.56
783.279	12.79
783.585	7.05
783.891	12.85
784.197	9.76
784.503	13.17
784.809	13.76
785.115	7.71
785.421	10.99
785.727	10.35
786.033	9.36
786.339	11.81
786.644	7.96
786.95	10.17
787.255	12.45
787.561	10.63
787.866	3.77
788.172	11.03
788.477	9.81
788.782	4.58
789.088	12.79
789.393	9.34
789.698	10.21
790.003	11.61
790.308	6.85
790.613	14.94
790.918	11.95
791.223	14.04
791.527	11.26
791.832	10.41
792.137	11.76
792.441	13.64
792.746	7.81
793.05	12.01
793.355	13.2
793.659	11.29
793.963	10.82
794.268	7.51
794.572	11.67
794.876	11.01
795.18	10.35
795.484	7.97
795.788	12.9
796.092	11.68
796.396	10.04
796.7	11.42
797.004	12.8
797.307	10.74
797.611	13.51
797.915	12.96
798.218	14.04
798.522	9.27
798.825	12.57
799.128	11.97
799.432	11.04
799.735	5.53
800.038	8.18
800.341	11.17
800.644	11.48
800.947	10.67
801.25	9.6
801.553	13.67
801.856	8.03
802.159	6.63
802.462	9.58
802.764	7.69
803.067	11.05
803.37	12.45
803.672	10.03
803.975	11.64
804.277	14.36
804.579	13.43
804.882	11.4
805.184	10.12
805.486	10.65
805.788	9.13
806.09	8.53
806.392	11.09
806.694	8.52
806.996	11.84
807.298	10.56
807.6	8.06
807.902	11.08
808.203	6.99
808.505	5.3
808.807	14.42
809.108	13.42
809.409	10.34
809.711	8.75
810.012	11.03
810.313	11.1
810.615	9.92
810.916	10.8
811.217	15.74
811.518	18.92
811.819	8.9
812.12	14.96
812.421	6.11
812.722	12.37
813.023	15.56
813.323	16.03
813.624	14.74
813.925	11.6
814.225	12.37
814.526	14.98
814.826	14.71
815.126	9.91
815.427	9.11
815.727	11.38
816.027	13.51
816.327	2.89
816.627	11.01
816.927	3.72
817.227	13.18
817.527	14.53
817.827	14.61
818.127	15.6
818.427	9.98
818.727	10.53
819.026	11.56
819.326	13.24
819.625	8.88
819.925	8.87
820.224	8.85
820.524	12.95
820.823	5.34
821.122	10.58
821.421	10.44
821.72	14.91
822.019	8.55
822.318	13.08
822.617	10.82
822.916	12.07
823.215	9.08
823.514	13.32
823.813	11.59
824.111	12.39
824.41	12.61
824.709	13.81
825.007	13.83
825.306	13.1
825.604	13.85
825.902	12.42
826.201	12.81
826.499	11.79
826.797	12.33
827.095	9.85
827.393	11.13
827.691	13.53
827.989	13.47
828.287	12.9
828.585	8.3
828.882	13.51
829.18	13.73
829.478	11.75
829.775	13.92
830.073	12.4
830.37	13.19
830.668	12.94
830.965	11.54
831.263	13.23
831.56	12.99
831.857	11.54
832.154	14.15
832.451	10.24
832.748	10.72
833.045	16.78
833.342	13.89
833.639	9.2
833.936	10.74
834.232	12.44
834.529	14.59
834.826	12.78
835.122	14.82
835.419	10.16
835.715	10.62
836.012	13.15
836.308	16.16
836.604	12.11
836.901	16.94
837.197	15.18
837.493	13.77
837.789	15.92
838.085	9.54
838.381	14.75
838.677	7.23
838.972	14.39
839.268	4.6
839.564	13.45
839.86	10.48
840.155	9.73
840.451	9.6
840.746	16.3
841.042	4.68
841.337	8.26
841.632	15.2
841.928	10.97
842.223	21.06
842.518	17.16
842.813	12.39
843.108	3.99
843.403	10.7
843.698	15.4
843.993	10.79
844.287	17.13
844.582	15.32
844.877	17.65
845.171	8.83
845.466	-3.8
845.761	7.8
846.055	15.63
846.349	-3.07
846.644	20.54
846.938	7.77
847.232	-14.16
847.526	6.18
847.82	6.34
848.114	10.53
848.408	10.68
848.702	12.5
848.996	5.13
849.29	12.95
849.584	4.23
849.877	28.81
850.171	4.62
850.465	4.73
850.758	24.92
851.052	6.27
851.345	14.04
851.638	11.78
851.932	12.64
852.225	10.94
852.518	12.65
852.811	11.93
853.104	2.3
853.397	21.35
853.69	4.58
853.983	13.65
854.276	5.34
854.569	10.12
854.861	14.31
855.154	15.61
855.447	-9.35
855.739	8.26
856.032	-2.22
856.324	-10.42
856.616	14.12
856.909	13.27
857.201	11.61
857.493	9.85
857.785	-16.9
858.077	5.94
858.369	9.57
858.661	20.21
858.953	1.28
859.245	-5.27
859.537	20.28
859.829	13.37
860.12	16.76
860.412	-18.99
860.703	18.88
860.995	12.01
861.286	12.45
861.578	-20.91
861.869	24.92
862.16	11.66
862.452	-2.05
862.743	25.08
863.034	-0.3
863.325	21.01
863.616	28.83
863.907	24.48
864.198	24.19
864.488	-8.72
864.779	16.28
865.07	17.55
865.36	16.28
865.651	26.14
865.941	33.03
866.232	6.9
866.522	26.27
866.813	22.22
867.103	14.25
867.393	-7.37
867.683	21.39
867.973	6.89
868.263	-7.44
868.553	-2.4
868.843	0.07
869.133	22.95
869.423	22.52
869.713	29.35
870.002	-15.1
870.292	4.18
870.582	18.79
870.871	4.03
871.161	-4.39
871.45	-12.36
871.739	-21.34
872.029	13.11
872.318	-8.73
872.607	29.85
872.896	-18.32
873.185	14.72
873.474	8.21
873.763	1.87
874.052	-4.26
874.341	-71.7
874.63	20.86
874.918	19.77
875.207	21.79
875.496	11.86
875.784	-18.69
876.073	3.69
876.361	-6.3
876.649	14.32
876.938	32.37
877.226	16.21
877.514	-22.04
877.802	23.51
878.09	-6.46
878.378	19.38
878.666	-24.01
878.954	22.23
879.242	18.65
879.53	-18.64
879.817	20.14
880.105	15.39
880.392	-3.34
880.68	-25.39
880.967	14.39
881.255	3.43
881.542	-6.55
881.83	16.95
882.117	-1.1
882.404	10.7
882.691	9.83
882.978	-6.2
883.265	26.21
883.552	10.29
883.839	19.67
884.126	0.26
884.413	8.75
884.699	19.07
884.986	13.57
885.273	10.87
885.559	10.87
885.846	10.87
