Data from 0193_chest_Reflection__4__395.txt Node

Date: Fri Dec 15 20:20:44 CST 2023
User: ToomeyLab
Spectrometer: FLMS14357
Trigger mode: 0
Integration Time (sec): 1.000000E-2
Scans to average: 100
Electric dark correction enabled: true
Nonlinearity correction enabled: false
Boxcar width: 0
XAxis mode: Wavelengths
Number of Pixels in Spectrum: 2048
>>>>>Begin Spectral Data<<<<<
189.047	35.52
189.435	35.52
189.823	35.52
190.211	-48.37
190.599	521.36
190.987	150.18
191.375	-152.19
191.763	38.82
192.151	147.56
192.538	55.16
192.926	154.75
193.314	243.22
193.702	-673.64
194.089	-617.82
194.477	7.1
194.864	57.16
195.252	88.76
195.639	144.92
196.027	155.56
196.414	146.58
196.801	196.97
197.189	361.86
197.576	-127.22
197.963	94.76
198.351	-84.15
198.738	-30.89
199.125	63.75
199.512	-118.61
199.899	6.64
200.286	16.6
200.673	-25.94
201.06	1.06
201.447	10.04
201.833	10.31
202.22	14.14
202.607	36.58
202.994	38.75
203.38	4.66
203.767	66.21
204.154	40.73
204.54	30.67
204.927	-48.73
205.313	-37.9
205.699	13.45
206.086	29.46
206.472	-2.84
206.858	-30.47
207.245	-45.1
207.631	-32.29
208.017	8.53
208.403	17.24
208.789	10.75
209.175	3.07
209.561	-20.03
209.947	5.32
210.333	15.91
210.719	39.97
211.105	-2.55
211.491	-56.23
211.876	25.09
212.262	-7.72
212.648	-5.72
213.034	4.84
213.419	-99.22
213.805	-52.45
214.19	-34.84
214.576	-2.94
214.961	-30.48
215.346	-129.09
215.732	-51.38
216.117	-22.2
216.502	15.36
216.888	-9.42
217.273	34.02
217.658	-29.48
218.043	7.62
218.428	-87.74
218.813	-22.56
219.198	-40.74
219.583	1.44
219.968	7.5
220.353	-23.14
220.738	18.78
221.122	7.94
221.507	-34.35
221.892	-25.97
222.276	-21.58
222.661	-4.59
223.046	12.39
223.43	16.11
223.815	6.39
224.199	-13.72
224.583	-2.56
224.968	9.63
225.352	9.87
225.736	-6.32
226.121	-12.85
226.505	4.95
226.889	7.31
227.273	0.19
227.657	8.16
228.041	-2.47
228.425	-1.7
228.809	6.91
229.193	1.59
229.577	6.2
229.961	6.29
230.344	4.32
230.728	3.76
231.112	4.6
231.495	3.94
231.879	4.44
232.263	5.1
232.646	5.05
233.03	3.45
233.413	3.24
233.797	4.03
234.18	0.59
234.563	2.52
234.946	2.66
235.33	5.5
235.713	6.4
236.096	4.15
236.479	6.77
236.862	2.29
237.245	4.49
237.628	1.39
238.011	2.41
238.394	4.33
238.777	3.8
239.16	2.55
239.543	4.89
239.925	3.52
240.308	4.29
240.691	4.19
241.073	4.25
241.456	4.69
241.838	4.43
242.221	3.49
242.603	4
242.986	5.1
243.368	4.83
243.75	5.09
244.133	4.3
244.515	4.4
244.897	4.33
245.279	4.28
245.661	4.83
246.043	2.46
246.425	2.98
246.807	4.51
247.189	4.71
247.571	4.33
247.953	4.39
248.335	4.26
248.717	4.29
249.098	3.86
249.48	4.16
249.862	4.05
250.243	4.08
250.625	3.52
251.006	4.62
251.388	3.01
251.769	4.99
252.151	3.5
252.532	3.62
252.913	3.71
253.295	3.95
253.676	3.86
254.057	3.87
254.438	3.93
254.819	3.78
255.2	3.22
255.581	3.77
255.962	2.05
256.343	3.29
256.724	3.08
257.105	3.92
257.486	3.17
257.867	3.68
258.247	5.06
258.628	4.09
259.009	3.01
259.389	3.82
259.77	3.49
260.15	4.16
260.531	2.97
260.911	4.14
261.292	3.7
261.672	4.02
262.052	3.99
262.432	4.36
262.813	3.83
263.193	3.05
263.573	3.98
263.953	4.31
264.333	4.13
264.713	3.73
265.093	2.73
265.473	4.33
265.853	2.66
266.233	3.81
266.612	2.08
266.992	2.49
267.372	4.06
267.752	3.53
268.131	3.97
268.511	4.31
268.89	4.13
269.27	3.35
269.649	3.28
270.029	3.37
270.408	4.55
270.787	4.25
271.167	4.18
271.546	3.6
271.925	3
272.304	2.91
272.683	4.08
273.062	3.62
273.441	4.08
273.82	3.04
274.199	3.9
274.578	4.02
274.957	3.7
275.336	3.31
275.715	3.25
276.093	3.52
276.472	3.48
276.851	3.22
277.229	3.08
277.608	3.01
277.986	3.22
278.365	3.23
278.743	3.65
279.122	3.2
279.5	3.59
279.878	3.71
280.257	3.48
280.635	2.69
281.013	3.92
281.391	3.51
281.769	3.83
282.147	3.62
282.525	3.73
282.903	3.15
283.281	4.42
283.659	3.54
284.037	3.77
284.415	4.06
284.792	3.91
285.17	3.29
285.548	3.28
285.925	3.66
286.303	3.72
286.68	3.65
287.058	3.54
287.435	3.44
287.813	3.79
288.19	3.52
288.567	3.89
288.945	3.96
289.322	3.94
289.699	3.43
290.076	3.92
290.453	3.31
290.83	3.43
291.207	3.05
291.584	3.83
291.961	3.87
292.338	3.34
292.715	4.12
293.092	3.49
293.469	3.95
293.845	4.07
294.222	3.3
294.599	3.52
294.975	3.22
295.352	3.47
295.728	3.39
296.105	3.85
296.481	3.12
296.858	3.49
297.234	3.8
297.61	3.33
297.986	3.47
298.363	3.85
298.739	3.85
299.115	3.68
299.491	3.69
299.867	3.72
300.243	4.15
300.619	3.42
300.995	3.79
301.371	4.21
301.746	3.31
302.122	3.52
302.498	3.6
302.874	3.51
303.249	3.47
303.625	3.4
304	3.55
304.376	4.17
304.751	3.31
305.127	3.96
305.502	2.54
305.878	2.91
306.253	3.39
306.628	4.1
307.003	3.06
307.378	3.91
307.754	3.54
308.129	2.97
308.504	3.5
308.879	3.5
309.254	4.07
309.629	4.35
310.003	4.12
310.378	4.01
310.753	3.77
311.128	3.46
311.502	3.18
311.877	4.19
312.252	3.47
312.626	3.15
313.001	3.71
313.375	3.9
313.75	3.54
314.124	3.51
314.498	3.35
314.873	3.18
315.247	3.61
315.621	3.47
315.995	3.25
316.369	3.19
316.743	3.23
317.117	3.65
317.491	2.81
317.865	3.12
318.239	3.42
318.613	3.66
318.987	3.78
319.361	3.13
319.734	3.38
320.108	3.85
320.482	3.56
320.855	3.52
321.229	3.61
321.602	3.76
321.976	4.1
322.349	2.97
322.723	3.29
323.096	3.8
323.469	3.43
323.843	2.96
324.216	4.27
324.589	3.69
324.962	3.64
325.335	3.6
325.708	3.5
326.081	3.38
326.454	3.15
326.827	3.71
327.2	3.42
327.573	4.36
327.945	3.41
328.318	3.36
328.691	3.24
329.063	3.48
329.436	3.27
329.809	3.6
330.181	3.64
330.553	3.36
330.926	3.92
331.298	4.04
331.671	3.26
332.043	3.92
332.415	3.7
332.787	2.71
333.159	4.35
333.532	3.77
333.904	3.61
334.276	3.53
334.648	3.95
335.02	3.67
335.391	3.81
335.763	3.78
336.135	3.89
336.507	3.68
336.879	3.57
337.25	3.79
337.622	3.81
337.993	3.88
338.365	3.04
338.736	3.72
339.108	4.36
339.479	3.5
339.851	3.69
340.222	4.07
340.593	3.6
340.964	3.35
341.336	3.84
341.707	3.57
342.078	3.67
342.449	4.03
342.82	3.98
343.191	3.63
343.562	3.91
343.933	3.77
344.303	3.29
344.674	3.69
345.045	3.65
345.416	3.88
345.786	3.06
346.157	3.61
346.527	3.22
346.898	3.08
347.268	3.83
347.639	3.65
348.009	3.97
348.38	3.65
348.75	3.57
349.12	3.69
349.49	4.31
349.861	3.84
350.231	3.39
350.601	3.91
350.971	3.74
351.341	3.9
351.711	3.61
352.081	3.8
352.45	3.4
352.82	3.72
353.19	3.78
353.56	3.71
353.929	4.08
354.299	3.71
354.669	3.11
355.038	3.93
355.408	3.49
355.777	3.77
356.147	3.17
356.516	3.54
356.885	3.71
357.254	3.51
357.624	3.98
357.993	4.14
358.362	3.22
358.731	3.62
359.1	3.65
359.469	3.91
359.838	3.9
360.207	3.65
360.576	3.35
360.945	3.6
361.314	4.54
361.682	3.59
362.051	3.61
362.42	4.04
362.788	3.54
363.157	3.95
363.525	4.02
363.894	3.81
364.262	3.61
364.631	3.77
364.999	3.72
365.367	3.57
365.735	4.39
366.104	3.77
366.472	4.05
366.84	3.68
367.208	3.59
367.576	3.87
367.944	4.16
368.312	3.62
368.68	3.33
369.048	4.09
369.416	4.01
369.783	3.68
370.151	3.36
370.519	4.04
370.886	4.15
371.254	3.82
371.621	3.83
371.989	4.09
372.356	3.23
372.724	3.82
373.091	3.44
373.458	3.84
373.826	3.82
374.193	3.6
374.56	3.88
374.927	3.96
375.294	3.97
375.661	3.53
376.028	3.77
376.395	3.99
376.762	4.04
377.129	3.68
377.496	3.42
377.863	3.82
378.229	3.77
378.596	4.09
378.963	3.73
379.329	3.72
379.696	3.62
380.062	3.81
380.429	3.72
380.795	3.68
381.161	3.72
381.528	4.34
381.894	3.72
382.26	3.54
382.626	3.76
382.993	3.55
383.359	4.1
383.725	3.66
384.091	3.85
384.457	4.09
384.823	3.59
385.188	3.9
385.554	3.72
385.92	4.01
386.286	3.85
386.651	4.1
387.017	3.9
387.383	3.9
387.748	3.93
388.114	4.15
388.479	3.85
388.845	4.2
389.21	4.15
389.575	4.1
389.94	3.95
390.306	4
390.671	4.12
391.036	3.57
391.401	3.4
391.766	3.76
392.131	3.9
392.496	4.18
392.861	3.9
393.226	4.04
393.591	4.22
393.956	4
394.32	4.03
394.685	3.8
395.05	3.9
395.414	3.87
395.779	3.62
396.143	4.02
396.508	3.93
396.872	4.11
397.236	4.02
397.601	3.57
397.965	3.66
398.329	3.73
398.694	4.11
399.058	3.99
399.422	3.7
399.786	4.14
400.15	4.01
400.514	3.99
400.878	4.07
401.242	4.42
401.605	4.19
401.969	4.11
402.333	4.07
402.697	4.09
403.06	3.81
403.424	3.99
403.787	3.88
404.151	4.11
404.514	4.13
404.878	4.01
405.241	4.21
405.604	4.15
405.968	4.13
406.331	4.01
406.694	4.17
407.057	4.09
407.42	4.12
407.783	3.79
408.146	3.91
408.509	4.17
408.872	4.02
409.235	4.11
409.598	4.37
409.961	3.78
410.323	4.13
410.686	4.2
411.049	4.08
411.411	4.23
411.774	4.02
412.136	3.91
412.499	4.16
412.861	4.05
413.223	4.06
413.586	4.3
413.948	4.24
414.31	4.22
414.672	4.13
415.035	4.04
415.397	4.3
415.759	3.91
416.121	4.45
416.483	4.07
416.845	4
417.206	4.08
417.568	4.19
417.93	3.94
418.292	4.19
418.653	4.22
419.015	4.08
419.377	4.31
419.738	4.2
420.1	4.26
420.461	4.2
420.822	4.22
421.184	4.1
421.545	4.13
421.906	4.14
422.267	4.19
422.629	4.17
422.99	4.15
423.351	4.09
423.712	4.12
424.073	4.08
424.434	4.02
424.795	4.07
425.155	4.02
425.516	4.05
425.877	4.22
426.238	4.06
426.598	4.19
426.959	4.18
427.32	4.22
427.68	4.1
428.041	3.98
428.401	4.29
428.761	4.05
429.122	4.09
429.482	4.03
429.842	4.4
430.202	4.24
430.563	4.07
430.923	4.23
431.283	4.27
431.643	4.16
432.003	4.07
432.363	4.48
432.722	4.3
433.082	4.25
433.442	4.22
433.802	4.18
434.161	4.15
434.521	4.57
434.881	4.35
435.24	4.35
435.6	4.32
435.959	4.08
436.319	4.19
436.678	4.32
437.037	4.22
437.396	4.43
437.756	4.52
438.115	4.28
438.474	4.41
438.833	4.07
439.192	4.45
439.551	4.46
439.91	4.33
440.269	4.37
440.628	4.32
440.987	4.26
441.345	4.1
441.704	4.24
442.063	4.26
442.421	4.24
442.78	4.35
443.138	4.27
443.497	4.12
443.855	4.22
444.214	4.22
444.572	4.34
444.93	4.38
445.288	4.29
445.647	4.51
446.005	4.26
446.363	4.34
446.721	4.45
447.079	4.28
447.437	4.37
447.795	4.33
448.153	4.24
448.51	4.37
448.868	4.26
449.226	4.24
449.584	4.33
449.941	4.38
450.299	4.42
450.656	4.44
451.014	4.46
451.371	4.18
451.729	4.43
452.086	4.59
452.443	4.37
452.801	4.52
453.158	4.4
453.515	4.26
453.872	4.56
454.229	4.25
454.586	4.3
454.943	4.33
455.3	4.42
455.657	4.3
456.014	4.33
456.371	4.41
456.727	4.48
457.084	4.63
457.441	4.22
457.797	4.51
458.154	4.83
458.51	4.7
458.867	4.36
459.223	4.47
459.58	4.51
459.936	4.61
460.292	4.43
460.648	4.45
461.005	4.48
461.361	4.55
461.717	4.44
462.073	4.37
462.429	4.44
462.785	4.3
463.141	4.44
463.496	4.51
463.852	4.38
464.208	4.45
464.564	4.72
464.919	4.56
465.275	4.42
465.631	4.59
465.986	4.42
466.342	4.62
466.697	4.45
467.052	4.46
467.408	4.63
467.763	4.5
468.118	4.48
468.473	4.36
468.829	4.37
469.184	4.46
469.539	4.46
469.894	4.24
470.249	4.63
470.603	4.56
470.958	4.66
471.313	4.63
471.668	4.61
472.023	4.49
472.377	4.43
472.732	4.5
473.086	4.52
473.441	4.47
473.795	4.65
474.15	4.58
474.504	4.54
474.859	4.78
475.213	4.47
475.567	4.61
475.921	4.45
476.275	4.67
476.63	4.77
476.984	4.64
477.338	4.79
477.692	4.64
478.045	4.59
478.399	4.71
478.753	4.73
479.107	4.62
479.461	4.67
479.814	4.63
480.168	4.64
480.521	4.71
480.875	4.59
481.228	4.67
481.582	4.66
481.935	4.73
482.289	4.73
482.642	4.6
482.995	4.54
483.348	4.61
483.701	4.56
484.055	4.68
484.408	4.61
484.761	4.56
485.114	4.57
485.466	4.42
485.819	4.38
486.172	4.37
486.525	4.41
486.878	4.42
487.23	4.47
487.583	4.52
487.936	4.55
488.288	4.59
488.641	4.64
488.993	4.57
489.345	4.48
489.698	4.53
490.05	4.5
490.402	4.5
490.754	4.51
491.107	4.58
491.459	4.65
491.811	4.66
492.163	4.65
492.515	4.65
492.866	4.67
493.218	4.64
493.57	4.57
493.922	4.53
494.274	4.61
494.625	4.69
494.977	4.65
495.328	4.76
495.68	4.67
496.031	4.77
496.383	4.77
496.734	4.96
497.086	4.92
497.437	4.78
497.788	4.85
498.139	4.68
498.49	4.8
498.842	4.75
499.193	4.88
499.544	4.81
499.894	4.84
500.245	4.83
500.596	4.77
500.947	4.81
501.298	4.83
501.648	4.91
501.999	4.96
502.35	4.88
502.7	4.99
503.051	4.73
503.401	4.76
503.752	4.98
504.102	4.87
504.452	5.02
504.803	4.95
505.153	4.83
505.503	4.9
505.853	4.85
506.203	4.83
506.553	4.89
506.903	4.83
507.253	4.86
507.603	4.8
507.953	4.99
508.303	5
508.652	4.82
509.002	5.04
509.352	5.07
509.701	4.78
510.051	4.78
510.4	4.92
510.75	5.04
511.099	4.93
511.449	4.91
511.798	4.92
512.147	4.92
512.496	4.89
512.846	4.99
513.195	4.99
513.544	5.01
513.893	5.03
514.242	4.99
514.591	5.15
514.939	5.03
515.288	4.84
515.637	5.06
515.986	5.13
516.334	5.11
516.683	5.11
517.032	5.13
517.38	5.18
517.729	5.24
518.077	4.9
518.426	5.18
518.774	5.03
519.122	5.12
519.47	5.07
519.819	5.01
520.167	5.11
520.515	5.12
520.863	5.13
521.211	5.11
521.559	5.21
521.907	5.07
522.255	5.21
522.602	5.12
522.95	5.13
523.298	5.26
523.645	5.29
523.993	5.16
524.341	5.34
524.688	5.27
525.036	5.14
525.383	5.27
525.73	5.39
526.078	5.31
526.425	5.19
526.772	5.41
527.119	5.23
527.466	5.19
527.814	5.32
528.161	5.21
528.508	5.26
528.854	5.24
529.201	5.24
529.548	5.24
529.895	5.23
530.242	5.19
530.588	5.12
530.935	5.16
531.282	5.15
531.628	5.16
531.975	5.22
532.321	5.29
532.667	5.38
533.014	5.43
533.36	5.39
533.706	5.41
534.052	5.47
534.399	5.38
534.745	5.38
535.091	5.38
535.437	5.34
535.783	5.46
536.129	5.44
536.474	5.35
536.82	5.45
537.166	5.55
537.512	5.51
537.857	5.55
538.203	5.6
538.549	5.56
538.894	5.49
539.239	5.57
539.585	5.63
539.93	5.57
540.276	5.72
540.621	5.7
540.966	5.84
541.311	5.72
541.656	5.56
542.001	5.65
542.346	5.75
542.691	5.7
543.036	5.59
543.381	5.5
543.726	5.54
544.071	5.58
544.415	5.68
544.76	5.67
545.105	5.68
545.449	5.79
545.794	5.82
546.138	5.84
546.483	5.74
546.827	5.89
547.171	5.93
547.516	6.02
547.86	5.98
548.204	5.93
548.548	5.85
548.892	5.95
549.236	5.96
549.58	5.97
549.924	6.14
550.268	6.06
550.612	6.11
550.956	6.28
551.3	6.08
551.643	6.15
551.987	6.21
552.33	6.23
552.674	6.2
553.017	6.15
553.361	6.16
553.704	6.22
554.048	5.97
554.391	6.12
554.734	6.25
555.077	6.28
555.42	6.27
555.764	6.17
556.107	6.13
556.45	6.18
556.793	6.16
557.135	6.33
557.478	6.5
557.821	6.41
558.164	6.25
558.507	6.64
558.849	6.51
559.192	6.6
559.534	6.43
559.877	6.5
560.219	6.55
560.562	6.57
560.904	6.53
561.246	6.6
561.589	6.53
561.931	6.6
562.273	6.59
562.615	6.74
562.957	6.59
563.299	6.44
563.641	6.59
563.983	6.88
564.325	6.52
564.667	6.49
565.008	6.8
565.35	6.68
565.692	6.67
566.033	6.91
566.375	6.96
566.716	7.02
567.058	6.82
567.399	6.79
567.741	6.7
568.082	6.74
568.423	6.81
568.764	6.81
569.105	7.03
569.447	7.04
569.788	7
570.129	7
570.47	7.16
570.811	7.23
571.151	7.17
571.492	7.27
571.833	7.19
572.174	7.06
572.514	7.12
572.855	7.16
573.195	7.02
573.536	7.19
573.876	7.01
574.217	7.14
574.557	7.32
574.898	7.47
575.238	7.38
575.578	7.33
575.918	7.56
576.258	7.33
576.598	7.46
576.938	7.31
577.278	7.33
577.618	7.43
577.958	7.53
578.298	7.7
578.638	7.44
578.977	7.49
579.317	7.39
579.657	7.65
579.996	7.4
580.336	7.82
580.675	7.68
581.014	7.59
581.354	7.86
581.693	7.9
582.032	7.58
582.372	7.74
582.711	7.82
583.05	7.83
583.389	7.86
583.728	7.7
584.067	8.07
584.406	8.15
584.745	7.94
585.083	8.03
585.422	8.14
585.761	8.33
586.1	8.18
586.438	8.23
586.777	8.36
587.115	8.3
587.454	8.18
587.792	8.02
588.13	8.37
588.469	8.31
588.807	8.12
589.145	8.15
589.483	8.41
589.821	8.32
590.159	8.34
590.497	8.64
590.835	8.56
591.173	8.19
591.511	8.86
591.849	8.56
592.187	8.74
592.524	8.44
592.862	8.43
593.2	8.51
593.537	8.48
593.875	8.27
594.212	8.91
594.55	9
594.887	8.74
595.224	8.53
595.561	8.84
595.899	8.75
596.236	8.92
596.573	8.96
596.91	8.47
597.247	8.7
597.584	9.17
597.921	9.07
598.258	8.74
598.594	8.96
598.931	8.75
599.268	9.01
599.604	8.97
599.941	9.03
600.277	9.02
600.614	9.02
600.95	8.99
601.287	9.31
601.623	9.22
601.959	9.27
602.296	9.43
602.632	9.14
602.968	9.27
603.304	9.23
603.64	9.32
603.976	9.57
604.312	9.46
604.648	9.55
604.984	9.39
605.319	9.51
605.655	9.63
605.991	9.82
606.326	9.43
606.662	9.59
606.998	9.38
607.333	9.61
607.668	9.63
608.004	9.95
608.339	9.89
608.674	9.9
609.01	9.46
609.345	9.64
609.68	10.16
610.015	9.59
610.35	9.74
610.685	9.76
611.02	9.81
611.355	10.23
611.689	10.11
612.024	10.22
612.359	10.03
612.694	10.21
613.028	10.28
613.363	10.45
613.697	10.52
614.032	10.52
614.366	10.04
614.7	10.71
615.035	10.59
615.369	10.48
615.703	10.77
616.037	10.59
616.371	10.08
616.705	10.21
617.039	10.53
617.373	10.43
617.707	10.17
618.041	10.49
618.375	10.82
618.709	10.88
619.042	10.75
619.376	10.73
619.71	10.59
620.043	10.93
620.377	10.58
620.71	11.1
621.043	10.88
621.377	11.17
621.71	10.87
622.043	10.66
622.376	11.02
622.709	11.16
623.043	11.21
623.376	11.24
623.709	11.18
624.041	11.65
624.374	11.14
624.707	11.12
625.04	11.57
625.373	10.77
625.705	11.43
626.038	11.09
626.37	11.46
626.703	11.38
627.035	11.44
627.368	11.71
627.7	11.61
628.032	11.08
628.365	11.86
628.697	11.85
629.029	11.51
629.361	11.66
629.693	11.76
630.025	11.39
630.357	12.1
630.689	11.66
631.021	11.7
631.353	12.13
631.684	11.64
632.016	11.73
632.348	12.19
632.679	12.13
633.011	12.47
633.342	12.15
633.674	11.96
634.005	12.31
634.336	11.97
634.668	12.85
634.999	11.76
635.33	12.46
635.661	12.41
635.992	11.84
636.323	12.82
636.654	12.63
636.985	12.45
637.316	12.4
637.647	12.33
637.977	12.37
638.308	12.41
638.639	12.2
638.969	12.38
639.3	12.61
639.63	12.56
639.961	12.58
640.291	12.47
640.622	12.94
640.952	12.57
641.282	13.34
641.612	12.99
641.943	12.6
642.273	12.66
642.603	13.48
642.933	13.12
643.263	12.94
643.592	13.14
643.922	13.02
644.252	13.21
644.582	13.08
644.911	12.85
645.241	13.08
645.571	13.14
645.9	13.18
646.23	13.47
646.559	13.54
646.888	13.47
647.218	13.42
647.547	13.77
647.876	13.3
648.205	13.34
648.534	13.54
648.863	13.27
649.192	14
649.521	13.72
649.85	13.69
650.179	13.65
650.508	13.71
650.837	13.42
651.165	13.59
651.494	13.47
651.822	13.94
652.151	13.66
652.479	14.18
652.808	13.58
653.136	14.26
653.465	13.2
653.793	13.72
654.121	13.93
654.449	14.22
654.777	14.57
655.105	14.44
655.433	13.69
655.761	13.79
656.089	14.13
656.417	14.58
656.745	14.09
657.073	14.19
657.4	14.63
657.728	14.5
658.056	14.59
658.383	14.43
658.711	14.84
659.038	14.64
659.365	14.25
659.693	15.14
660.02	14.99
660.347	14.88
660.674	14.42
661.001	14.72
661.329	14.2
661.656	14.74
661.982	14.99
662.309	14.81
662.636	14.4
662.963	14.82
663.29	14.71
663.616	15.23
663.943	14.62
664.27	14.7
664.596	14.96
664.923	14.66
665.249	15.67
665.576	14.98
665.902	15.75
666.228	15.13
666.554	15.69
666.881	14.86
667.207	15.46
667.533	15.5
667.859	15.39
668.185	15.61
668.511	15
668.837	15.1
669.162	15.2
669.488	15.29
669.814	15.72
670.139	16.08
670.465	16.24
670.791	15.79
671.116	16.07
671.442	15.43
671.767	15.78
672.092	16.41
672.418	16.3
672.743	16.23
673.068	16.01
673.393	16.04
673.718	15.87
674.043	16.09
674.368	16.19
674.693	17.53
675.018	16.2
675.343	16.28
675.667	16.11
675.992	16.63
676.317	16.82
676.641	16.95
676.966	16.46
677.29	16.13
677.615	16.62
677.939	16.94
678.264	17.37
678.588	16.59
678.912	17.39
679.236	17.45
679.56	15.74
679.885	16.97
680.209	16.24
680.532	16.88
680.856	17.74
681.18	16.72
681.504	17.17
681.828	17.14
682.152	16.94
682.475	17.01
682.799	17
683.122	17.23
683.446	17.16
683.769	17.05
684.093	17.03
684.416	17.92
684.739	17.08
685.062	17.6
685.386	16.7
685.709	16.73
686.032	17.13
686.355	17.8
686.678	17.71
687.001	17.01
687.324	18.21
687.646	17.05
687.969	17.44
688.292	18.04
688.614	18.02
688.937	18.96
689.26	18.16
689.582	19.01
689.904	17.27
690.227	18.42
690.549	18.26
690.871	18.43
691.194	17.54
691.516	17.99
691.838	18
692.16	17.21
692.482	17.92
692.804	17.75
693.126	18.3
693.448	18.04
693.769	17.73
694.091	18.44
694.413	18.56
694.735	18.35
695.056	17.48
695.378	18.7
695.699	17.94
696.021	17.96
696.342	18.43
696.663	18.22
696.984	18.95
697.306	18.4
697.627	19.2
697.948	19.46
698.269	19.34
698.59	18.63
698.911	17.96
699.232	18.53
699.553	19.04
699.873	19.22
700.194	19.4
700.515	19.41
700.835	19.07
701.156	19.31
701.477	19.8
701.797	18.59
702.117	19.04
702.438	19.52
702.758	19.11
703.078	18.71
703.398	19.17
703.719	19.33
704.039	18.15
704.359	19.34
704.679	19.34
704.999	19.63
705.319	19.92
705.638	18.87
705.958	19.47
706.278	20.01
706.597	18.19
706.917	18.74
707.237	19.46
707.556	20.55
707.876	19.68
708.195	20.66
708.514	19.54
708.834	19.73
709.153	20.32
709.472	20.58
709.791	20.14
710.11	18.79
710.429	19.82
710.748	20.94
711.067	19.95
711.386	19.48
711.705	20.24
712.023	20.7
712.342	19.45
712.661	18.86
712.979	19.86
713.298	20.17
713.616	20.5
713.935	20.16
714.253	19.5
714.572	20.65
714.89	21.15
715.208	20.9
715.526	21.03
715.844	21.15
716.162	21.27
716.48	21.16
716.798	20.28
717.116	21.33
717.434	20.6
717.752	19.74
718.069	21.18
718.387	20.56
718.705	20.59
719.022	20.26
719.34	20.83
719.657	20.44
719.975	20.98
720.292	21.14
720.609	20.2
720.927	21.36
721.244	21.28
721.561	20.93
721.878	22.87
722.195	21.19
722.512	20.33
722.829	21.44
723.146	22.56
723.463	22.44
723.779	20.27
724.096	20.95
724.413	20.17
724.729	21.92
725.046	20.42
725.362	23.98
725.679	21.84
725.995	20.34
726.311	22.5
726.628	22.2
726.944	22.77
727.26	22.99
727.576	22.07
727.892	22.7
728.208	20.72
728.524	21.95
728.84	21.16
729.156	21.46
729.472	21.4
729.787	20.94
730.103	22.06
730.419	21.54
730.734	21.85
731.05	22.04
731.365	21.27
731.681	24.02
731.996	23.49
732.311	21.92
732.626	22.85
732.942	21.12
733.257	22.84
733.572	22.59
733.887	21.72
734.202	23.58
734.517	22.92
734.832	22.58
735.146	22.02
735.461	22.25
735.776	23.44
736.091	24.04
736.405	23.05
736.72	23.05
737.034	23.02
737.349	24.71
737.663	23.47
737.977	22.93
738.292	22.28
738.606	23.24
738.92	25.25
739.234	23.46
739.548	23.53
739.862	23
740.176	22.73
740.49	23.25
740.804	24.22
741.117	23.58
741.431	24.58
741.745	23.97
742.058	24.64
742.372	22.66
742.685	22.53
742.999	23.88
743.312	23.61
743.626	24.42
743.939	24.7
744.252	25.26
744.565	22.56
744.878	22.59
745.191	23.45
745.505	23.32
745.817	23.22
746.13	23.08
746.443	24.45
746.756	25.37
747.069	22.32
747.381	23.83
747.694	23.2
748.007	24.44
748.319	23.91
748.632	24.87
748.944	24.29
749.256	26.27
749.569	23.3
749.881	25.56
750.193	26.48
750.505	23.06
750.817	21.62
751.129	25.01
751.441	23.37
751.753	24.8
752.065	25.65
752.377	25.86
752.689	24.06
753	26.07
753.312	24.65
753.624	24.11
753.935	25.98
754.247	25.44
754.558	26.47
754.869	27.06
755.181	23.87
755.492	27.3
755.803	26.07
756.114	24.11
756.425	24.59
756.736	23.67
757.047	25.68
757.358	25.63
757.669	24.08
757.98	25.63
758.291	26.35
758.601	25.12
758.912	24.85
759.223	26.79
759.533	24.38
759.844	24.4
760.154	24.2
760.464	26.92
760.775	25.7
761.085	25.23
761.395	26.51
761.705	26.08
762.016	25.71
762.326	24.8
762.636	27.54
762.945	24.01
763.255	26.85
763.565	24.64
763.875	26.29
764.185	24.68
764.494	25.85
764.804	27
765.113	26.13
765.423	25.94
765.732	27.31
766.042	25.87
766.351	26.27
766.66	28.48
766.97	27.31
767.279	25.69
767.588	28.06
767.897	27.54
768.206	26.18
768.515	26.48
768.824	26.71
769.133	26.82
769.441	26.75
769.75	26.93
770.059	28.83
770.367	26.74
770.676	26.67
770.984	28.53
771.293	26.7
771.601	30.23
771.91	24.88
772.218	25.86
772.526	28.83
772.834	28.99
773.142	28.57
773.45	24.55
773.758	25.12
774.066	28.92
774.374	26.3
774.682	28.06
774.99	26.35
775.298	27.35
775.605	27.6
775.913	27.88
776.22	31.12
776.528	27.81
776.835	28.29
777.143	25.96
777.45	26.46
777.757	28.62
778.065	28.04
778.372	27.92
778.679	27.38
778.986	24.92
779.293	26.71
779.6	27.99
779.907	26.19
780.214	27.87
780.52	27.01
780.827	29.61
781.134	29.73
781.44	25.57
781.747	25.57
782.053	26.13
782.36	27.21
782.666	29.86
782.973	29.85
783.279	27.25
783.585	31.33
783.891	29.95
784.197	27.45
784.503	29.74
784.809	27.52
785.115	27.28
785.421	31.15
785.727	29.03
786.033	23.81
786.339	22.98
786.644	27.5
786.95	29.02
787.255	32.06
787.561	23.56
787.866	31.36
788.172	30.41
788.477	23.98
788.782	28.05
789.088	27.69
789.393	25.53
789.698	29.15
790.003	24.83
790.308	29.97
790.613	29.23
790.918	30.5
791.223	29.51
791.527	27.65
791.832	28.73
792.137	25.35
792.441	27.64
792.746	28.04
793.05	25.91
793.355	25.81
793.659	30.58
793.963	28.77
794.268	29.86
794.572	28.7
794.876	32.1
795.18	29.9
795.484	27.52
795.788	27.22
796.092	28.73
796.396	25.93
796.7	26.25
797.004	31.72
797.307	23.26
797.611	28.93
797.915	27.59
798.218	30.63
798.522	30.2
798.825	30.07
799.128	30.33
799.432	25.38
799.735	32.49
800.038	31.28
800.341	32.19
800.644	29.01
800.947	28.95
801.25	26.8
801.553	25.39
801.856	26.06
802.159	26.69
802.462	30.42
802.764	24.87
803.067	29.25
803.37	31.51
803.672	23.14
803.975	29.92
804.277	29.93
804.579	26.45
804.882	26.3
805.184	34.97
805.486	29.8
805.788	28.51
806.09	31.49
806.392	26.84
806.694	33.96
806.996	29.4
807.298	27.78
807.6	34.62
807.902	30.69
808.203	28.97
808.505	24.98
808.807	30.68
809.108	31.89
809.409	33.5
809.711	26.28
810.012	31.78
810.313	29.51
810.615	29.28
810.916	29.61
811.217	33.92
811.518	32.6
811.819	32.91
812.12	24.6
812.421	28.13
812.722	39.99
813.023	28.06
813.323	27.74
813.624	27.47
813.925	37.58
814.225	28.8
814.526	35.02
814.826	33.68
815.126	28.1
815.427	34.52
815.727	29.69
816.027	29.77
816.327	31.54
816.627	29.71
816.927	35.15
817.227	27.78
817.527	30.43
817.827	37.61
818.127	32.04
818.427	29.54
818.727	32.14
819.026	26.58
819.326	35.77
819.625	30.73
819.925	28.57
820.224	34.94
820.524	33.38
820.823	33.97
821.122	32.26
821.421	30.67
821.72	27.85
822.019	32.49
822.318	31.99
822.617	28.1
822.916	34.74
823.215	28.47
823.514	36.33
823.813	31.44
824.111	31.89
824.41	35.85
824.709	34.11
825.007	34.17
825.306	34.56
825.604	34.88
825.902	34.33
826.201	34.45
826.499	33.42
826.797	34.7
827.095	34.88
827.393	34.54
827.691	35.61
827.989	34.45
828.287	33.51
828.585	36.14
828.882	30.45
829.18	32.44
829.478	36.59
829.775	34.87
830.073	34.56
830.37	35.35
830.668	34.77
830.965	36.88
831.263	32.91
831.56	34.68
831.857	31.91
832.154	33.79
832.451	35.25
832.748	37.06
833.045	34.12
833.342	39.29
833.639	34.03
833.936	25.31
834.232	32.66
834.529	27.68
834.826	28.6
835.122	35.62
835.419	28.67
835.715	26.67
836.012	39.23
836.308	35.94
836.604	33.75
836.901	35.11
837.197	31.96
837.493	34.85
837.789	38.43
838.085	35.81
838.381	33.35
838.677	38.17
838.972	34.46
839.268	35.57
839.564	28.58
839.86	35.78
840.155	28.97
840.451	26.2
840.746	33.18
841.042	40.22
841.337	36.29
841.632	43.17
841.928	36.91
842.223	13.38
842.518	30.06
842.813	33.48
843.108	36.64
843.403	43.37
843.698	29.9
843.993	30.83
844.287	21.44
844.582	22.68
844.877	33.83
845.171	34.24
845.466	24.27
845.761	36.99
846.055	30.47
846.349	34.48
846.644	39.97
846.938	36.09
847.232	29.87
847.526	13.9
847.82	34.42
848.114	24.21
848.408	32.07
848.702	35.23
848.996	20.87
849.29	47.41
849.584	29.4
849.877	34.15
850.171	26.78
850.465	22.65
850.758	42.99
851.052	29.49
851.345	27.31
851.638	26.45
851.932	-3.32
852.225	18.97
852.518	13.44
852.811	16.32
853.104	-1.61
853.397	54.54
853.69	20.15
853.983	10.18
854.276	21.69
854.569	27.26
854.861	30.21
855.154	9.63
855.447	11.13
855.739	28.71
856.032	22.3
856.324	37.12
856.616	29.28
856.909	21.82
857.201	41.18
857.493	-2.42
857.785	10.73
858.077	32.28
858.369	47.96
858.661	9.89
858.953	22.6
859.245	25.31
859.537	33.7
859.829	20.33
860.12	46.2
860.412	16.99
860.703	8.81
860.995	33.87
861.286	16.68
861.578	28.29
861.869	40.13
862.16	24.32
862.452	32.51
862.743	17.41
863.034	-4.18
863.325	-10.84
863.616	31.4
863.907	36.43
864.198	32.01
864.488	55.09
864.779	43.91
865.07	12.68
865.36	-1.05
865.651	16.41
865.941	33.82
866.232	40.11
866.522	-2.5
866.813	29.48
867.103	22.61
867.393	-6.54
867.683	52.68
867.973	-7.11
868.263	33.72
868.553	35.25
868.843	30.88
869.133	33.87
869.423	23.7
869.713	16.71
870.002	48.57
870.292	52.58
870.582	34.39
870.871	1.34
871.161	3.01
871.45	23.92
871.739	15.62
872.029	15.56
872.318	54.64
872.607	53.58
872.896	6.06
873.185	9.42
873.474	3.2
873.763	20.03
874.052	-13.72
874.341	35.15
874.63	24.4
874.918	74.53
875.207	45.7
875.496	4.35
875.784	-32.8
876.073	-61.73
876.361	-33.8
876.649	20.46
876.938	11.67
877.226	1.88
877.514	15.13
877.802	-6.03
878.09	-15.23
878.378	37.61
878.666	36.13
878.954	2.83
879.242	16.59
879.53	67.4
879.817	59.15
880.105	30.47
880.392	24.78
880.68	-1.56
880.967	44.08
881.255	33.28
881.542	32.58
881.83	9.22
882.117	46.83
882.404	27.11
882.691	23.83
882.978	24.77
883.265	32.35
883.552	27.38
883.839	34.83
884.126	46.87
884.413	39.85
884.699	36.01
884.986	45.43
885.273	37.22
885.559	37.22
885.846	37.22
