Data from 0193_crown_Reflection__0__398.txt Node

Date: Fri Dec 15 20:21:57 CST 2023
User: ToomeyLab
Spectrometer: FLMS14357
Trigger mode: 0
Integration Time (sec): 1.000000E-2
Scans to average: 100
Electric dark correction enabled: true
Nonlinearity correction enabled: false
Boxcar width: 0
XAxis mode: Wavelengths
Number of Pixels in Spectrum: 2048
>>>>>Begin Spectral Data<<<<<
189.047	-743.49
189.435	-743.49
189.823	-743.49
190.211	23.73
190.599	736.89
190.987	148.78
191.375	-97.98
191.763	7.45
192.151	116.81
192.538	87.14
192.926	-376.52
193.314	153.63
193.702	-366.78
194.089	156.24
194.477	42.17
194.864	28.17
195.252	128.95
195.639	69.59
196.027	401.59
196.414	107.39
196.801	11.93
197.189	13.86
197.576	-524.06
197.963	324.35
198.351	-109.87
198.738	-16.3
199.125	55.23
199.512	-76.28
199.899	0.49
200.286	-11.22
200.673	-39.12
201.06	6.27
201.447	-41.75
201.833	-13.71
202.22	15.84
202.607	9.53
202.994	39.96
203.38	11.34
203.767	26.71
204.154	-25.55
204.54	33.56
204.927	-109.61
205.313	-79.63
205.699	24.17
206.086	22.89
206.472	33.39
206.858	-10.5
207.245	-58.53
207.631	-8.23
208.017	-14.94
208.403	3.35
208.789	8.28
209.175	19.44
209.561	-70.34
209.947	-5.46
210.333	-37.23
210.719	-14.06
211.105	17.58
211.491	-103.96
211.876	32.27
212.262	-28.19
212.648	1.86
213.034	-3.02
213.419	-58.15
213.805	-29.52
214.19	-36.33
214.576	4.19
214.961	-77.01
215.346	-130.93
215.732	-18.26
216.117	-20.28
216.502	-5.44
216.888	6.81
217.273	31.89
217.658	-39.21
218.043	3.98
218.428	-56.75
218.813	-55.41
219.198	-32.54
219.583	-11.65
219.968	-19.55
220.353	-4.37
220.738	14.85
221.122	0.28
221.507	-25.42
221.892	-33.29
222.276	-21.68
222.661	-23.32
223.046	-4.44
223.43	9.84
223.815	11.96
224.199	-15.56
224.583	-9.61
224.968	-0.78
225.352	7.79
225.736	-6.64
226.121	-21.41
226.505	-11.84
226.889	-3.82
227.273	-4.79
227.657	7.63
228.041	-3.38
228.425	-0.92
228.809	-0.8
229.193	0.54
229.577	1.23
229.961	3.12
230.344	0.51
230.728	0.68
231.112	1.69
231.495	1.03
231.879	0.69
232.263	4.63
232.646	0.43
233.03	0.57
233.413	0.97
233.797	0.48
234.18	1.03
234.563	-0.1
234.946	-1.08
235.33	0.79
235.713	4.53
236.096	2.36
236.479	2.89
236.862	-2.84
237.245	1.91
237.628	-0.26
238.011	-1.51
238.394	3.25
238.777	1.87
239.16	-0.51
239.543	2.14
239.925	4.56
240.308	2.53
240.691	4.21
241.073	2.45
241.456	1.12
241.838	2.03
242.221	0.46
242.603	1.55
242.986	0.99
243.368	1.64
243.75	1.69
244.133	1.17
244.515	1.67
244.897	1.6
245.279	1.6
245.661	0.71
246.043	0.48
246.425	-0.13
246.807	2.1
247.189	2.16
247.571	2.49
247.953	2.14
248.335	1.29
248.717	1.95
249.098	1.81
249.48	1.69
249.862	1.52
250.243	1.62
250.625	1.51
251.006	1.66
251.388	0.67
251.769	1.28
252.151	1.6
252.532	0.3
252.913	0.09
253.295	0.46
253.676	0.97
254.057	1.68
254.438	1.37
254.819	0.83
255.2	1.57
255.581	0.99
255.962	-0.62
256.343	2.35
256.724	1.34
257.105	1.43
257.486	0.22
257.867	1.59
258.247	1.96
258.628	0.72
259.009	1.31
259.389	1.63
259.77	0.39
260.15	0.87
260.531	0.75
260.911	1.94
261.292	1.44
261.672	2.05
262.052	1.93
262.432	2.01
262.813	1.47
263.193	1.32
263.573	1.35
263.953	1.65
264.333	2.17
264.713	1.84
265.093	1.08
265.473	2.08
265.853	0.55
266.233	1.8
266.612	-0.96
266.992	0.7
267.372	1.8
267.752	1.3
268.131	1.18
268.511	2.3
268.89	1.5
269.27	2.02
269.649	1
270.029	1.56
270.408	2.55
270.787	2.03
271.167	1.51
271.546	1.65
271.925	0.41
272.304	1.65
272.683	1.7
273.062	1.06
273.441	1.6
273.82	1.15
274.199	1.42
274.578	1.54
274.957	1.52
275.336	1.8
275.715	1.48
276.093	1.34
276.472	1.61
276.851	0.86
277.229	0.71
277.608	0.44
277.986	1.41
278.365	1.82
278.743	1.49
279.122	1.77
279.5	1.52
279.878	1.67
280.257	1.36
280.635	1.3
281.013	0.95
281.391	1.49
281.769	1.4
282.147	1.41
282.525	1.82
282.903	1.04
283.281	1.52
283.659	1.63
284.037	1.53
284.415	2.04
284.792	1.85
285.17	0.71
285.548	0.95
285.925	1.45
286.303	1.14
286.68	1.22
287.058	1.42
287.435	1.12
287.813	1.45
288.19	1.25
288.567	1.41
288.945	1.29
289.322	1.39
289.699	0.89
290.076	0.96
290.453	1.19
290.83	1.11
291.207	1.28
291.584	1.38
291.961	1.34
292.338	1.51
292.715	1.71
293.092	1.54
293.469	1.87
293.845	1.91
294.222	1.43
294.599	1.06
294.975	0.87
295.352	1.33
295.728	1.16
296.105	1.42
296.481	2.08
296.858	1.4
297.234	1.04
297.61	1.37
297.986	1.56
298.363	1.69
298.739	1.51
299.115	1.48
299.491	1.33
299.867	1.59
300.243	1.58
300.619	1.08
300.995	1.48
301.371	1.3
301.746	1.09
302.122	1.97
302.498	1.09
302.874	1.39
303.249	1.54
303.625	1.37
304	1.13
304.376	1.73
304.751	1.08
305.127	1.94
305.502	0.87
305.878	1.25
306.253	1.03
306.628	1.52
307.003	1.67
307.378	1.53
307.754	1.45
308.129	1.03
308.504	1.28
308.879	1.56
309.254	1.7
309.629	1.57
310.003	1.51
310.378	1.72
310.753	1.33
311.128	1.5
311.502	1.2
311.877	1.71
312.252	1.17
312.626	1.37
313.001	1.08
313.375	1.43
313.75	0.97
314.124	1.67
314.498	1.36
314.873	1.74
315.247	0.98
315.621	1.04
315.995	0.82
316.369	1.62
316.743	0.99
317.117	1.96
317.491	1.41
317.865	1.54
318.239	0.65
318.613	1.72
318.987	1.61
319.361	0.64
319.734	1.26
320.108	2.02
320.482	1.39
320.855	1.4
321.229	1.18
321.602	1.26
321.976	1.24
322.349	1.33
322.723	1.58
323.096	1.85
323.469	0.51
323.843	1.21
324.216	1.86
324.589	1.27
324.962	1.31
325.335	0.91
325.708	1.19
326.081	1.57
326.454	1.7
326.827	1.05
327.2	1.57
327.573	1.79
327.945	1.44
328.318	1.12
328.691	1.12
329.063	1.16
329.436	1.28
329.809	1.81
330.181	1.28
330.553	1.27
330.926	1.08
331.298	1.77
331.671	0.91
332.043	2.06
332.415	1.92
332.787	0.86
333.159	2.07
333.532	1.83
333.904	1.78
334.276	1.27
334.648	1.72
335.02	1.85
335.391	1.41
335.763	1.76
336.135	1.04
336.507	1.76
336.879	0.82
337.25	1.23
337.622	1.38
337.993	1.41
338.365	1.75
338.736	1.86
339.108	1.72
339.479	1.07
339.851	1.52
340.222	1.18
340.593	1.52
340.964	1.31
341.336	1.91
341.707	0.75
342.078	1.97
342.449	1.91
342.82	1.66
343.191	1
343.562	1.35
343.933	1.9
344.303	1.57
344.674	1.95
345.045	1.73
345.416	2.18
345.786	1.22
346.157	1.81
346.527	1.44
346.898	0.9
347.268	1.44
347.639	1.5
348.009	1.66
348.38	1.31
348.75	1.8
349.12	1.59
349.49	1.86
349.861	1.63
350.231	1.48
350.601	1.85
350.971	2.19
351.341	1.95
351.711	1.66
352.081	1.84
352.45	1.54
352.82	1.86
353.19	1.86
353.56	1.57
353.929	1.67
354.299	1.83
354.669	1.25
355.038	2.07
355.408	1.75
355.777	1.87
356.147	1.55
356.516	1.83
356.885	1.73
357.254	1.28
357.624	1.96
357.993	1.65
358.362	1.45
358.731	1.39
359.1	1.41
359.469	1.61
359.838	1.97
360.207	1.53
360.576	1.64
360.945	1.79
361.314	1.86
361.682	1.35
362.051	1.52
362.42	1.71
362.788	1.71
363.157	1.75
363.525	1.74
363.894	1.68
364.262	1.68
364.631	1.8
364.999	1.75
365.367	1.33
365.735	2.34
366.104	1.8
366.472	1.89
366.84	1.51
367.208	1.52
367.576	1.8
367.944	2.01
368.312	1.28
368.68	1.37
369.048	1.77
369.416	1.82
369.783	1.26
370.151	1.91
370.519	2.11
370.886	1.74
371.254	1.93
371.621	1.99
371.989	1.73
372.356	1.36
372.724	1.98
373.091	1.71
373.458	1.73
373.826	1.54
374.193	1.45
374.56	1.76
374.927	1.54
375.294	1.97
375.661	1.82
376.028	1.36
376.395	1.71
376.762	1.92
377.129	1.63
377.496	1.9
377.863	1.48
378.229	1.37
378.596	1.83
378.963	1.78
379.329	1.72
379.696	1.85
380.062	1.87
380.429	1.78
380.795	1.46
381.161	1.37
381.528	1.59
381.894	1.41
382.26	1.42
382.626	1.8
382.993	1.5
383.359	2.06
383.725	1.75
384.091	1.67
384.457	1.9
384.823	1.71
385.188	1.9
385.554	1.76
385.92	1.93
386.286	2.1
386.651	2
387.017	1.99
387.383	1.88
387.748	1.46
388.114	1.92
388.479	1.7
388.845	1.95
389.21	1.92
389.575	2.2
389.94	1.81
390.306	2.15
390.671	2.07
391.036	1.32
391.401	1.56
391.766	1.63
392.131	1.63
392.496	2.09
392.861	1.81
393.226	2.01
393.591	1.94
393.956	1.79
394.32	1.93
394.685	1.76
395.05	1.67
395.414	1.85
395.779	1.67
396.143	1.98
396.508	1.76
396.872	1.84
397.236	1.98
397.601	1.45
397.965	1.93
398.329	1.92
398.694	2.02
399.058	1.69
399.422	1.69
399.786	2.03
400.15	2.02
400.514	1.89
400.878	1.91
401.242	1.85
401.605	1.94
401.969	2.03
402.333	1.8
402.697	1.77
403.06	1.69
403.424	1.83
403.787	1.73
404.151	2.13
404.514	2.04
404.878	1.85
405.241	2.17
405.604	1.78
405.968	2.18
406.331	2.05
406.694	1.89
407.057	2.04
407.42	2.17
407.783	1.79
408.146	2.08
408.509	1.78
408.872	1.74
409.235	1.91
409.598	2.36
409.961	1.93
410.323	1.77
410.686	1.89
411.049	1.96
411.411	1.76
411.774	2.07
412.136	1.77
412.499	1.74
412.861	1.9
413.223	1.89
413.586	2
413.948	2.1
414.31	1.93
414.672	1.72
415.035	1.69
415.397	2.41
415.759	1.65
416.121	2.02
416.483	1.77
416.845	2.09
417.206	1.98
417.568	1.93
417.93	1.65
418.292	2.1
418.653	2.02
419.015	1.96
419.377	1.87
419.738	1.96
420.1	2.11
420.461	2.04
420.822	2.02
421.184	1.94
421.545	1.94
421.906	1.95
422.267	2
422.629	1.96
422.99	1.95
423.351	1.86
423.712	2.01
424.073	2.02
424.434	1.89
424.795	2.04
425.155	2
425.516	1.89
425.877	1.96
426.238	1.92
426.598	2.02
426.959	2.06
427.32	1.95
427.68	1.9
428.041	1.79
428.401	2.12
428.761	1.96
429.122	2.17
429.482	1.88
429.842	2.16
430.202	1.96
430.563	2.04
430.923	1.94
431.283	2.17
431.643	1.96
432.003	2.04
432.363	2.14
432.722	1.86
433.082	2.02
433.442	2.03
433.802	1.97
434.161	1.95
434.521	2.27
434.881	1.97
435.24	1.87
435.6	1.99
435.959	1.95
436.319	1.98
436.678	1.99
437.037	1.95
437.396	1.97
437.756	1.9
438.115	1.9
438.474	2.14
438.833	2.01
439.192	2.02
439.551	2.21
439.91	1.98
440.269	1.99
440.628	1.97
440.987	2.02
441.345	1.97
441.704	2.05
442.063	2.08
442.421	1.93
442.78	2.01
443.138	1.93
443.497	1.98
443.855	1.88
444.214	1.97
444.572	2.14
444.93	1.98
445.288	2.09
445.647	2.05
446.005	2.03
446.363	2.03
446.721	2.1
447.079	1.99
447.437	1.96
447.795	2.07
448.153	1.89
448.51	2.03
448.868	2.06
449.226	2
449.584	2.04
449.941	2.08
450.299	2.01
450.656	2.03
451.014	2.1
451.371	1.89
451.729	1.98
452.086	2.22
452.443	2.04
452.801	2.21
453.158	2.13
453.515	2.03
453.872	2.27
454.229	1.93
454.586	2.05
454.943	1.99
455.3	2.1
455.657	2.06
456.014	2
456.371	2.03
456.727	1.98
457.084	2.36
457.441	2
457.797	2.03
458.154	2.3
458.51	2.19
458.867	2.26
459.223	2.05
459.58	2.06
459.936	2.18
460.292	2.24
460.648	2.14
461.005	2
461.361	2.07
461.717	2.22
462.073	1.93
462.429	2.1
462.785	2.06
463.141	2.03
463.496	2.18
463.852	2.24
464.208	2.07
464.564	2.14
464.919	2.13
465.275	2.25
465.631	2.08
465.986	1.95
466.342	2.03
466.697	2
467.052	2.1
467.408	2.16
467.763	1.92
468.118	2.17
468.473	2.15
468.829	2.15
469.184	2.05
469.539	2.14
469.894	2.1
470.249	2.16
470.603	2.09
470.958	2.26
471.313	2.14
471.668	2.34
472.023	2.26
472.377	2.01
472.732	2.25
473.086	1.98
473.441	2.05
473.795	2.21
474.15	2.12
474.504	2.11
474.859	2.17
475.213	1.87
475.567	2.11
475.921	2.03
476.275	2.21
476.63	2.07
476.984	2.19
477.338	2.18
477.692	2.06
478.045	2.05
478.399	2.13
478.753	2.16
479.107	2.16
479.461	2.02
479.814	2.07
480.168	2.09
480.521	1.98
480.875	2.07
481.228	2.05
481.582	2.04
481.935	1.93
482.289	2.13
482.642	2.13
482.995	2.14
483.348	1.99
483.701	2.2
484.055	2.13
484.408	2.17
484.761	2.08
485.114	2.06
485.466	1.95
485.819	1.95
486.172	1.95
486.525	2.05
486.878	2.06
487.23	2.06
487.583	2.07
487.936	2.09
488.288	2.05
488.641	2.11
488.993	2.01
489.345	1.98
489.698	1.99
490.05	2.02
490.402	2.1
490.754	2.12
491.107	2.16
491.459	2.19
491.811	2.12
492.163	2.07
492.515	2.11
492.866	2.15
493.218	2.15
493.57	2.01
493.922	2.03
494.274	2.16
494.625	2.17
494.977	2.19
495.328	2.25
495.68	2.2
496.031	2.24
496.383	2.14
496.734	2.23
497.086	2.21
497.437	2.18
497.788	2.04
498.139	2.19
498.49	2.12
498.842	2.08
499.193	2.11
499.544	2.11
499.894	2.19
500.245	2.15
500.596	2.23
500.947	2.17
501.298	2.05
501.648	2.29
501.999	2.3
502.35	2.14
502.7	2.14
503.051	1.93
503.401	2.22
503.752	2.23
504.102	2.33
504.452	2.17
504.803	2.21
505.153	2.2
505.503	2.15
505.853	2.09
506.203	2.01
506.553	2.18
506.903	2.12
507.253	2.02
507.603	2.21
507.953	2.27
508.303	2.28
508.652	1.99
509.002	2.31
509.352	2.2
509.701	2.15
510.051	2.04
510.4	2.2
510.75	2.05
511.099	2.18
511.449	2.16
511.798	2.19
512.147	2.19
512.496	2.14
512.846	2.23
513.195	2.14
513.544	2.17
513.893	2.26
514.242	2.14
514.591	2.34
514.939	2.21
515.288	2.1
515.637	2.3
515.986	2.31
516.334	2.23
516.683	2.3
517.032	2.25
517.38	2.24
517.729	2.2
518.077	2.09
518.426	2.36
518.774	2.18
519.122	2.07
519.47	2.15
519.819	1.98
520.167	2.13
520.515	2.18
520.863	2.19
521.211	2.21
521.559	2.26
521.907	2.14
522.255	2.17
522.602	2.21
522.95	2.31
523.298	2.06
523.645	2.22
523.993	2.11
524.341	2.39
524.688	2.22
525.036	2.18
525.383	2.23
525.73	2.35
526.078	2.15
526.425	2.05
526.772	2.27
527.119	2.13
527.466	2.12
527.814	2.23
528.161	2.18
528.508	2.22
528.854	2.12
529.201	2.15
529.548	2.16
529.895	2.08
530.242	2.06
530.588	2.04
530.935	2.07
531.282	2.12
531.628	2.12
531.975	2.17
532.321	2.19
532.667	2.22
533.014	2.22
533.36	2.16
533.706	2.21
534.052	2.21
534.399	2.12
534.745	2.08
535.091	2.12
535.437	2.13
535.783	2.16
536.129	2.18
536.474	2.17
536.82	2.17
537.166	2.21
537.512	2.26
537.857	2.12
538.203	2.15
538.549	2.13
538.894	2.12
539.239	2.19
539.585	2.08
539.93	2.19
540.276	2.39
540.621	2.31
540.966	2.22
541.311	2.03
541.656	2
542.001	2.12
542.346	2.25
542.691	2.07
543.036	2.16
543.381	1.98
543.726	2.11
544.071	2.14
544.415	2.18
544.76	2.14
545.105	2.19
545.449	2.14
545.794	2.22
546.138	2.21
546.483	2.27
546.827	2.27
547.171	2.23
547.516	2.37
547.86	2.14
548.204	2.11
548.548	2.1
548.892	2.34
549.236	2.16
549.58	2.2
549.924	2.21
550.268	2.39
550.612	2.36
550.956	2.27
551.3	2.2
551.643	2.41
551.987	2.45
552.33	2.26
552.674	2.28
553.017	2.36
553.361	2.14
553.704	2.45
554.048	2.25
554.391	2.22
554.734	2.26
555.077	2.4
555.42	2.08
555.764	2.13
556.107	2.11
556.45	2.13
556.793	2.16
557.135	2.25
557.478	2.41
557.821	2.26
558.164	2.07
558.507	2.31
558.849	2.16
559.192	2.31
559.534	2.21
559.877	2.21
560.219	2.2
560.562	2.47
560.904	2.37
561.246	2.3
561.589	2.38
561.931	2.19
562.273	2.11
562.615	2.4
562.957	2.21
563.299	2.15
563.641	2.31
563.983	2.27
564.325	2.07
564.667	2.14
565.008	2.38
565.35	2.28
565.692	2.08
566.033	2.25
566.375	2.47
566.716	2.39
567.058	2.4
567.399	2.21
567.741	2.11
568.082	2.32
568.423	2.21
568.764	2.19
569.105	2.36
569.447	2.33
569.788	2.31
570.129	2.34
570.47	2.19
570.811	2.24
571.151	2.44
571.492	2.13
571.833	2.25
572.174	2.17
572.514	2.29
572.855	2.24
573.195	2.22
573.536	2.18
573.876	2.1
574.217	2.08
574.557	2.38
574.898	2.38
575.238	2.42
575.578	2.14
575.918	2.42
576.258	2.22
576.598	2.22
576.938	2.38
577.278	2.32
577.618	2.05
577.958	2.26
578.298	2.37
578.638	2.24
578.977	2.27
579.317	2.13
579.657	2.4
579.996	2.18
580.336	2.37
580.675	2.22
581.014	2.26
581.354	2.17
581.693	2.17
582.032	2.2
582.372	2.21
582.711	2.25
583.05	2.11
583.389	2.12
583.728	2.12
584.067	2.26
584.406	2.31
584.745	2.14
585.083	2.25
585.422	2.2
585.761	2.22
586.1	2.28
586.438	2.23
586.777	2.52
587.115	2.27
587.454	2.19
587.792	2.21
588.13	2.32
588.469	2.3
588.807	2.23
589.145	2.09
589.483	2.28
589.821	2.31
590.159	2.32
590.497	2.47
590.835	2.55
591.173	2.26
591.511	2.43
591.849	2.42
592.187	2.17
592.524	2.18
592.862	2.33
593.2	2.51
593.537	2.16
593.875	2.04
594.212	2.12
594.55	2.11
594.887	2.48
595.224	2.01
595.561	2.14
595.899	2.2
596.236	2.07
596.573	2.1
596.91	1.95
597.247	1.87
597.584	2.36
597.921	2.27
598.258	2.25
598.594	2.39
598.931	2.12
599.268	2.35
599.604	2.18
599.941	2.37
600.277	2.06
600.614	2.18
600.95	2.15
601.287	2.23
601.623	2.24
601.959	2.27
602.296	2.33
602.632	2.38
602.968	2.31
603.304	2.06
603.64	2.32
603.976	2.5
604.312	2.24
604.648	2.17
604.984	2.35
605.319	2.39
605.655	2.29
605.991	2.21
606.326	2.35
606.662	2.3
606.998	2.03
607.333	2.18
607.668	2.27
608.004	2.35
608.339	2.32
608.674	2.21
609.01	2.11
609.345	2.3
609.68	2.35
610.015	2.14
610.35	2.11
610.685	2
611.02	2.01
611.355	1.97
611.689	2.18
612.024	2.17
612.359	2.09
612.694	2.15
613.028	1.95
613.363	2.41
613.697	2.28
614.032	2.22
614.366	2.01
614.7	2.25
615.035	2.53
615.369	2.29
615.703	2.39
616.037	2.29
616.371	1.85
616.705	2.12
617.039	2.03
617.373	2.1
617.707	2.44
618.041	1.83
618.375	2.43
618.709	2.5
619.042	2
619.376	2.81
619.71	2.57
620.043	2.57
620.377	2.24
620.71	2.39
621.043	2.42
621.377	2.41
621.71	1.98
622.043	1.87
622.376	1.98
622.709	2.63
623.043	2.57
623.376	2.2
623.709	1.98
624.041	2.62
624.374	1.97
624.707	2.12
625.04	2.61
625.373	1.52
625.705	1.96
626.038	2.32
626.37	2.45
626.703	2.24
627.035	2.44
627.368	2.8
627.7	2.3
628.032	1.92
628.365	2.59
628.697	2.3
629.029	2.06
629.361	2.15
629.693	2.35
630.025	2.19
630.357	2.86
630.689	2.14
631.021	2.06
631.353	2.28
631.684	2.16
632.016	2.3
632.348	2.56
632.679	2.62
633.011	2.63
633.342	2.67
633.674	2.29
634.005	2.6
634.336	2.36
634.668	2.68
634.999	1.9
635.33	2.36
635.661	2.42
635.992	2.04
636.323	2.48
636.654	2.67
636.985	2.37
637.316	2.16
637.647	2.12
637.977	2.26
638.308	2.77
638.639	1.88
638.969	2.33
639.3	2.04
639.63	1.86
639.961	2.56
640.291	2.67
640.622	2.62
640.952	2.24
641.282	2.28
641.612	2.62
641.943	2.11
642.273	2.33
642.603	2.79
642.933	2.9
643.263	2.28
643.592	2.28
643.922	2.16
644.252	2.03
644.582	2.27
644.911	1.74
645.241	2.14
645.571	1.92
645.9	2.47
646.23	2.14
646.559	2.45
646.888	1.95
647.218	2.02
647.547	2.65
647.876	2.16
648.205	2.21
648.534	2.47
648.863	1.52
649.192	2.47
649.521	2.25
649.85	1.79
650.179	2.35
650.508	2.49
650.837	2.1
651.165	2.37
651.494	2.39
651.822	2.39
652.151	1.94
652.479	2.45
652.808	2.06
653.136	2.72
653.465	1.74
653.793	2.47
654.121	1.96
654.449	2.26
654.777	2.74
655.105	2.8
655.433	2.22
655.761	2
656.089	1.94
656.417	2.37
656.745	1.8
657.073	1.81
657.4	2.48
657.728	2.21
658.056	2.14
658.383	2.36
658.711	2.36
659.038	2.41
659.365	2.47
659.693	2.31
660.02	2.04
660.347	1.95
660.674	2.58
661.001	2.53
661.329	1.79
661.656	2.37
661.982	2.46
662.309	2.36
662.636	2.2
662.963	2.67
663.29	2.67
663.616	2.67
663.943	2.22
664.27	2.63
664.596	2.65
664.923	2.14
665.249	2.44
665.576	2.02
665.902	3.02
666.228	2.5
666.554	2.44
666.881	2.32
667.207	2.25
667.533	2.29
667.859	2.45
668.185	2.54
668.511	1.79
668.837	1.94
669.162	2.62
669.488	1.59
669.814	2.53
670.139	2.27
670.465	2.49
670.791	2.96
671.116	3.14
671.442	2.35
671.767	2.48
672.092	2.93
672.418	2.84
672.743	2.81
673.068	2.28
673.393	2.57
673.718	2.05
674.043	2.41
674.368	2.49
674.693	2.81
675.018	2.05
675.343	1.98
675.667	2.64
675.992	2.96
676.317	2.74
676.641	2.59
676.966	2.21
677.29	2.78
677.615	2.76
677.939	3.27
678.264	2.8
678.588	2.41
678.912	2.31
679.236	2.91
679.56	1.62
679.885	2.82
680.209	1.73
680.532	1.74
680.856	2.71
681.18	1.78
681.504	2.43
681.828	2.73
682.152	2.04
682.475	2.7
682.799	2.52
683.122	2.78
683.446	2.11
683.769	2.53
684.093	2.11
684.416	3.18
684.739	2.56
685.062	2.17
685.386	2.93
685.709	2.24
686.032	2.61
686.355	2.66
686.678	2.37
687.001	2.05
687.324	2.27
687.646	2.39
687.969	1.83
688.292	1.97
688.614	2.24
688.937	3.05
689.26	1.9
689.582	2.4
689.904	2.89
690.227	2.46
690.549	1.75
690.871	3.62
691.194	2.4
691.516	1.76
691.838	3.04
692.16	2
692.482	2.45
692.804	2.73
693.126	2.62
693.448	2.93
693.769	3.4
694.091	2.81
694.413	2.97
694.735	1.94
695.056	3.05
695.378	2.99
695.699	1.69
696.021	1.35
696.342	1.53
696.663	2.1
696.984	2.32
697.306	1.11
697.627	2.58
697.948	2.61
698.269	1.18
698.59	2.55
698.911	1.28
699.232	2.52
699.553	2.62
699.873	2.75
700.194	3.42
700.515	2.98
700.835	2.51
701.156	2.77
701.477	2.19
701.797	2.75
702.117	2.35
702.438	2.8
702.758	2.09
703.078	2.32
703.398	2.05
703.719	2.15
704.039	2.08
704.359	3.35
704.679	3.67
704.999	2.7
705.319	1.64
705.638	2.03
705.958	1.98
706.278	2.55
706.597	2.17
706.917	1.95
707.237	2.29
707.556	2.93
707.876	2.95
708.195	3.62
708.514	2.45
708.834	3.09
709.153	2.74
709.472	2.37
709.791	3.16
710.11	1.72
710.429	2.22
710.748	2.71
711.067	2.32
711.386	1.53
711.705	3.37
712.023	3.45
712.342	1.72
712.661	2.62
712.979	1.79
713.298	1.96
713.616	2.97
713.935	2.14
714.253	1.94
714.572	2.42
714.89	3.55
715.208	3.17
715.526	2.98
715.844	2.93
716.162	3.95
716.48	1.91
716.798	3.33
717.116	3.92
717.434	2.26
717.752	0.71
718.069	2.74
718.387	2.45
718.705	2.48
719.022	0.67
719.34	2.46
719.657	1.33
719.975	2.38
720.292	3.29
720.609	2.8
720.927	2.97
721.244	3.91
721.561	1.8
721.878	3.4
722.195	1.38
722.512	2.54
722.829	3.16
723.146	2.24
723.463	3.32
723.779	1.15
724.096	2.22
724.413	0.91
724.729	-0.61
725.046	0.06
725.362	3.26
725.679	1.71
725.995	2.55
726.311	2.47
726.628	3.52
726.944	2.98
727.26	2.81
727.576	3.44
727.892	3.12
728.208	2.05
728.524	2.04
728.84	2.31
729.156	2.32
729.472	1.26
729.787	1.54
730.103	3.15
730.419	3.16
730.734	3.1
731.05	0.95
731.365	2.23
731.681	3.55
731.996	3.12
732.311	2.38
732.626	2.56
732.942	1.11
733.257	3.01
733.572	3.03
733.887	3.39
734.202	2.89
734.517	1.99
734.832	3.48
735.146	3.51
735.461	3.17
735.776	3.19
736.091	1.96
736.405	2.67
736.72	0.91
737.034	2.72
737.349	3.2
737.663	2.54
737.977	2.63
738.292	1.97
738.606	1.7
738.92	2.98
739.234	2.14
739.548	3.64
739.862	1.51
740.176	2.97
740.49	2.84
740.804	3.96
741.117	1.52
741.431	1.75
741.745	0.39
742.058	2.42
742.372	1.93
742.685	1.81
742.999	1.62
743.312	1.68
743.626	3.85
743.939	3.11
744.252	2.34
744.565	1.93
744.878	2.27
745.191	1.81
745.505	-0.73
745.817	3.53
746.13	2.71
746.443	3.24
746.756	3.51
747.069	2.47
747.381	4.24
747.694	1.8
748.007	2.09
748.319	1.34
748.632	2.87
748.944	3.12
749.256	2.67
749.569	3.14
749.881	4.74
750.193	3.46
750.505	1.68
750.817	2.14
751.129	2.93
751.441	1.51
751.753	2.63
752.065	2.8
752.377	3.21
752.689	2.52
753	2.1
753.312	2.07
753.624	2.05
753.935	5.91
754.247	4.1
754.558	1.98
754.869	3.07
755.181	4.59
755.492	2.81
755.803	1.7
756.114	2.83
756.425	2.22
756.736	0.32
757.047	3.36
757.358	2.67
757.669	3.53
757.98	0.02
758.291	1.54
758.601	0.58
758.912	1.3
759.223	3.89
759.533	1.4
759.844	1.09
760.154	2.22
760.464	3.44
760.775	2.52
761.085	2.22
761.395	5.51
761.705	1.21
762.016	2.13
762.326	1.11
762.636	1.48
762.945	0.96
763.255	3.41
763.565	2.1
763.875	1.85
764.185	1.23
764.494	3.19
764.804	2.29
765.113	0.2
765.423	1.85
765.732	3.64
766.042	2.81
766.351	2.64
766.66	3.07
766.97	3.93
767.279	0.97
767.588	3.64
767.897	2.94
768.206	1.19
768.515	1.64
768.824	2.13
769.133	3.3
769.441	3.21
769.75	1.15
770.059	3.35
770.367	3.51
770.676	3.67
770.984	3.71
771.293	0.85
771.601	4.58
771.91	3.25
772.218	5.18
772.526	6.22
772.834	3.6
773.142	2.36
773.45	0.58
773.758	-0.34
774.066	2.38
774.374	-0.01
774.682	-2.02
774.99	5.34
775.298	3.66
775.605	3.69
775.913	-0.01
776.22	3.13
776.528	3.58
776.835	2.88
777.143	3.48
777.45	3.45
777.757	1.59
778.065	-2.66
778.372	1.16
778.679	1.64
778.986	2.48
779.293	-0.89
779.6	5.36
779.907	1.47
780.214	7.25
780.52	1.68
780.827	3.65
781.134	0.99
781.44	1.78
781.747	2.03
782.053	2.5
782.36	0.79
782.666	4.65
782.973	2.03
783.279	3.22
783.585	4.75
783.891	5.34
784.197	1.89
784.503	5
784.809	1.27
785.115	6.05
785.421	2.8
785.727	5.71
786.033	4.28
786.339	-0.31
786.644	1.53
786.95	2.28
787.255	3.91
787.561	6.77
787.866	3.01
788.172	1.35
788.477	2.27
788.782	2.99
789.088	2.22
789.393	0.64
789.698	3.99
790.003	-1.76
790.308	3.47
790.613	-0.62
790.918	5.96
791.223	4.84
791.527	-2.55
791.832	3.21
792.137	-0.85
792.441	1.57
792.746	5.67
793.05	1.04
793.355	0.25
793.659	7.96
793.963	3.03
794.268	5.07
794.572	8.3
794.876	4.24
795.18	4.91
795.484	-1.4
795.788	4.98
796.092	4.9
796.396	0.93
796.7	3.41
797.004	3.79
797.307	-3.45
797.611	4.05
797.915	4.19
798.218	-1.62
798.522	1.26
798.825	2.03
799.128	2.97
799.432	-1.64
799.735	-2.91
800.038	8.48
800.341	2.75
800.644	5.65
800.947	3.92
801.25	-1.27
801.553	0.77
801.856	4.03
802.159	-1.35
802.462	-2.61
802.764	0.9
803.067	3.31
803.37	1.11
803.672	1.82
803.975	-0.39
804.277	1.81
804.579	-2.18
804.882	-0.88
805.184	-0.46
805.486	-2.12
805.788	2.59
806.09	12.36
806.392	0.92
806.694	4.19
806.996	3.56
807.298	0.08
807.6	-1.22
807.902	5.18
808.203	0.2
808.505	5.21
808.807	0.66
809.108	2.03
809.409	2.55
809.711	1.05
810.012	4.48
810.313	2.41
810.615	1.76
810.916	4.26
811.217	0.38
811.518	0.19
811.819	-0.18
812.12	4.89
812.421	-4.07
812.722	3.33
813.023	7.59
813.323	5.62
813.624	-7.99
813.925	8.59
814.225	1.5
814.526	0.78
814.826	7.63
815.126	-0.71
815.427	-0.73
815.727	0.42
816.027	6.6
816.327	-4.14
816.627	-2.85
816.927	5.19
817.227	5.95
817.527	-0.42
817.827	2.29
818.127	6.56
818.427	-1.18
818.727	0.56
819.026	2.66
819.326	11.25
819.625	2.69
819.925	-6.31
820.224	1.66
820.524	5.41
820.823	7.07
821.122	-1.34
821.421	1.18
821.72	-0.23
822.019	-0.01
822.318	1.03
822.617	1.49
822.916	-1.4
823.215	0.67
823.514	8.28
823.813	5.89
824.111	4.23
824.41	5.58
824.709	3.68
825.007	3.17
825.306	4.43
825.604	4.01
825.902	4.88
826.201	3.63
826.499	4.24
826.797	4.19
827.095	5.06
827.393	3.61
827.691	4.88
827.989	2.86
828.287	5.44
828.585	2.41
828.882	4.58
829.18	2.64
829.478	6.19
829.775	5.26
830.073	5.84
830.37	5.47
830.668	3.18
830.965	6.1
831.263	6.3
831.56	3.66
831.857	0.71
832.154	4.8
832.451	5.83
832.748	7.07
833.045	4.27
833.342	3.26
833.639	4.63
833.936	0.01
834.232	0.93
834.529	-1.55
834.826	-2.29
835.122	2.02
835.419	1.72
835.715	-1.8
836.012	2.46
836.308	-0.52
836.604	0.08
836.901	2.97
837.197	2.1
837.493	5.18
837.789	-0.15
838.085	3.85
838.381	2.18
838.677	6.2
838.972	5.42
839.268	2.38
839.564	0.97
839.86	5.9
840.155	-8.3
840.451	-3.64
840.746	0.78
841.042	4.41
841.337	-1.21
841.632	8.19
841.928	7.87
842.223	-1.24
842.518	-1.74
842.813	5.45
843.108	2.69
843.403	5.85
843.698	2.36
843.993	-0.92
844.287	3.72
844.582	8.48
844.877	-0.91
845.171	0.79
845.466	-2.72
845.761	-16.53
846.055	14.97
846.349	1.86
846.644	1.71
846.938	-19.7
847.232	3.65
847.526	-11.75
847.82	9.27
848.114	-8.55
848.408	-16.77
848.702	-2.49
848.996	-31.9
849.29	1.34
849.584	-1.16
849.877	-0.81
850.171	19.04
850.465	7.49
850.758	-5.31
851.052	-7.15
851.345	-0.64
851.638	27.71
851.932	-31.71
852.225	-6.91
852.518	-1.89
852.811	-9.08
853.104	-39.09
853.397	14.91
853.69	-20.07
853.983	-21.75
854.276	19.31
854.569	-2.32
854.861	5.29
855.154	-15.93
855.447	-41.12
855.739	16.58
856.032	-22.07
856.324	13.98
856.616	8.47
856.909	-6.73
857.201	7.32
857.493	-24.27
857.785	-25.81
858.077	17.44
858.369	-13.37
858.661	-2.69
858.953	2.97
859.245	-18.71
859.537	-5.25
859.829	2.77
860.12	4.27
860.412	-3.11
860.703	-2.87
860.995	-1.8
861.286	-13.41
861.578	-0.57
861.869	24.08
862.16	-2.69
862.452	-4.64
862.743	1.22
863.034	0.6
863.325	-26.73
863.616	-27.55
863.907	-12.92
864.198	-31.53
864.488	14.87
864.779	3.46
865.07	-16.86
865.36	-56.53
865.651	-1.9
865.941	13.16
866.232	-10.69
866.522	-33.24
866.813	-13.66
867.103	-9.22
867.393	-45.76
867.683	-4.09
867.973	-46.51
868.263	16.4
868.553	16.75
868.843	-7.35
869.133	-48.55
869.423	-11
869.713	5.51
870.002	-10.94
870.292	14.94
870.582	32.81
870.871	-63.42
871.161	1.27
871.45	-1.83
871.739	0.51
872.029	-6.36
872.318	6.56
872.607	34.8
872.896	-18.05
873.185	-26.54
873.474	-77.74
873.763	9.73
874.052	-24.71
874.341	-9.02
874.63	-34.68
874.918	-9.15
875.207	27.1
875.496	-1.7
875.784	-98.85
876.073	-72.43
876.361	-47.81
876.649	-59.34
876.938	-23.84
877.226	6.9
877.514	16.84
877.802	-20.45
878.09	-24.87
878.378	-0.43
878.666	-27.34
878.954	-22.34
879.242	-12.81
879.53	-4.37
879.817	-8.72
880.105	-17.57
880.392	1.49
880.68	-6.22
880.967	-57.72
881.255	17.74
881.542	-31.74
881.83	-62.56
882.117	-6
882.404	4.36
882.691	5.82
882.978	-13.57
883.265	9.97
883.552	12.46
883.839	7.53
884.126	1.89
884.413	4.09
884.699	7.68
884.986	12.11
885.273	5.86
885.559	5.86
885.846	5.86
