Data from 0193_forehead_Reflection__1__404.txt Node

Date: Fri Dec 15 20:23:09 CST 2023
User: ToomeyLab
Spectrometer: FLMS14357
Trigger mode: 0
Integration Time (sec): 1.000000E-2
Scans to average: 100
Electric dark correction enabled: true
Nonlinearity correction enabled: false
Boxcar width: 0
XAxis mode: Wavelengths
Number of Pixels in Spectrum: 2048
>>>>>Begin Spectral Data<<<<<
189.047	265.87
189.435	265.87
189.823	265.87
190.211	-106.53
190.599	-1639.81
190.987	90.15
191.375	139.6
191.763	35.48
192.151	34.29
192.538	92.61
192.926	34.02
193.314	284.67
193.702	-386.47
194.089	96.12
194.477	42.4
194.864	8.89
195.252	79.21
195.639	113.03
196.027	-76.84
196.414	154.95
196.801	100
197.189	395.07
197.576	-533.78
197.963	-6.01
198.351	-72.46
198.738	7.08
199.125	28.28
199.512	-146.07
199.899	33.81
200.286	22.47
200.673	49.94
201.06	-30.27
201.447	-28.03
201.833	56.84
202.22	27.46
202.607	40.43
202.994	88.8
203.38	-1.64
203.767	43.24
204.154	58.57
204.54	27.05
204.927	-73.68
205.313	-61.65
205.699	15.73
206.086	45.9
206.472	63.01
206.858	-12.86
207.245	-74.42
207.631	14.43
208.017	19.37
208.403	-0.49
208.789	24.96
209.175	4.95
209.561	-25.24
209.947	26.29
210.333	-57.57
210.719	49.52
211.105	29.99
211.491	-71.42
211.876	12.62
212.262	35.49
212.648	22.71
213.034	16.22
213.419	1.41
213.805	22.71
214.19	-43.23
214.576	14.48
214.961	-28.84
215.346	-12.16
215.732	-7.83
216.117	12.09
216.502	-7.28
216.888	11.76
217.273	27.97
217.658	-54.31
218.043	-7.62
218.428	-45.42
218.813	-34
219.198	-2.37
219.583	-2
219.968	-8.44
220.353	-0.53
220.738	-7.74
221.122	7.11
221.507	-36.57
221.892	-37.31
222.276	-32.95
222.661	-23.58
223.046	2.44
223.43	3.36
223.815	4.73
224.199	1.11
224.583	5.61
224.968	-2.04
225.352	13.16
225.736	-3.37
226.121	-11.62
226.505	-6.55
226.889	4.34
227.273	4.2
227.657	1.6
228.041	0.36
228.425	-1.07
228.809	4.93
229.193	4.82
229.577	1.39
229.961	3.29
230.344	2.11
230.728	2.86
231.112	3.35
231.495	2.91
231.879	0.35
232.263	4.63
232.646	3.77
233.03	2.4
233.413	1.31
233.797	3.47
234.18	1.45
234.563	-1
234.946	0.87
235.33	4.41
235.713	1.38
236.096	2.94
236.479	4.09
236.862	3.05
237.245	2.79
237.628	0.9
238.011	2.96
238.394	5.39
238.777	2.48
239.16	0.5
239.543	3.91
239.925	4.47
240.308	3.1
240.691	3.8
241.073	4.26
241.456	2.24
241.838	1.57
242.221	2.35
242.603	2.95
242.986	2.1
243.368	2.97
243.75	3.52
244.133	2.77
244.515	3.5
244.897	3.1
245.279	3.5
245.661	2.92
246.043	2.75
246.425	2.02
246.807	4.13
247.189	3.09
247.571	4.09
247.953	3.25
248.335	3.32
248.717	3.77
249.098	3.16
249.48	3.67
249.862	3.29
250.243	3.41
250.625	3.84
251.006	3.8
251.388	1.85
251.769	2.49
252.151	3.97
252.532	3.4
252.913	3.21
253.295	2.83
253.676	3.13
254.057	3.85
254.438	3.13
254.819	2.41
255.2	2.43
255.581	3.13
255.962	3.13
256.343	3.1
256.724	1.94
257.105	4.36
257.486	3.46
257.867	3.74
258.247	3.14
258.628	3.32
259.009	2.61
259.389	3.16
259.77	3.07
260.15	3.29
260.531	2.57
260.911	4.07
261.292	3.3
261.672	3.6
262.052	3.28
262.432	3.38
262.813	3.29
263.193	3.3
263.573	2.75
263.953	2.99
264.333	3.29
264.713	3.53
265.093	1.95
265.473	3.79
265.853	2.38
266.233	4.01
266.612	0.8
266.992	2.17
267.372	3.47
267.752	3.42
268.131	3.19
268.511	3.33
268.89	4.03
269.27	3.04
269.649	3.73
270.029	3.05
270.408	4.18
270.787	2.92
271.167	3.4
271.546	3.67
271.925	2.88
272.304	3.05
272.683	3.58
273.062	3.25
273.441	3.42
273.82	2.78
274.199	3.17
274.578	3.36
274.957	3.25
275.336	3.53
275.715	2.87
276.093	2.9
276.472	3.9
276.851	3.14
277.229	2.81
277.608	2.4
277.986	3.04
278.365	3.37
278.743	2.72
279.122	3.53
279.5	3.14
279.878	3.74
280.257	3.12
280.635	2.68
281.013	3.16
281.391	3.13
281.769	3.63
282.147	3.51
282.525	3.93
282.903	2.89
283.281	2.97
283.659	3.43
284.037	3.5
284.415	3.55
284.792	3.12
285.17	2.31
285.548	3.15
285.925	3.2
286.303	2.97
286.68	2.8
287.058	3.5
287.435	3.07
287.813	3.41
288.19	3.36
288.567	3.66
288.945	3.17
289.322	3.4
289.699	3.8
290.076	3.42
290.453	3.34
290.83	3.24
291.207	3.6
291.584	4.01
291.961	4.13
292.338	3.46
292.715	4.33
293.092	3.85
293.469	3.9
293.845	4.71
294.222	3.55
294.599	3.62
294.975	4.06
295.352	4.15
295.728	3.87
296.105	4.2
296.481	3.95
296.858	4.25
297.234	3.85
297.61	4.46
297.986	3.91
298.363	4.51
298.739	4.54
299.115	4.17
299.491	4.1
299.867	4.49
300.243	4.18
300.619	4.07
300.995	4.58
301.371	4.85
301.746	4.49
302.122	5.05
302.498	4.68
302.874	4.86
303.249	4.57
303.625	4.86
304	5.1
304.376	5.07
304.751	4.12
305.127	5.51
305.502	4.09
305.878	4.22
306.253	4.8
306.628	5.66
307.003	5.08
307.378	5.21
307.754	4.75
308.129	4.43
308.504	5.37
308.879	5.01
309.254	5.84
309.629	6.1
310.003	5.5
310.378	6.04
310.753	5.49
311.128	5.53
311.502	5.61
311.877	5.46
312.252	5.28
312.626	5.71
313.001	5.38
313.375	6.23
313.75	5.5
314.124	5.8
314.498	5.64
314.873	5.86
315.247	5.43
315.621	5.53
315.995	5.24
316.369	6.19
316.743	5.68
317.117	5.91
317.491	5.74
317.865	6.35
318.239	6.51
318.613	6.36
318.987	6.3
319.361	5.96
319.734	6.7
320.108	6.58
320.482	6.27
320.855	6.32
321.229	6.63
321.602	6.79
321.976	7.27
322.349	6.95
322.723	6.26
323.096	7.32
323.469	6.74
323.843	6.92
324.216	7.22
324.589	6.66
324.962	6.9
325.335	6.59
325.708	7.11
326.081	6.95
326.454	7.19
326.827	7.07
327.2	7.27
327.573	7.14
327.945	6.87
328.318	7.18
328.691	6.87
329.063	7.16
329.436	6.92
329.809	7.69
330.181	7.53
330.553	7.19
330.926	7.42
331.298	7.72
331.671	7.48
332.043	8.11
332.415	7.54
332.787	7.19
333.159	8.01
333.532	7.8
333.904	7.44
334.276	7.82
334.648	7.91
335.02	7.81
335.391	7.66
335.763	7.52
336.135	7.69
336.507	7.87
336.879	7.61
337.25	7.59
337.622	8.08
337.993	8.17
338.365	7.82
338.736	8.19
339.108	8.28
339.479	7.69
339.851	7.54
340.222	8.12
340.593	8.27
340.964	8.07
341.336	9.18
341.707	8.05
342.078	8.78
342.449	8.44
342.82	8.21
343.191	8.46
343.562	8.27
343.933	8.32
344.303	8.43
344.674	8.4
345.045	8.82
345.416	8.58
345.786	7.8
346.157	8.71
346.527	7.94
346.898	8.14
347.268	8.24
347.639	8.11
348.009	8.48
348.38	8.23
348.75	8.25
349.12	8.72
349.49	9.03
349.861	8.47
350.231	9.09
350.601	8.96
350.971	9.11
351.341	9.47
351.711	9.15
352.081	8.93
352.45	8.76
352.82	8.87
353.19	8.79
353.56	8.65
353.929	8.82
354.299	9.03
354.669	8.47
355.038	9.19
355.408	9
355.777	8.89
356.147	9.13
356.516	9.11
356.885	9.2
357.254	8.96
357.624	9.42
357.993	9.27
358.362	8.85
358.731	9.04
359.1	9.26
359.469	9.52
359.838	9.46
360.207	9.09
360.576	8.52
360.945	9.07
361.314	9.69
361.682	9.06
362.051	9.42
362.42	9.7
362.788	9.54
363.157	9.83
363.525	9.59
363.894	9.33
364.262	9.37
364.631	9.33
364.999	9.71
365.367	9.51
365.735	10.45
366.104	9.64
366.472	9.71
366.84	9.61
367.208	9.47
367.576	9.75
367.944	9.64
368.312	9.94
368.68	9.33
369.048	9.69
369.416	9.94
369.783	9.8
370.151	10.21
370.519	9.93
370.886	10.19
371.254	9.57
371.621	9.91
371.989	9.99
372.356	9.87
372.724	10.29
373.091	9.9
373.458	10.02
373.826	10.08
374.193	9.76
374.56	10.04
374.927	9.97
375.294	9.91
375.661	10.11
376.028	10.35
376.395	10.12
376.762	10.38
377.129	10.56
377.496	10.17
377.863	10.35
378.229	9.83
378.596	10.66
378.963	10.27
379.329	10.22
379.696	10.57
380.062	10.95
380.429	10.4
380.795	10.6
381.161	10.73
381.528	10.83
381.894	10.43
382.26	10.48
382.626	10.61
382.993	10.73
383.359	11.05
383.725	10.56
384.091	10.65
384.457	10.71
384.823	10.81
385.188	10.78
385.554	10.96
385.92	11.03
386.286	10.89
386.651	10.7
387.017	11.33
387.383	10.74
387.748	10.76
388.114	10.98
388.479	10.78
388.845	11.1
389.21	11.37
389.575	10.89
389.94	11.05
390.306	11.21
390.671	11.3
391.036	10.98
391.401	11.16
391.766	10.89
392.131	10.98
392.496	11.51
392.861	11.36
393.226	11.29
393.591	11.68
393.956	11.27
394.32	11.31
394.685	11.18
395.05	11.17
395.414	11.28
395.779	11.19
396.143	11.34
396.508	11.41
396.872	11.39
397.236	11.6
397.601	11.26
397.965	11.41
398.329	11.59
398.694	11.63
399.058	11.68
399.422	11.33
399.786	11.97
400.15	11.66
400.514	11.77
400.878	11.83
401.242	11.82
401.605	11.79
401.969	11.76
402.333	11.82
402.697	11.85
403.06	11.74
403.424	11.57
403.787	11.9
404.151	12.09
404.514	11.86
404.878	11.63
405.241	11.93
405.604	11.98
405.968	12.02
406.331	11.92
406.694	12.02
407.057	11.97
407.42	12.01
407.783	11.78
408.146	11.8
408.509	12
408.872	11.92
409.235	12.1
409.598	12.37
409.961	12.23
410.323	12.37
410.686	12.09
411.049	11.98
411.411	12.1
411.774	12.33
412.136	12.54
412.499	12.14
412.861	12.21
413.223	12.13
413.586	12.16
413.948	12.13
414.31	12.19
414.672	12.06
415.035	12.25
415.397	12.64
415.759	12.2
416.121	12.54
416.483	12.33
416.845	12.53
417.206	12.2
417.568	12.66
417.93	12.24
418.292	12.57
418.653	12.57
419.015	12.38
419.377	12.48
419.738	12.68
420.1	12.48
420.461	12.59
420.822	12.51
421.184	12.5
421.545	12.57
421.906	12.64
422.267	12.42
422.629	12.48
422.99	12.62
423.351	12.35
423.712	12.44
424.073	12.55
424.434	12.55
424.795	12.72
425.155	12.64
425.516	12.55
425.877	12.59
426.238	12.61
426.598	12.58
426.959	12.7
427.32	12.59
427.68	12.59
428.041	12.78
428.401	12.77
428.761	12.87
429.122	12.8
429.482	12.99
429.842	12.96
430.202	12.96
430.563	12.97
430.923	12.99
431.283	13.11
431.643	13.16
432.003	13.16
432.363	13.35
432.722	13.21
433.082	13.39
433.442	13.31
433.802	13.05
434.161	13.34
434.521	13.47
434.881	13.28
435.24	13.1
435.6	13.26
435.959	13.07
436.319	13.08
436.678	13.14
437.037	13.3
437.396	13.33
437.756	13.58
438.115	13.25
438.474	13.61
438.833	13.34
439.192	13.53
439.551	13.67
439.91	13.47
440.269	13.53
440.628	13.4
440.987	13.48
441.345	13.42
441.704	13.66
442.063	13.38
442.421	13.41
442.78	13.56
443.138	13.42
443.497	13.44
443.855	13.49
444.214	13.52
444.572	13.7
444.93	13.73
445.288	13.73
445.647	13.78
446.005	13.87
446.363	13.98
446.721	13.67
447.079	13.62
447.437	13.85
447.795	13.75
448.153	13.58
448.51	13.69
448.868	13.71
449.226	13.66
449.584	13.75
449.941	13.78
450.299	13.9
450.656	13.91
451.014	13.84
451.371	13.89
451.729	13.87
452.086	14.22
452.443	14.01
452.801	14.27
453.158	14.14
453.515	14.08
453.872	14.12
454.229	13.96
454.586	13.97
454.943	14.2
455.3	14.16
455.657	14.32
456.014	14.29
456.371	14.38
456.727	14.19
457.084	14.48
457.441	14.16
457.797	14.42
458.154	14.54
458.51	14.39
458.867	14.33
459.223	14.51
459.58	14.36
459.936	14.52
460.292	14.48
460.648	14.36
461.005	14.51
461.361	14.39
461.717	14.39
462.073	14.18
462.429	14.4
462.785	14.39
463.141	14.34
463.496	14.41
463.852	14.71
464.208	14.9
464.564	14.74
464.919	14.68
465.275	14.7
465.631	14.98
465.986	14.71
466.342	14.86
466.697	14.64
467.052	14.74
467.408	14.78
467.763	14.78
468.118	14.82
468.473	14.89
468.829	15.06
469.184	14.78
469.539	14.76
469.894	14.68
470.249	15.07
470.603	15.02
470.958	15.14
471.313	15.17
471.668	15.17
472.023	15.04
472.377	15.05
472.732	15.19
473.086	14.94
473.441	15.01
473.795	15.35
474.15	15.43
474.504	15.25
474.859	15.42
475.213	14.97
475.567	15.31
475.921	15.21
476.275	15.24
476.63	15.35
476.984	15.27
477.338	15.27
477.692	15.18
478.045	15.12
478.399	15.43
478.753	15.51
479.107	15.34
479.461	15.41
479.814	15.41
480.168	15.41
480.521	15.37
480.875	15.53
481.228	15.45
481.582	15.3
481.935	15.55
482.289	15.57
482.642	15.6
482.995	15.43
483.348	15.36
483.701	15.42
484.055	15.57
484.408	15.48
484.761	15.37
485.114	15.23
485.466	15.08
485.819	14.97
486.172	14.84
486.525	14.81
486.878	14.89
487.23	14.99
487.583	15.19
487.936	15.39
488.288	15.35
488.641	15.53
488.993	15.27
489.345	15.15
489.698	15.23
490.05	15.17
490.402	15.34
490.754	15.27
491.107	15.51
491.459	15.47
491.811	15.66
492.163	15.78
492.515	15.74
492.866	15.78
493.218	15.77
493.57	15.58
493.922	15.42
494.274	15.55
494.625	15.64
494.977	15.72
495.328	15.9
495.68	15.9
496.031	16.05
496.383	16.17
496.734	16.16
497.086	16.23
497.437	16.27
497.788	16.17
498.139	16.1
498.49	16.39
498.842	15.99
499.193	16.28
499.544	16.28
499.894	16.17
500.245	16.27
500.596	16.28
500.947	16.32
501.298	16.39
501.648	16.56
501.999	16.42
502.35	16.27
502.7	16.49
503.051	16.53
503.401	16.65
503.752	16.63
504.102	16.43
504.452	16.78
504.803	16.44
505.153	16.59
505.503	16.75
505.853	16.78
506.203	16.58
506.553	16.63
506.903	16.52
507.253	16.67
507.603	16.7
507.953	16.87
508.303	16.83
508.652	16.69
509.002	16.93
509.352	16.85
509.701	16.74
510.051	16.72
510.4	16.86
510.75	16.82
511.099	16.89
511.449	16.86
511.798	16.59
512.147	16.94
512.496	16.81
512.846	17.03
513.195	17.07
513.544	17
513.893	17.04
514.242	16.97
514.591	17.06
514.939	16.94
515.288	16.89
515.637	16.99
515.986	16.94
516.334	17.05
516.683	17.1
517.032	17.25
517.38	17.28
517.729	17.31
518.077	17.2
518.426	17.34
518.774	17.41
519.122	17.24
519.47	17.15
519.819	17.2
520.167	17.11
520.515	17.17
520.863	17.05
521.211	17.16
521.559	17.26
521.907	17.14
522.255	17.34
522.602	17.38
522.95	17.39
523.298	17.42
523.645	17.41
523.993	17.39
524.341	17.67
524.688	17.58
525.036	17.56
525.383	17.68
525.73	17.64
526.078	17.56
526.425	17.44
526.772	17.5
527.119	17.57
527.466	17.53
527.814	17.42
528.161	17.42
528.508	17.46
528.854	17.55
529.201	17.41
529.548	17.37
529.895	17.37
530.242	17.11
530.588	17.01
530.935	17.04
531.282	17.07
531.628	16.97
531.975	17.25
532.321	17.35
532.667	17.44
533.014	17.53
533.36	17.62
533.706	17.8
534.052	17.82
534.399	17.73
534.745	17.59
535.091	17.46
535.437	17.61
535.783	17.58
536.129	17.57
536.474	17.56
536.82	17.83
537.166	17.9
537.512	17.94
537.857	17.97
538.203	18.16
538.549	17.87
538.894	17.84
539.239	17.97
539.585	17.9
539.93	17.99
540.276	18.28
540.621	18.23
540.966	18.27
541.311	18.19
541.656	18.22
542.001	18.26
542.346	18.34
542.691	18.21
543.036	18.05
543.381	17.79
543.726	17.71
544.071	17.85
544.415	17.91
544.76	17.96
545.105	18.07
545.449	18.06
545.794	18.22
546.138	18.27
546.483	18.31
546.827	18.51
547.171	18.51
547.516	18.48
547.86	18.58
548.204	18.55
548.548	18.52
548.892	18.65
549.236	18.47
549.58	18.39
549.924	18.58
550.268	18.84
550.612	18.74
550.956	18.84
551.3	18.85
551.643	18.96
551.987	18.95
552.33	19.06
552.674	19.12
553.017	18.98
553.361	19.04
553.704	19.18
554.048	19.15
554.391	19.14
554.734	19.04
555.077	19.1
555.42	19.2
555.764	18.91
556.107	19.06
556.45	18.73
556.793	19.08
557.135	19.26
557.478	19.38
557.821	19.28
558.164	19.24
558.507	19.49
558.849	19.21
559.192	19.62
559.534	19.32
559.877	19.63
560.219	19.38
560.562	19.39
560.904	19.55
561.246	19.58
561.589	19.41
561.931	19.61
562.273	19.64
562.615	19.28
562.957	19.77
563.299	19.37
563.641	19.51
563.983	19.55
564.325	19.7
564.667	19.44
565.008	19.65
565.35	19.58
565.692	19.58
566.033	19.4
566.375	19.63
566.716	20.11
567.058	19.81
567.399	19.62
567.741	19.48
568.082	19.6
568.423	19.52
568.764	19.56
569.105	19.65
569.447	19.77
569.788	19.9
570.129	19.87
570.47	19.77
570.811	19.94
571.151	19.93
571.492	19.97
571.833	20.13
572.174	19.9
572.514	20.13
572.855	19.95
573.195	19.98
573.536	19.97
573.876	19.85
574.217	19.86
574.557	20.15
574.898	20.02
575.238	20.21
575.578	20.04
575.918	20.22
576.258	20.27
576.598	20.13
576.938	20.08
577.278	20.14
577.618	20.19
577.958	20.31
578.298	20.3
578.638	20.37
578.977	20.35
579.317	20.21
579.657	20.29
579.996	20.37
580.336	20.46
580.675	20.35
581.014	20.39
581.354	20.46
581.693	20.62
582.032	20.33
582.372	20.39
582.711	20.4
583.05	20.45
583.389	20.74
583.728	20.43
584.067	20.84
584.406	20.71
584.745	20.86
585.083	20.59
585.422	20.73
585.761	20.86
586.1	20.85
586.438	20.67
586.777	20.91
587.115	20.92
587.454	20.74
587.792	20.77
588.13	21.12
588.469	20.77
588.807	21.12
589.145	20.72
589.483	20.77
589.821	21.06
590.159	21.17
590.497	21.13
590.835	21.59
591.173	20.74
591.511	21
591.849	20.73
592.187	21.2
592.524	20.99
592.862	21.19
593.2	21.24
593.537	21
593.875	21.13
594.212	21.19
594.55	21.29
594.887	21.25
595.224	21.06
595.561	21.37
595.899	21.49
596.236	21.17
596.573	21.2
596.91	21.11
597.247	21
597.584	21.39
597.921	21.06
598.258	21.21
598.594	21.28
598.931	21.19
599.268	21.14
599.604	21.08
599.941	21.43
600.277	21.38
600.614	21.27
600.95	21.14
601.287	21.54
601.623	21.55
601.959	21.47
602.296	21.61
602.632	21.88
602.968	21.77
603.304	21.51
603.64	21.63
603.976	21.8
604.312	21.76
604.648	21.6
604.984	21.46
605.319	21.51
605.655	21.47
605.991	21.61
606.326	21.58
606.662	21.47
606.998	21.47
607.333	21.53
607.668	21.59
608.004	21.87
608.339	21.75
608.674	21.89
609.01	21.81
609.345	21.65
609.68	22.09
610.015	21.48
610.35	21.91
610.685	21.89
611.02	21.82
611.355	21.71
611.689	21.73
612.024	21.86
612.359	21.88
612.694	22.06
613.028	22.06
613.363	22.23
613.697	21.82
614.032	21.91
614.366	21.93
614.7	22.28
615.035	22.23
615.369	22.08
615.703	22.36
616.037	22.19
616.371	22.12
616.705	22.23
617.039	22.51
617.373	22.17
617.707	21.86
618.041	21.95
618.375	22.37
618.709	22.76
619.042	22.16
619.376	22.7
619.71	22.83
620.043	22.84
620.377	22.45
620.71	22.59
621.043	22.23
621.377	22.46
621.71	22.77
622.043	22.24
622.376	22.73
622.709	22.33
623.043	22.87
623.376	22.36
623.709	22.39
624.041	22.95
624.374	22.59
624.707	22.64
625.04	22.97
625.373	22.27
625.705	22.86
626.038	22.86
626.37	22.91
626.703	22.29
627.035	22.95
627.368	23.41
627.7	22.88
628.032	22.47
628.365	22.84
628.697	22.85
629.029	22.64
629.361	22.67
629.693	22.82
630.025	22.69
630.357	23.04
630.689	23.04
631.021	22.74
631.353	22.74
631.684	23.32
632.016	22.76
632.348	23.37
632.679	23.4
633.011	23.32
633.342	23.21
633.674	23.13
634.005	23.67
634.336	23.7
634.668	23.7
634.999	23.42
635.33	22.73
635.661	23.38
635.992	23.31
636.323	23.51
636.654	23.56
636.985	22.92
637.316	23.09
637.647	23.29
637.977	23.27
638.308	23.16
638.639	23.03
638.969	23.24
639.3	23.62
639.63	22.93
639.961	23.15
640.291	23.1
640.622	23.29
640.952	23.7
641.282	23.62
641.612	23.73
641.943	23.48
642.273	23.6
642.603	23.26
642.933	23.95
643.263	23.7
643.592	23.22
643.922	23.38
644.252	23.61
644.582	23.62
644.911	23.37
645.241	23.42
645.571	23.95
645.9	23.34
646.23	23.98
646.559	24.3
646.888	23.46
647.218	23.49
647.547	23.66
647.876	23.89
648.205	23.22
648.534	23.82
648.863	23.69
649.192	24.36
649.521	23.69
649.85	23.5
650.179	23.83
650.508	23.98
650.837	23.53
651.165	23.69
651.494	23.36
651.822	23.46
652.151	24.2
652.479	24.21
652.808	24.06
653.136	24.12
653.465	23.38
653.793	24.18
654.121	24.04
654.449	24.1
654.777	23.84
655.105	24.43
655.433	24.08
655.761	23.88
656.089	24.34
656.417	24.56
656.745	24.37
657.073	23.6
657.4	24.95
657.728	24.1
658.056	24.29
658.383	24.44
658.711	24.42
659.038	24.63
659.365	24.87
659.693	24.23
660.02	24.66
660.347	24.49
660.674	24.47
661.001	24.46
661.329	24.06
661.656	24.57
661.982	24.92
662.309	24.36
662.636	24.52
662.963	24.84
663.29	24.63
663.616	24.78
663.943	24.11
664.27	24.66
664.596	24.8
664.923	24.23
665.249	24.2
665.576	25.24
665.902	24.38
666.228	25.1
666.554	24.79
666.881	24.42
667.207	24.79
667.533	24.58
667.859	24.59
668.185	25.16
668.511	24.17
668.837	24.46
669.162	24.77
669.488	24.22
669.814	25.2
670.139	24.9
670.465	25.54
670.791	24.69
671.116	25.45
671.442	24.82
671.767	24.75
672.092	24.93
672.418	25.42
672.743	25.43
673.068	25.04
673.393	25.05
673.718	25.13
674.043	24.55
674.368	25.37
674.693	25.42
675.018	24.87
675.343	25.66
675.667	25.03
675.992	25.35
676.317	25.75
676.641	25.98
676.966	25.77
677.29	24.84
677.615	25.19
677.939	25.65
678.264	25.88
678.588	25.48
678.912	25.67
679.236	26.04
679.56	25.24
679.885	25.57
680.209	25.43
680.532	24.99
680.856	26.04
681.18	25.48
681.504	25.69
681.828	25.65
682.152	25.19
682.475	25.79
682.799	25.69
683.122	25.76
683.446	25.08
683.769	26.32
684.093	25.69
684.416	25.94
684.739	25.49
685.062	25.24
685.386	26.11
685.709	25.41
686.032	25.52
686.355	25.83
686.678	25.38
687.001	26.36
687.324	26.42
687.646	25.57
687.969	25.92
688.292	25.66
688.614	25.98
688.937	26.49
689.26	26.32
689.582	26.33
689.904	26.33
690.227	25.84
690.549	26.51
690.871	26.02
691.194	26.05
691.516	25.71
691.838	26.43
692.16	25.83
692.482	26.34
692.804	25.91
693.126	26.11
693.448	25.88
693.769	26.65
694.091	26.08
694.413	26.25
694.735	26.05
695.056	27.5
695.378	25.86
695.699	25.13
696.021	25.04
696.342	25.97
696.663	25.58
696.984	26.88
697.306	25.57
697.627	26.85
697.948	26.57
698.269	26.17
698.59	26.98
698.911	25.62
699.232	25.62
699.553	26.32
699.873	27.31
700.194	27.15
700.515	26.66
700.835	26.46
701.156	26.11
701.477	26.6
701.797	26.69
702.117	26.31
702.438	26.71
702.758	27.12
703.078	25.62
703.398	26
703.719	26.45
704.039	25.83
704.359	27.08
704.679	26.15
704.999	26.1
705.319	25.68
705.638	26.72
705.958	27.05
706.278	26.31
706.597	26.55
706.917	26.25
707.237	26.95
707.556	27.02
707.876	26.34
708.195	27.16
708.514	26.37
708.834	26.31
709.153	27.82
709.472	27.46
709.791	27.11
710.11	26.52
710.429	27.26
710.748	27.61
711.067	27.14
711.386	27.06
711.705	27.42
712.023	27.21
712.342	26.5
712.661	27.53
712.979	25.86
713.298	26.78
713.616	27.44
713.935	27.9
714.253	26.45
714.572	28.32
714.89	27.28
715.208	28.4
715.526	26.8
715.844	26.89
716.162	27.53
716.48	28.82
716.798	27.09
717.116	28.18
717.434	27.38
717.752	26.53
718.069	27.27
718.387	26.48
718.705	27.44
719.022	27.17
719.34	26.85
719.657	26.61
719.975	28.91
720.292	27.48
720.609	26.41
720.927	26.98
721.244	28.03
721.561	27.69
721.878	27.91
722.195	26.51
722.512	26.92
722.829	28.04
723.146	27.95
723.463	28.6
723.779	27.06
724.096	28.65
724.413	27.79
724.729	27.33
725.046	25.89
725.362	28.8
725.679	27.13
725.995	26.85
726.311	26.9
726.628	27.79
726.944	28.72
727.26	28.68
727.576	27.16
727.892	28.4
728.208	28.35
728.524	27.9
728.84	27.95
729.156	27.29
729.472	27.2
729.787	27.14
730.103	28.47
730.419	27.21
730.734	28.39
731.05	25.66
731.365	28.2
731.681	28.53
731.996	28.88
732.311	28.73
732.626	28.8
732.942	26.9
733.257	27.94
733.572	27.73
733.887	26.87
734.202	28.97
734.517	28.59
734.832	27.63
735.146	27.14
735.461	28.51
735.776	27.85
736.091	28.76
736.405	28.32
736.72	27.51
737.034	28.85
737.349	30.71
737.663	28.13
737.977	28.71
738.292	27.05
738.606	27.92
738.92	29.09
739.234	27.78
739.548	28.18
739.862	27.26
740.176	27.01
740.49	28.65
740.804	29.39
741.117	29.17
741.431	29.26
741.745	29.41
742.058	29.76
742.372	27.12
742.685	30.77
742.999	29.34
743.312	27.14
743.626	27.89
743.939	27.06
744.252	29.94
744.565	27.33
744.878	29.99
745.191	25.97
745.505	29.72
745.817	29.2
746.13	26.92
746.443	28.55
746.756	29.99
747.069	27.58
747.381	27.18
747.694	26.47
748.007	30.35
748.319	28.07
748.632	29.67
748.944	27.98
749.256	29.61
749.569	27.77
749.881	29.11
750.193	30.34
750.505	27.9
750.817	29.29
751.129	28.53
751.441	27.36
751.753	29.5
752.065	29.53
752.377	28.7
752.689	29.76
753	28.11
753.312	27.25
753.624	26.88
753.935	31.24
754.247	28.66
754.558	29
754.869	29.05
755.181	28.95
755.492	31.96
755.803	29.55
756.114	29.95
756.425	26.78
756.736	28.72
757.047	29.05
757.358	28.59
757.669	27.95
757.98	30.2
758.291	29.48
758.601	28.16
758.912	28.34
759.223	31.33
759.533	27.75
759.844	28.59
760.154	27.41
760.464	28.93
760.775	28.83
761.085	28.65
761.395	29.35
761.705	29.31
762.016	27.96
762.326	27.88
762.636	30.01
762.945	28.32
763.255	29.64
763.565	27.29
763.875	30.53
764.185	30.05
764.494	29.72
764.804	31.49
765.113	28.84
765.423	30.24
765.732	30.13
766.042	29.32
766.351	30.41
766.66	30.39
766.97	30.53
767.279	30.27
767.588	31.44
767.897	31.55
768.206	28.15
768.515	29.53
768.824	30.01
769.133	29.74
769.441	28.51
769.75	27.76
770.059	30.36
770.367	27.03
770.676	27.59
770.984	29.18
771.293	27.71
771.601	29.97
771.91	28.51
772.218	30.36
772.526	31.81
772.834	28.88
773.142	26.13
773.45	28.29
773.758	29.51
774.066	29.53
774.374	27.99
774.682	31.96
774.99	31.15
775.298	30.75
775.605	28.65
775.913	28
776.22	30.27
776.528	31.71
776.835	30.52
777.143	29.19
777.45	29.23
777.757	28.94
778.065	29.27
778.372	30.28
778.679	30.02
778.986	26.09
779.293	29.06
779.6	27.84
779.907	30.04
780.214	33.17
780.52	32.77
780.827	28.82
781.134	28.79
781.44	24.8
781.747	27.62
782.053	31.29
782.36	31.74
782.666	29.42
782.973	30.99
783.279	32.58
783.585	29.66
783.891	31.7
784.197	29.31
784.503	31.64
784.809	29.44
785.115	31.44
785.421	29.46
785.727	25.71
786.033	30.67
786.339	27.95
786.644	34.04
786.95	29.65
787.255	33.36
787.561	29.72
787.866	30.74
788.172	26.7
788.477	27.37
788.782	30.39
789.088	27.5
789.393	32.29
789.698	25.19
790.003	27.52
790.308	23.32
790.613	29.24
790.918	32.75
791.223	28.85
791.527	29.9
791.832	33.18
792.137	29.05
792.441	36.16
792.746	31.45
793.05	27.9
793.355	31.8
793.659	34.34
793.963	31
794.268	28.47
794.572	27.08
794.876	31.49
795.18	31.67
795.484	29.43
795.788	29.17
796.092	29.87
796.396	25.18
796.7	27.95
797.004	28.98
797.307	25.71
797.611	29.86
797.915	26.38
798.218	33.73
798.522	32.27
798.825	31.02
799.128	32.92
799.432	26.75
799.735	32
800.038	35.06
800.341	32.12
800.644	32.65
800.947	31.81
801.25	25.94
801.553	21.59
801.856	26.91
802.159	29.09
802.462	26.04
802.764	29.4
803.067	33.11
803.37	32.68
803.672	20.67
803.975	30.37
804.277	29.89
804.579	30.69
804.882	28.33
805.184	26.88
805.486	29.83
805.788	32.81
806.09	33.39
806.392	29.02
806.694	34.29
806.996	26.54
807.298	31.12
807.6	30.61
807.902	33.03
808.203	30.16
808.505	34.18
808.807	30.53
809.108	31.01
809.409	34.26
809.711	28.42
810.012	31.12
810.313	36.34
810.615	28.52
810.916	23.11
811.217	28.17
811.518	33.26
811.819	28.93
812.12	30.56
812.421	30.37
812.722	30.57
813.023	29.09
813.323	27.43
813.624	22.06
813.925	39.05
814.225	30.32
814.526	32.51
814.826	32.04
815.126	26.9
815.427	26.95
815.727	29.6
816.027	30.57
816.327	28.33
816.627	26.34
816.927	36.59
817.227	33.94
817.527	30.93
817.827	36.31
818.127	28.69
818.427	31.5
818.727	33.12
819.026	31.9
819.326	34.68
819.625	35.4
819.925	26.5
820.224	30.05
820.524	29.67
820.823	35.3
821.122	28.66
821.421	29.33
821.72	30.2
822.019	30.1
822.318	25.35
822.617	28.93
822.916	31.87
823.215	31.48
823.514	33.95
823.813	29.35
824.111	32.76
824.41	32.35
824.709	33.18
825.007	33.29
825.306	33.25
825.604	33.76
825.902	33.02
826.201	33.63
826.499	32.91
826.797	33.44
827.095	33.1
827.393	33.32
827.691	34.22
827.989	34.83
828.287	34.41
828.585	33.64
828.882	33.72
829.18	33.69
829.478	34.12
829.775	33.3
830.073	34.09
830.37	34.02
830.668	32.53
830.965	35.72
831.263	33.43
831.56	34.34
831.857	28.11
832.154	34.89
832.451	33.46
832.748	36.1
833.045	33.39
833.342	34.08
833.639	29.05
833.936	32.96
834.232	27.1
834.529	28.01
834.826	27.25
835.122	33.14
835.419	28.46
835.715	32.17
836.012	34.36
836.308	27.58
836.604	29.13
836.901	31.8
837.197	33.12
837.493	34.79
837.789	30.8
838.085	34.42
838.381	31.1
838.677	32.58
838.972	34.79
839.268	34.77
839.564	30.77
839.86	29.4
840.155	22.49
840.451	30.2
840.746	29.82
841.042	34.32
841.337	24.67
841.632	35.37
841.928	37.5
842.223	40.36
842.518	27.94
842.813	33.7
843.108	30.15
843.403	39.64
843.698	28.48
843.993	36.13
844.287	26.01
844.582	16.53
844.877	26.7
845.171	44.28
845.466	23.09
845.761	31.72
846.055	37.27
846.349	26.81
846.644	22.52
846.938	9.74
847.232	29.57
847.526	35.64
847.82	33.99
848.114	11.46
848.408	19.42
848.702	38.69
848.996	-3.04
849.29	33.35
849.584	22.37
849.877	17.21
850.171	20.04
850.465	24.23
850.758	26.81
851.052	43.14
851.345	30.93
851.638	55.53
851.932	-30.56
852.225	21.9
852.518	26.06
852.811	34.24
853.104	-18.61
853.397	20.22
853.69	26.52
853.983	16.98
854.276	31.2
854.569	11.64
854.861	6.59
855.154	20.82
855.447	36.7
855.739	37.47
856.032	8.41
856.324	16.15
856.616	32.35
856.909	27.46
857.201	23.8
857.493	1.54
857.785	3.44
858.077	13.24
858.369	22.41
858.661	3.92
858.953	16.75
859.245	27.18
859.537	7.28
859.829	25.58
860.12	20.16
860.412	6.76
860.703	31.12
860.995	11.26
861.286	6.11
861.578	22.3
861.869	67.78
862.16	34.57
862.452	13.58
862.743	24.4
863.034	24.52
863.325	19.05
863.616	14.21
863.907	19.58
864.198	8.32
864.488	22.54
864.779	29.55
865.07	-7.63
865.36	-10.93
865.651	30.57
865.941	41.17
866.232	15.4
866.522	11.92
866.813	44.47
867.103	48.19
867.393	25.49
867.683	46.12
867.973	-16.28
868.263	12.41
868.553	32.33
868.843	32.7
869.133	-8.49
869.423	39.81
869.713	40.1
870.002	16.58
870.292	18.81
870.582	35.95
870.871	-15.33
871.161	44.95
871.45	-7.16
871.739	-19.73
872.029	-46.89
872.318	31.9
872.607	55.55
872.896	-16.05
873.185	0.37
873.474	7.44
873.763	18.14
874.052	28.29
874.341	50.75
874.63	54.24
874.918	24.26
875.207	8.52
875.496	2.14
875.784	4.2
876.073	-36.77
876.361	-0.73
876.649	-5.79
876.938	7.23
877.226	31.86
877.514	31.75
877.802	24.95
878.09	9.09
878.378	35.41
878.666	2.37
878.954	15.86
879.242	35.1
879.53	33.08
879.817	32.27
880.105	21.86
880.392	29.67
880.68	-18.78
880.967	-13.27
881.255	39.72
881.542	9.56
881.83	-23.67
882.117	15
882.404	19.19
882.691	26.87
882.978	28.59
883.265	5.63
883.552	46.55
883.839	41.71
884.126	21.97
884.413	30.68
884.699	39.01
884.986	40.31
885.273	30.9
885.559	30.9
885.846	30.9
