Data from 22-4_forehead_Reflection__0__206.txt Node

Date: Thu Dec 15 18:06:58 CST 2022
User: ToomeyLab
Spectrometer: FLMS14357
Trigger mode: 0
Integration Time (sec): 1.000000E-2
Scans to average: 100
Electric dark correction enabled: true
Nonlinearity correction enabled: false
Boxcar width: 0
XAxis mode: Wavelengths
Number of Pixels in Spectrum: 2048
>>>>>Begin Spectral Data<<<<<
189.047	-100.55
189.435	-100.55
189.823	-100.55
190.211	20.36
190.599	1238.04
190.987	100.16
191.375	-80.08
191.763	69.37
192.151	472.67
192.538	346.98
192.926	135.21
193.314	-7.13
193.702	-1537.4
194.089	237.03
194.477	153.79
194.864	271.5
195.252	8.61
195.639	24.31
196.027	131.96
196.414	-790.37
196.801	-115.43
197.189	50.31
197.576	-75.83
197.963	-610.62
198.351	31.68
198.738	-27.17
199.125	-20.5
199.512	22.03
199.899	-47.91
200.286	-10.42
200.673	34.75
201.06	6.11
201.447	16.29
201.833	14.57
202.22	27.05
202.607	-28.12
202.994	18.27
203.38	21.66
203.767	2.79
204.154	49.91
204.54	19.14
204.927	5.45
205.313	35.83
205.699	5.69
206.086	23.79
206.472	37.74
206.858	-9.23
207.245	-12.28
207.631	2.61
208.017	44.35
208.403	-19.73
208.789	64.22
209.175	-12.47
209.561	-83.21
209.947	4.15
210.333	9.45
210.719	-3.46
211.105	34.88
211.491	-21.83
211.876	14.61
212.262	22.87
212.648	24.72
213.034	-22.69
213.419	4.48
213.805	-25.06
214.19	-6.54
214.576	-13.94
214.961	36.6
215.346	-21.58
215.732	22.35
216.117	-13.9
216.502	46.74
216.888	10.35
217.273	10.51
217.658	-10.99
218.043	-24
218.428	-2.27
218.813	25.03
219.198	-47.78
219.583	-33.74
219.968	-5.66
220.353	-12.4
220.738	4.27
221.122	6.22
221.507	-3.52
221.892	-34.74
222.276	-17.7
222.661	-12.32
223.046	-3.55
223.43	6.36
223.815	3.25
224.199	-0.59
224.583	7.09
224.968	-7.91
225.352	-7.35
225.736	7.28
226.121	1.68
226.505	-0.63
226.889	-0.34
227.273	-0.4
227.657	4.24
228.041	4.08
228.425	-3.04
228.809	-0.67
229.193	1.43
229.577	1.69
229.961	4.04
230.344	3.54
230.728	3.36
231.112	3.75
231.495	3.04
231.879	1.97
232.263	3.52
232.646	2.4
233.03	6.17
233.413	2.54
233.797	0.96
234.18	2.81
234.563	4.05
234.946	0.9
235.33	3.52
235.713	3.26
236.096	4.42
236.479	4.16
236.862	4.28
237.245	2.7
237.628	2.89
238.011	2.11
238.394	4.96
238.777	2.61
239.16	4.35
239.543	3.25
239.925	2.22
240.308	1.89
240.691	3.77
241.073	2.92
241.456	3.91
241.838	3.34
242.221	3.96
242.603	4.04
242.986	3.13
243.368	3.29
243.75	3.81
244.133	3.73
244.515	3.37
244.897	3.73
245.279	3.38
245.661	3.57
246.043	3.7
246.425	4.53
246.807	3.73
247.189	3.36
247.571	3.29
247.953	3.53
248.335	3.76
248.717	3.66
249.098	3.25
249.48	3.07
249.862	3.83
250.243	3.38
250.625	3.67
251.006	3.81
251.388	3.39
251.769	3.21
252.151	3.67
252.532	3.31
252.913	3.22
253.295	3.88
253.676	3.82
254.057	3.6
254.438	3.01
254.819	3.65
255.2	4.45
255.581	4.44
255.962	3.88
256.343	4.41
256.724	3.01
257.105	3.88
257.486	2.67
257.867	2.72
258.247	4.57
258.628	3.81
259.009	3.45
259.389	2.75
259.77	2.83
260.15	4.45
260.531	3.74
260.911	3.5
261.292	3.66
261.672	3.65
262.052	3.79
262.432	3.35
262.813	3.72
263.193	3.52
263.573	3.29
263.953	3.12
264.333	3.73
264.713	4.1
265.093	3.14
265.473	2.38
265.853	3.49
266.233	3.46
266.612	3.11
266.992	3.39
267.372	3.75
267.752	3.98
268.131	4.01
268.511	3.36
268.89	3.9
269.27	2.81
269.649	3.01
270.029	3.51
270.408	2.82
270.787	3.49
271.167	3.89
271.546	4.38
271.925	3.78
272.304	3.28
272.683	3.09
273.062	3.46
273.441	3.14
273.82	3.67
274.199	3.38
274.578	3.5
274.957	3.45
275.336	3.97
275.715	3.37
276.093	3.35
276.472	2.56
276.851	3.72
277.229	3.17
277.608	3.16
277.986	3.56
278.365	3.88
278.743	3.21
279.122	3.63
279.5	3.18
279.878	3.07
280.257	3.84
280.635	3.68
281.013	2.55
281.391	3.62
281.769	4
282.147	3.46
282.525	3.18
282.903	3.47
283.281	3.61
283.659	3.61
284.037	3.4
284.415	3.65
284.792	3.64
285.17	3.3
285.548	3.15
285.925	3.24
286.303	4.1
286.68	3.16
287.058	3.57
287.435	3.43
287.813	3.58
288.19	3.49
288.567	3.38
288.945	3.41
289.322	3.48
289.699	4
290.076	3.47
290.453	3.07
290.83	3.66
291.207	3.61
291.584	4.06
291.961	3.64
292.338	3.95
292.715	3.73
293.092	4.22
293.469	3.28
293.845	3.84
294.222	4.33
294.599	3.41
294.975	3.46
295.352	3.65
295.728	3.89
296.105	3.93
296.481	3.86
296.858	4.1
297.234	3.66
297.61	4.1
297.986	4.43
298.363	4.01
298.739	4.27
299.115	4.07
299.491	3.97
299.867	3.64
300.243	4.4
300.619	3.91
300.995	4.31
301.371	4.42
301.746	4.21
302.122	3.44
302.498	4.14
302.874	4.32
303.249	4.74
303.625	3.77
304	4.33
304.376	4.42
304.751	4.39
305.127	4.31
305.502	4.98
305.878	4.53
306.253	4.17
306.628	4.39
307.003	4.37
307.378	4.65
307.754	4.56
308.129	4.35
308.504	5.11
308.879	4.73
309.254	4.92
309.629	4.89
310.003	4.4
310.378	5.1
310.753	4.97
311.128	4.48
311.502	4.77
311.877	4.92
312.252	4.99
312.626	5.14
313.001	4.91
313.375	5.23
313.75	5.01
314.124	5.15
314.498	5.34
314.873	4.74
315.247	5.46
315.621	4.98
315.995	5.4
316.369	5.21
316.743	5.05
317.117	4.93
317.491	5.27
317.865	5.23
318.239	5.67
318.613	4.59
318.987	4.73
319.361	5.63
319.734	5.5
320.108	5.04
320.482	5.96
320.855	5.29
321.229	5.61
321.602	5.69
321.976	4.99
322.349	6.16
322.723	5.33
323.096	5.3
323.469	5.11
323.843	5.26
324.216	5.5
324.589	5.95
324.962	4.84
325.335	5.46
325.708	5.58
326.081	5.22
326.454	5.74
326.827	5.44
327.2	6.1
327.573	5.9
327.945	5.54
328.318	5.56
328.691	5.63
329.063	5.53
329.436	5.51
329.809	5.91
330.181	6.45
330.553	6.2
330.926	6.5
331.298	5.37
331.671	5.7
332.043	5.79
332.415	6.05
332.787	5.88
333.159	5.96
333.532	6
333.904	6.24
334.276	5.99
334.648	6.23
335.02	5.74
335.391	5.6
335.763	6.26
336.135	6.03
336.507	5.99
336.879	6.15
337.25	6.32
337.622	6.2
337.993	6.25
338.365	6.17
338.736	6.44
339.108	5.98
339.479	6.64
339.851	6.6
340.222	6.77
340.593	6.12
340.964	6.43
341.336	6.09
341.707	6.24
342.078	6.31
342.449	6.33
342.82	6.56
343.191	6.34
343.562	6.57
343.933	6.33
344.303	6.45
344.674	6.18
345.045	6.43
345.416	6.91
345.786	6.68
346.157	7.03
346.527	6.42
346.898	5.98
347.268	6.43
347.639	6.2
348.009	6.45
348.38	6.8
348.75	6.91
349.12	6.91
349.49	6.74
349.861	6.59
350.231	6.66
350.601	6.35
350.971	7.03
351.341	6.86
351.711	6.7
352.081	6.51
352.45	6.69
352.82	6.45
353.19	6.75
353.56	6.98
353.929	7.15
354.299	7.12
354.669	7.3
355.038	6.92
355.408	6.81
355.777	6.8
356.147	6.94
356.516	6.85
356.885	6.81
357.254	6.8
357.624	6.96
357.993	7.32
358.362	7.32
358.731	7.34
359.1	7.26
359.469	7.28
359.838	7.35
360.207	7.15
360.576	7.54
360.945	7.08
361.314	7.14
361.682	7.03
362.051	7.01
362.42	7.19
362.788	7.45
363.157	7.12
363.525	7.24
363.894	7.03
364.262	7.11
364.631	7.59
364.999	7.68
365.367	7
365.735	7.28
366.104	7.52
366.472	7.48
366.84	7.46
367.208	7.91
367.576	7.4
367.944	7.39
368.312	7.57
368.68	7.9
369.048	7.9
369.416	7.31
369.783	7.77
370.151	7.89
370.519	7.74
370.886	8
371.254	7.65
371.621	8.03
371.989	8.08
372.356	7.67
372.724	7.46
373.091	7.38
373.458	7.42
373.826	7.87
374.193	7.82
374.56	7.75
374.927	7.93
375.294	8.13
375.661	7.89
376.028	7.57
376.395	8.05
376.762	7.9
377.129	7.91
377.496	8.08
377.863	8.1
378.229	8.24
378.596	7.99
378.963	8.07
379.329	8.24
379.696	7.94
380.062	8.2
380.429	7.68
380.795	8.55
381.161	7.84
381.528	7.93
381.894	8.28
382.26	8.1
382.626	8.12
382.993	8.47
383.359	8.43
383.725	8.03
384.091	8.4
384.457	8.2
384.823	8.57
385.188	8.49
385.554	8.39
385.92	8.16
386.286	8.55
386.651	8.44
387.017	8.61
387.383	8.32
387.748	8.71
388.114	8.61
388.479	8.58
388.845	8.54
389.21	8.92
389.575	8.95
389.94	9.06
390.306	9.15
390.671	8.79
391.036	8.81
391.401	8.65
391.766	8.75
392.131	8.97
392.496	8.93
392.861	8.8
393.226	8.79
393.591	8.81
393.956	8.85
394.32	9.12
394.685	9.18
395.05	8.94
395.414	8.79
395.779	9.06
396.143	8.81
396.508	8.87
396.872	8.91
397.236	9.22
397.601	9.41
397.965	9.39
398.329	9.21
398.694	9.09
399.058	9.35
399.422	9.15
399.786	9.23
400.15	9.03
400.514	9.5
400.878	9.32
401.242	9.33
401.605	9.21
401.969	9.23
402.333	9.31
402.697	9.45
403.06	9.12
403.424	9.39
403.787	9.35
404.151	9.44
404.514	9.56
404.878	9.42
405.241	9.54
405.604	9.56
405.968	9.51
406.331	9.68
406.694	9.75
407.057	9.4
407.42	9.58
407.783	9.63
408.146	9.59
408.509	9.77
408.872	9.84
409.235	9.78
409.598	9.77
409.961	9.88
410.323	9.82
410.686	9.8
411.049	9.89
411.411	9.89
411.774	10.01
412.136	9.82
412.499	10.03
412.861	9.71
413.223	10.04
413.586	10
413.948	10.1
414.31	10.17
414.672	9.99
415.035	10.2
415.397	10.02
415.759	9.78
416.121	10.06
416.483	10.21
416.845	10.17
417.206	10.2
417.568	10.21
417.93	10.31
418.292	10.13
418.653	9.99
419.015	10.25
419.377	10.17
419.738	10.29
420.1	10.16
420.461	10.08
420.822	10.18
421.184	10.22
421.545	10.21
421.906	10.32
422.267	10.12
422.629	10.15
422.99	10.19
423.351	10.22
423.712	10.2
424.073	10.33
424.434	10.53
424.795	10.34
425.155	10.42
425.516	10.27
425.877	10.35
426.238	10.43
426.598	10.5
426.959	10.48
427.32	10.59
427.68	10.69
428.041	10.78
428.401	10.7
428.761	11.06
429.122	10.94
429.482	10.83
429.842	10.99
430.202	11.09
430.563	11.17
430.923	11
431.283	11.1
431.643	11.18
432.003	11.07
432.363	11.34
432.722	11.06
433.082	11.17
433.442	11.27
433.802	11.06
434.161	11.11
434.521	11.11
434.881	11.11
435.24	11.18
435.6	11.23
435.959	11.44
436.319	11.28
436.678	11.62
437.037	11.39
437.396	11.55
437.756	11.59
438.115	11.55
438.474	11.65
438.833	11.52
439.192	11.49
439.551	11.42
439.91	11.61
440.269	11.61
440.628	11.77
440.987	11.54
441.345	11.58
441.704	11.59
442.063	11.61
442.421	11.52
442.78	11.63
443.138	11.72
443.497	11.67
443.855	11.79
444.214	11.71
444.572	11.84
444.93	12.01
445.288	12.16
445.647	11.85
446.005	11.93
446.363	11.8
446.721	11.95
447.079	11.91
447.437	11.9
447.795	11.9
448.153	11.8
448.51	11.94
448.868	11.99
449.226	11.99
449.584	11.99
449.941	12.28
450.299	12.13
450.656	12.26
451.014	12.35
451.371	12.47
451.729	12.44
452.086	12.36
452.443	12.57
452.801	12.57
453.158	12.74
453.515	12.57
453.872	12.54
454.229	12.41
454.586	12.65
454.943	12.66
455.3	12.71
455.657	12.78
456.014	12.76
456.371	12.88
456.727	12.89
457.084	12.98
457.441	12.92
457.797	12.9
458.154	13
458.51	12.77
458.867	12.84
459.223	13.02
459.58	13.09
459.936	12.9
460.292	12.89
460.648	12.9
461.005	12.79
461.361	12.76
461.717	12.87
462.073	13.02
462.429	13.16
462.785	13.35
463.141	13.26
463.496	13.31
463.852	13.42
464.208	13.41
464.564	13.48
464.919	13.51
465.275	13.66
465.631	13.7
465.986	13.51
466.342	13.47
466.697	13.46
467.052	13.75
467.408	13.78
467.763	13.61
468.118	13.64
468.473	13.66
468.829	13.74
469.184	13.9
469.539	13.83
469.894	14.02
470.249	13.92
470.603	14.06
470.958	13.97
471.313	13.91
471.668	14.03
472.023	14.04
472.377	14.11
472.732	14.1
473.086	14.03
473.441	14.12
473.795	14.28
474.15	14.1
474.504	14.19
474.859	14.06
475.213	14.33
475.567	14.15
475.921	14.27
476.275	14.44
476.63	14.52
476.984	14.46
477.338	14.62
477.692	14.39
478.045	14.46
478.399	14.51
478.753	14.57
479.107	14.5
479.461	14.56
479.814	14.6
480.168	14.56
480.521	14.7
480.875	14.71
481.228	14.81
481.582	14.79
481.935	14.87
482.289	14.72
482.642	15.01
482.995	14.79
483.348	14.74
483.701	14.79
484.055	14.69
484.408	14.6
484.761	14.35
485.114	14.22
485.466	14.06
485.819	14.19
486.172	14.3
486.525	14.52
486.878	14.71
487.23	14.79
487.583	14.83
487.936	14.79
488.288	14.69
488.641	14.61
488.993	14.56
489.345	14.58
489.698	14.66
490.05	14.75
490.402	14.91
490.754	15
491.107	15.2
491.459	15.41
491.811	15.29
492.163	15.32
492.515	15.11
492.866	15.13
493.218	14.98
493.57	15.05
493.922	15.2
494.274	15.48
494.625	15.63
494.977	15.84
495.328	15.93
495.68	15.88
496.031	16.01
496.383	16.06
496.734	16.11
497.086	16.08
497.437	16.1
497.788	16.2
498.139	16.04
498.49	16.07
498.842	16.09
499.193	16.2
499.544	16.2
499.894	16.3
500.245	16.33
500.596	16.47
500.947	16.42
501.298	16.46
501.648	16.54
501.999	16.72
502.35	16.47
502.7	16.7
503.051	16.73
503.401	16.69
503.752	16.7
504.102	16.79
504.452	16.69
504.803	16.85
505.153	16.97
505.503	16.88
505.853	16.89
506.203	16.98
506.553	16.91
506.903	17.12
507.253	17.15
507.603	17.25
507.953	17.22
508.303	17.26
508.652	17.15
509.002	17.28
509.352	17.27
509.701	17.19
510.051	17.25
510.4	17.22
510.75	17.07
511.099	17.03
511.449	17.37
511.798	17.35
512.147	17.49
512.496	17.67
512.846	17.61
513.195	17.61
513.544	17.62
513.893	17.58
514.242	17.6
514.591	17.65
514.939	17.85
515.288	17.77
515.637	17.9
515.986	17.98
516.334	17.99
516.683	18.15
517.032	18.05
517.38	18.14
517.729	18.05
518.077	18.24
518.426	18.2
518.774	18.1
519.122	18.03
519.47	17.95
519.819	18.02
520.167	17.89
520.515	18.02
520.863	18.12
521.211	18.21
521.559	18.16
521.907	18.26
522.255	18.37
522.602	18.68
522.95	18.6
523.298	18.67
523.645	18.69
523.993	18.81
524.341	18.71
524.688	18.68
525.036	18.82
525.383	18.82
525.73	18.64
526.078	18.8
526.425	18.86
526.772	18.79
527.119	18.63
527.466	18.57
527.814	18.78
528.161	18.83
528.508	18.96
528.854	18.95
529.201	18.7
529.548	18.72
529.895	18.35
530.242	18.42
530.588	18.45
530.935	18.69
531.282	18.79
531.628	18.99
531.975	19.16
532.321	19.19
532.667	19.36
533.014	19.41
533.36	19.51
533.706	19.49
534.052	19.48
534.399	19.36
534.745	19.14
535.091	19.13
535.437	19.26
535.783	19.48
536.129	19.64
536.474	19.86
536.82	19.89
537.166	19.95
537.512	19.9
537.857	19.87
538.203	19.86
538.549	19.84
538.894	20.06
539.239	20.19
539.585	20.43
539.93	20.39
540.276	20.54
540.621	20.57
540.966	20.5
541.311	20.72
541.656	20.66
542.001	20.4
542.346	20.19
542.691	20.05
543.036	19.95
543.381	20.05
543.726	20.3
544.071	20.44
544.415	20.47
544.76	20.55
545.105	20.69
545.449	20.72
545.794	20.93
546.138	21.07
546.483	21.11
546.827	21.15
547.171	21.21
547.516	21.12
547.86	21.2
548.204	21.26
548.548	21.18
548.892	21.31
549.236	21.54
549.58	21.58
549.924	21.7
550.268	21.8
550.612	22.12
550.956	22.07
551.3	22.13
551.643	22.23
551.987	22.17
552.33	22.39
552.674	22.22
553.017	22.42
553.361	22.46
553.704	22.26
554.048	22.2
554.391	22.27
554.734	22.19
555.077	22.33
555.42	22.42
555.764	22.52
556.107	22.86
556.45	22.79
556.793	22.91
557.135	22.76
557.478	23.03
557.821	22.99
558.164	23
558.507	23.01
558.849	23.27
559.192	23.08
559.534	23.09
559.877	23.12
560.219	23.05
560.562	23.07
560.904	23.39
561.246	23.36
561.589	23.75
561.931	23.57
562.273	23.44
562.615	23.28
562.957	23.38
563.299	23.61
563.641	23.63
563.983	23.66
564.325	23.86
564.667	23.84
565.008	23.82
565.35	23.66
565.692	23.91
566.033	24
566.375	24.07
566.716	23.98
567.058	23.97
567.399	24.14
567.741	24.01
568.082	24
568.423	23.96
568.764	24.13
569.105	24.12
569.447	24.32
569.788	24.44
570.129	24.22
570.47	24.36
570.811	24.43
571.151	24.83
571.492	24.51
571.833	24.54
572.174	24.89
572.514	24.69
572.855	24.9
573.195	24.47
573.536	24.58
573.876	24.54
574.217	24.6
574.557	24.64
574.898	24.84
575.238	25.09
575.578	25
575.918	25.07
576.258	25.16
576.598	25.12
576.938	24.99
577.278	25.14
577.618	25.41
577.958	25.33
578.298	25.49
578.638	25.32
578.977	25.57
579.317	25.63
579.657	25.55
579.996	25.94
580.336	25.88
580.675	25.85
581.014	25.96
581.354	25.88
581.693	26.01
582.032	26.3
582.372	26
582.711	26.17
583.05	26.17
583.389	26.47
583.728	26.56
584.067	26.55
584.406	26.47
584.745	26.32
585.083	26.5
585.422	26.69
585.761	26.48
586.1	26.68
586.438	26.45
586.777	26.65
587.115	26.83
587.454	26.67
587.792	26.94
588.13	26.91
588.469	27.06
588.807	26.98
589.145	27.03
589.483	26.98
589.821	27.08
590.159	27.22
590.497	26.95
590.835	27.15
591.173	27.37
591.511	27.1
591.849	27.42
592.187	27.24
592.524	27.31
592.862	27.4
593.2	27.63
593.537	27.73
593.875	27.58
594.212	27.52
594.55	27.5
594.887	27.79
595.224	27.97
595.561	27.84
595.899	27.65
596.236	27.86
596.573	28.05
596.91	27.97
597.247	27.99
597.584	28
597.921	27.91
598.258	28.05
598.594	27.94
598.931	27.7
599.268	27.91
599.604	28.14
599.941	28.41
600.277	28.48
600.614	28.61
600.95	28.24
601.287	28.44
601.623	28.26
601.959	28.77
602.296	28.72
602.632	28.51
602.968	28.71
603.304	28.76
603.64	28.71
603.976	28.95
604.312	28.62
604.648	28.62
604.984	28.75
605.319	28.88
605.655	28.75
605.991	28.86
606.326	28.84
606.662	28.59
606.998	28.91
607.333	28.94
607.668	29.21
608.004	29.15
608.339	29.39
608.674	29.5
609.01	29.72
609.345	29.32
609.68	29.29
610.015	29.42
610.35	29.62
610.685	29.42
611.02	29.59
611.355	29.43
611.689	29.49
612.024	29.82
612.359	29.79
612.694	30.18
613.028	30.12
613.363	29.89
613.697	30.2
614.032	30.31
614.366	29.9
614.7	30.31
615.035	30.49
615.369	30.68
615.703	30.18
616.037	30.78
616.371	30.48
616.705	30.51
617.039	30.56
617.373	30.61
617.707	31.06
618.041	30.64
618.375	30.38
618.709	30.8
619.042	30.5
619.376	30.49
619.71	30.81
620.043	30.93
620.377	30.72
620.71	31.04
621.043	31.09
621.377	31.28
621.71	31.08
622.043	31.04
622.376	31.45
622.709	31.55
623.043	30.97
623.376	31.38
623.709	31.58
624.041	31.28
624.374	31.9
624.707	31.61
625.04	31.52
625.373	31.48
625.705	31.74
626.038	31.81
626.37	31.6
626.703	31.7
627.035	31.99
627.368	32.06
627.7	31.77
628.032	31.71
628.365	32.09
628.697	32.04
629.029	31.68
629.361	32.07
629.693	31.88
630.025	31.98
630.357	32.35
630.689	32.01
631.021	32.13
631.353	32.14
631.684	31.87
632.016	31.82
632.348	31.99
632.679	32.78
633.011	32.47
633.342	32.94
633.674	32.5
634.005	32.75
634.336	32.9
634.668	32.56
634.999	32.64
635.33	32.92
635.661	32.32
635.992	32.52
636.323	32.89
636.654	32.8
636.985	32.69
637.316	32.99
637.647	33.06
637.977	33.05
638.308	33.18
638.639	33.14
638.969	32.86
639.3	33.28
639.63	33.31
639.961	33.78
640.291	32.66
640.622	33.65
640.952	34.07
641.282	33.4
641.612	33.44
641.943	33.47
642.273	33.77
642.603	33.6
642.933	33.49
643.263	33.97
643.592	34.37
643.922	33.87
644.252	33.96
644.582	33.79
644.911	34.2
645.241	33.94
645.571	34.1
645.9	34.08
646.23	34.05
646.559	33.86
646.888	34.14
647.218	34.26
647.547	34.43
647.876	33.93
648.205	34.17
648.534	34.36
648.863	34.32
649.192	34.64
649.521	34.56
649.85	34.46
650.179	35.03
650.508	34.53
650.837	34.92
651.165	34.74
651.494	34.3
651.822	34.92
652.151	34.89
652.479	35.09
652.808	34.73
653.136	34.45
653.465	35.01
653.793	34.8
654.121	35.09
654.449	35.15
654.777	34.41
655.105	34.87
655.433	35.41
655.761	35.46
656.089	35.3
656.417	35.29
656.745	35.66
657.073	35.5
657.4	35.44
657.728	36.09
658.056	35.73
658.383	35.22
658.711	35.84
659.038	35.95
659.365	35.91
659.693	35.32
660.02	35.56
660.347	35.64
660.674	35.52
661.001	35.58
661.329	35.42
661.656	35.68
661.982	35.72
662.309	36.11
662.636	35.95
662.963	36
663.29	36.12
663.616	35.87
663.943	36.26
664.27	36.05
664.596	35.74
664.923	36.38
665.249	36.63
665.576	36.53
665.902	36.47
666.228	36.98
666.554	37.06
666.881	36.2
667.207	36.4
667.533	36.41
667.859	36.44
668.185	36.4
668.511	36.85
668.837	36.38
669.162	36.65
669.488	36.51
669.814	37.2
670.139	36.45
670.465	37.15
670.791	35.93
671.116	37.3
671.442	36.89
671.767	37.15
672.092	37.7
672.418	37.01
672.743	37.14
673.068	37.1
673.393	37.48
673.718	37.36
674.043	36.68
674.368	37.35
674.693	37.21
675.018	37.37
675.343	37.41
675.667	37.19
675.992	37.81
676.317	37.2
676.641	37.45
676.966	37.81
677.29	37.73
677.615	37.85
677.939	38.07
678.264	37.81
678.588	37.82
678.912	37.31
679.236	37.69
679.56	37.1
679.885	38.08
680.209	38.02
680.532	37.96
680.856	37.79
681.18	38.32
681.504	37.83
681.828	37.89
682.152	38.41
682.475	37.95
682.799	37.83
683.122	38.22
683.446	37.86
683.769	38.46
684.093	38.21
684.416	38.43
684.739	38.42
685.062	38
685.386	38.25
685.709	38.25
686.032	38.36
686.355	39.11
686.678	38.74
687.001	38.52
687.324	38.48
687.646	38.44
687.969	39.28
688.292	37.69
688.614	39.2
688.937	39.01
689.26	38.6
689.582	38.8
689.904	38.62
690.227	38.82
690.549	39.04
690.871	38.97
691.194	38.64
691.516	39.44
691.838	39.21
692.16	38.82
692.482	38.5
692.804	39.5
693.126	38.45
693.448	39.52
693.769	39.52
694.091	38.64
694.413	39.27
694.735	38.47
695.056	39.34
695.378	39.64
695.699	39.98
696.021	39.58
696.342	38.85
696.663	39.47
696.984	38.98
697.306	39.41
697.627	39.66
697.948	39.88
698.269	39.63
698.59	39.71
698.911	39.43
699.232	39.35
699.553	40.56
699.873	39.56
700.194	40
700.515	39.58
700.835	39.11
701.156	40.05
701.477	39.84
701.797	39.96
702.117	39.7
702.438	39.88
702.758	39.76
703.078	40.07
703.398	39.43
703.719	40.56
704.039	40.57
704.359	39.52
704.679	40.14
704.999	39.9
705.319	39.76
705.638	39.48
705.958	39.94
706.278	41.47
706.597	39.79
706.917	40.26
707.237	39.98
707.556	40.61
707.876	41.76
708.195	41.45
708.514	40.67
708.834	40.47
709.153	41.58
709.472	41.61
709.791	39.82
710.11	40.21
710.429	41.16
710.748	41.45
711.067	40.97
711.386	40.11
711.705	41.05
712.023	40.98
712.342	40.97
712.661	41.27
712.979	41.51
713.298	41.06
713.616	41.44
713.935	42.35
714.253	41.83
714.572	40.42
714.89	41.36
715.208	41.95
715.526	41.95
715.844	41.34
716.162	42.83
716.48	40.98
716.798	41.92
717.116	42.01
717.434	42.03
717.752	41.6
718.069	41.14
718.387	42.3
718.705	41.94
719.022	41.46
719.34	42.08
719.657	42.09
719.975	41.37
720.292	41.68
720.609	41.47
720.927	41.03
721.244	42.65
721.561	41.09
721.878	41.07
722.195	41.58
722.512	43.17
722.829	41.38
723.146	41.58
723.463	42.2
723.779	41.59
724.096	41.92
724.413	41.71
724.729	41.55
725.046	41.62
725.362	41.61
725.679	41.51
725.995	41.62
726.311	42.42
726.628	42.62
726.944	42.67
727.26	43.21
727.576	43.13
727.892	40.81
728.208	42.95
728.524	40.75
728.84	42.2
729.156	41.88
729.472	41.89
729.787	41.76
730.103	41.87
730.419	42.73
730.734	42.09
731.05	41.36
731.365	42.8
731.681	42.37
731.996	43.17
732.311	42.05
732.626	42.48
732.942	42.76
733.257	43.12
733.572	41.98
733.887	43.27
734.202	42.57
734.517	42.09
734.832	42.37
735.146	42.68
735.461	43.33
735.776	44.05
736.091	43.9
736.405	42.35
736.72	41.22
737.034	44.76
737.349	41.85
737.663	43.93
737.977	44.08
738.292	44.5
738.606	43.56
738.92	43.8
739.234	42.07
739.548	41.54
739.862	43.64
740.176	43.15
740.49	43.29
740.804	43.69
741.117	42.59
741.431	43.19
741.745	43.03
742.058	43.15
742.372	42.23
742.685	44.39
742.999	43.98
743.312	44.68
743.626	43.14
743.939	43.36
744.252	42.56
744.565	43.16
744.878	42.93
745.191	43.07
745.505	44.11
745.817	43.63
746.13	43.56
746.443	43.07
746.756	44.27
747.069	43.88
747.381	43.02
747.694	45.35
748.007	43.18
748.319	43.98
748.632	43.92
748.944	41.37
749.256	45.51
749.569	42.77
749.881	42.76
750.193	42.7
750.505	45.16
750.817	45.27
751.129	44.35
751.441	43.88
751.753	45.38
752.065	44.86
752.377	43.14
752.689	42.87
753	44.86
753.312	44.57
753.624	43.71
753.935	43.57
754.247	43.8
754.558	44.94
754.869	44.64
755.181	42.85
755.492	44.28
755.803	45.61
756.114	44.65
756.425	43.82
756.736	44.39
757.047	44.16
757.358	44.6
757.669	45.16
757.98	44.41
758.291	45.31
758.601	44.83
758.912	42.85
759.223	45.46
759.533	44.55
759.844	45.93
760.154	43.55
760.464	44.61
760.775	44.51
761.085	45.15
761.395	45.06
761.705	45.09
762.016	44.03
762.326	44.93
762.636	46.11
762.945	45.66
763.255	46.12
763.565	46.84
763.875	44.5
764.185	45.7
764.494	43.84
764.804	44.83
765.113	44.35
765.423	44.67
765.732	45.44
766.042	46.21
766.351	45.22
766.66	45.08
766.97	46.17
767.279	46.58
767.588	45.7
767.897	44.25
768.206	44.97
768.515	46.09
768.824	45.95
769.133	43.3
769.441	44.75
769.75	44.11
770.059	43.49
770.367	47.18
770.676	43.95
770.984	45.01
771.293	44.85
771.601	43.91
771.91	45.02
772.218	45.63
772.526	44.92
772.834	47.64
773.142	43.02
773.45	45.04
773.758	44.11
774.066	43.98
774.374	45.62
774.682	44.05
774.99	44.18
775.298	48.19
775.605	46.97
775.913	41.96
776.22	42.97
776.528	46.3
776.835	46.23
777.143	46.62
777.45	43.97
777.757	46.49
778.065	45.72
778.372	45.04
778.679	46.44
778.986	48.21
779.293	46.22
779.6	43.15
779.907	48.02
780.214	45.92
780.52	47.36
780.827	47.6
781.134	45.46
781.44	44.39
781.747	47.31
782.053	42.63
782.36	46.31
782.666	45.49
782.973	43.95
783.279	47.79
783.585	44.96
783.891	43.92
784.197	44.36
784.503	47.13
784.809	45.96
785.115	46.59
785.421	48.88
785.727	48.07
786.033	44.62
786.339	45.93
786.644	47.12
786.95	47.94
787.255	46.19
787.561	45.39
787.866	45.14
788.172	46.15
788.477	44.59
788.782	45.96
789.088	42.37
789.393	46.29
789.698	45.76
790.003	47.31
790.308	46.93
790.613	47.98
790.918	45.39
791.223	45.05
791.527	47.24
791.832	46.04
792.137	49.28
792.441	48.84
792.746	48.81
793.05	45.81
793.355	42.89
793.659	48.08
793.963	45.49
794.268	46.85
794.572	45.45
794.876	44.46
795.18	47.03
795.484	46.76
795.788	49.02
796.092	37.76
796.396	42.94
796.7	45.83
797.004	46.09
797.307	44.52
797.611	49.07
797.915	44.25
798.218	48.31
798.522	44.88
798.825	45.37
799.128	46.69
799.432	44.96
799.735	47.99
800.038	43.41
800.341	47.52
800.644	48.38
800.947	49.08
801.25	46.73
801.553	50.3
801.856	48.78
802.159	46.64
802.462	46.27
802.764	46.19
803.067	49.78
803.37	46.62
803.672	45.07
803.975	47.96
804.277	48.22
804.579	48.56
804.882	48.35
805.184	44.03
805.486	45.93
805.788	45.38
806.09	44.56
806.392	43.76
806.694	49.37
806.996	44.98
807.298	46.63
807.6	50.51
807.902	44.1
808.203	45.87
808.505	42.81
808.807	47.27
809.108	49.28
809.409	46.42
809.711	49.7
810.012	46.46
810.313	51.57
810.615	46.08
810.916	51.6
811.217	47.06
811.518	42.79
811.819	46.45
812.12	45.39
812.421	41.44
812.722	49.14
813.023	47.95
813.323	46.01
813.624	46.01
813.925	46.45
814.225	50.44
814.526	39.44
814.826	40.02
815.126	44.04
815.427	45.65
815.727	44.29
816.027	45.69
816.327	53.65
816.627	48.67
816.927	50.14
817.227	45.63
817.527	42.3
817.827	47.8
818.127	41.3
818.427	42.4
818.727	45.64
819.026	43.97
819.326	40.9
819.625	54.56
819.925	49.54
820.224	51.18
820.524	45.72
820.823	49.66
821.122	46.5
821.421	47.04
821.72	52.68
822.019	49.58
822.318	48.53
822.617	47.05
822.916	48.32
823.215	46.49
823.514	50.35
823.813	48.43
824.111	48.4
824.41	52.18
824.709	49.55
825.007	50.37
825.306	50.54
825.604	49.96
825.902	50.12
826.201	50.1
826.499	49.31
826.797	49.8
827.095	51.27
827.393	50.69
827.691	51.59
827.989	49.48
828.287	51.23
828.585	47.55
828.882	47.21
829.18	51.48
829.478	49.97
829.775	50.61
830.073	50.63
830.37	48.99
830.668	49.8
830.965	52.78
831.263	50.73
831.56	51.2
831.857	50.23
832.154	50.33
832.451	52.22
832.748	50.26
833.045	46.4
833.342	48.9
833.639	47.79
833.936	44.28
834.232	49.38
834.529	47.53
834.826	52.98
835.122	52.1
835.419	48.86
835.715	45.57
836.012	51.5
836.308	49.25
836.604	49.79
836.901	46.42
837.197	48.41
837.493	48.08
837.789	49.66
838.085	44.89
838.381	50.76
838.677	51.34
838.972	47.47
839.268	49.04
839.564	53.06
839.86	46.95
840.155	52.01
840.451	47.81
840.746	50.8
841.042	41.43
841.337	39.27
841.632	48.08
841.928	48.09
842.223	46.04
842.518	40.72
842.813	48.63
843.108	43.42
843.403	43.96
843.698	48.13
843.993	50.5
844.287	43.47
844.582	42.52
844.877	46.93
845.171	58.34
845.466	43.18
845.761	46.61
846.055	53.68
846.349	49.4
846.644	44.7
846.938	38.02
847.232	56.52
847.526	46.02
847.82	59.83
848.114	36.46
848.408	39.35
848.702	37.64
848.996	65.89
849.29	42.54
849.584	47.35
849.877	41.51
850.171	46.81
850.465	35.38
850.758	35.93
851.052	36.67
851.345	39.61
851.638	46.99
851.932	51.28
852.225	52.61
852.518	40.45
852.811	41.91
853.104	34.08
853.397	51.22
853.69	41.23
853.983	37.61
854.276	50.76
854.569	34.73
854.861	33.79
855.154	54.24
855.447	54.18
855.739	45.36
856.032	37.34
856.324	32.9
856.616	45.06
856.909	31.05
857.201	59.99
857.493	53.27
857.785	44.19
858.077	45.49
858.369	42.86
858.661	42.32
858.953	47.7
859.245	38.18
859.537	31.08
859.829	40.42
860.12	41.16
860.412	36.83
860.703	64.95
860.995	46.28
861.286	5.04
861.578	35.92
861.869	54.12
862.16	37.89
862.452	23.93
862.743	24.22
863.034	78.89
863.325	64.38
863.616	43.54
863.907	51.51
864.198	36.81
864.488	67.37
864.779	39.91
865.07	37.45
865.36	45.8
865.651	52.81
865.941	39.43
866.232	49.46
866.522	46.76
866.813	49.08
867.103	23.59
867.393	48.73
867.683	36.56
867.973	48.49
868.263	44.42
868.553	58.23
868.843	29.3
869.133	45.39
869.423	32.03
869.713	39.56
870.002	59.25
870.292	27.77
870.582	42.63
870.871	26.49
871.161	45.75
871.45	36.93
871.739	38.39
872.029	37.72
872.318	54.86
872.607	64.81
872.896	28.01
873.185	55.99
873.474	0.9
873.763	45.58
874.052	31.97
874.341	39.83
874.63	48.07
874.918	46.71
875.207	6.91
875.496	39.64
875.784	21.41
876.073	50.72
876.361	59.97
876.649	55.3
876.938	35.46
877.226	42.05
877.514	50.8
877.802	60.97
878.09	55.19
878.378	43.1
878.666	22.67
878.954	69.75
879.242	43.93
879.53	29.33
879.817	12.46
880.105	76.37
880.392	36.99
880.68	31.32
880.967	33.93
881.255	43.49
881.542	40.83
881.83	65.4
882.117	53.1
882.404	30.93
882.691	30.75
882.978	41.03
883.265	43.4
883.552	52.06
883.839	51.86
884.126	45.75
884.413	55.44
884.699	50.65
884.986	52.13
885.273	56.33
885.559	56.33
885.846	56.33
