Data from 22-4_chest_Reflection__0__196.txt Node

Date: Thu Dec 15 18:01:56 CST 2022
User: ToomeyLab
Spectrometer: FLMS14357
Trigger mode: 0
Integration Time (sec): 1.000000E-2
Scans to average: 100
Electric dark correction enabled: true
Nonlinearity correction enabled: false
Boxcar width: 0
XAxis mode: Wavelengths
Number of Pixels in Spectrum: 2048
>>>>>Begin Spectral Data<<<<<
189.047	-91.2
189.435	-91.2
189.823	-91.2
190.211	175.24
190.599	488.96
190.987	13.54
191.375	-1.33
191.763	43.08
192.151	445.35
192.538	326.67
192.926	69.73
193.314	161.75
193.702	-765.65
194.089	-140.06
194.477	109.69
194.864	157.41
195.252	256.69
195.639	125.19
196.027	57.71
196.414	670.05
196.801	116.2
197.189	64.31
197.576	37.75
197.963	126.55
198.351	-9.81
198.738	-33.8
199.125	-37.35
199.512	43.62
199.899	-66.61
200.286	-58.12
200.673	56.78
201.06	12.6
201.447	-7.35
201.833	13.41
202.22	0.43
202.607	-42.45
202.994	-19.3
203.38	1.23
203.767	22.38
204.154	31.05
204.54	24.9
204.927	8.94
205.313	-3.17
205.699	3.06
206.086	1.47
206.472	46.99
206.858	0.08
207.245	4.59
207.631	-14.26
208.017	43.55
208.403	-97.14
208.789	1.21
209.175	7.37
209.561	-103.4
209.947	-19.12
210.333	-39.22
210.719	46.76
211.105	44.72
211.491	67.79
211.876	14.67
212.262	20.34
212.648	13.72
213.034	21.16
213.419	36.9
213.805	-28.2
214.19	-4.25
214.576	-13.9
214.961	33.22
215.346	-6.38
215.732	6.12
216.117	15.63
216.502	-30.22
216.888	-0.12
217.273	-9.82
217.658	-6.02
218.043	-21.98
218.428	-12.73
218.813	6.24
219.198	-15.49
219.583	-14.47
219.968	-12.6
220.353	-52.98
220.738	5.85
221.122	-7.78
221.507	-12.7
221.892	-10.09
222.276	-32.33
222.661	-27.03
223.046	-4.77
223.43	10.4
223.815	1.4
224.199	-3.8
224.583	0.41
224.968	6.51
225.352	-6.47
225.736	9.98
226.121	-6.18
226.505	-2.27
226.889	1.7
227.273	-8.32
227.657	4.65
228.041	-0.1
228.425	2.48
228.809	0.84
229.193	-0.31
229.577	1.45
229.961	1.71
230.344	1.85
230.728	2.67
231.112	3.27
231.495	0.45
231.879	1.96
232.263	1.1
232.646	1.35
233.03	2.52
233.413	1.48
233.797	-1.41
234.18	1.14
234.563	2.67
234.946	4.32
235.33	1.09
235.713	2.66
236.096	3.58
236.479	4.05
236.862	1.22
237.245	2.89
237.628	3.08
238.011	1.78
238.394	0.62
238.777	2.13
239.16	3.87
239.543	2.18
239.925	1.04
240.308	0.26
240.691	2.18
241.073	1.29
241.456	1.88
241.838	2.5
242.221	3.02
242.603	2.84
242.986	2.23
243.368	2.69
243.75	2.62
244.133	2.67
244.515	2.56
244.897	2.36
245.279	2.32
245.661	2.58
246.043	3.05
246.425	1.53
246.807	2.35
247.189	2.85
247.571	1.99
247.953	2.21
248.335	2.71
248.717	3.04
249.098	2.84
249.48	2.59
249.862	2.52
250.243	3.11
250.625	2.64
251.006	2.82
251.388	2.02
251.769	2.23
252.151	2.89
252.532	2.43
252.913	3.25
253.295	3.06
253.676	3.17
254.057	3.14
254.438	2.97
254.819	2.59
255.2	3.14
255.581	3.26
255.962	2.94
256.343	3.17
256.724	3.19
257.105	2.77
257.486	1.81
257.867	2.35
258.247	3
258.628	2.98
259.009	2.62
259.389	1.74
259.77	1.99
260.15	2.81
260.531	2.87
260.911	2.64
261.292	2.8
261.672	2.71
262.052	2.89
262.432	2.16
262.813	2.63
263.193	3.05
263.573	2.07
263.953	2
264.333	2.48
264.713	3.13
265.093	2.37
265.473	1.6
265.853	3.33
266.233	2.63
266.612	1.88
266.992	2.78
267.372	3.49
267.752	2.76
268.131	2.39
268.511	2.42
268.89	3.37
269.27	1.57
269.649	2.22
270.029	2.18
270.408	3.11
270.787	2.87
271.167	2.82
271.546	2.73
271.925	2.9
272.304	2.95
272.683	1.94
273.062	2.25
273.441	2.17
273.82	2.87
274.199	2.29
274.578	2.84
274.957	2.66
275.336	2.79
275.715	2.97
276.093	2.3
276.472	2.33
276.851	2.77
277.229	2.14
277.608	2.28
277.986	2.19
278.365	2.75
278.743	2.22
279.122	2.59
279.5	2.85
279.878	1.48
280.257	2.18
280.635	2.79
281.013	2.64
281.391	2.56
281.769	2.79
282.147	2.55
282.525	2.47
282.903	1.98
283.281	3.05
283.659	2.79
284.037	2.14
284.415	2.43
284.792	2.71
285.17	2.22
285.548	2.38
285.925	2.73
286.303	2.87
286.68	2.52
287.058	2.74
287.435	2.59
287.813	2.73
288.19	2.74
288.567	2.66
288.945	2.49
289.322	2.92
289.699	2.69
290.076	2.7
290.453	2.61
290.83	2.81
291.207	2.51
291.584	3.27
291.961	2.62
292.338	2.63
292.715	2.53
293.092	2.64
293.469	3.08
293.845	3.19
294.222	3.23
294.599	2.34
294.975	2.54
295.352	3.57
295.728	3.24
296.105	2.74
296.481	2.72
296.858	3.36
297.234	3.12
297.61	3.09
297.986	3.44
298.363	3.22
298.739	3.46
299.115	3.4
299.491	3.48
299.867	3.11
300.243	2.91
300.619	3.04
300.995	2.94
301.371	3.27
301.746	3.42
302.122	2.62
302.498	3.21
302.874	3.71
303.249	3.36
303.625	3.03
304	3.73
304.376	3.61
304.751	3.45
305.127	2.87
305.502	3.35
305.878	3.74
306.253	3.14
306.628	3.47
307.003	3.51
307.378	3.27
307.754	3.61
308.129	3.2
308.504	3.71
308.879	3.76
309.254	3.87
309.629	3.38
310.003	3.31
310.378	3.65
310.753	3.59
311.128	3.25
311.502	3.58
311.877	3.52
312.252	3.78
312.626	4.15
313.001	3.61
313.375	3.91
313.75	3.86
314.124	3.81
314.498	3.88
314.873	3.59
315.247	3.88
315.621	3.51
315.995	3.57
316.369	3.14
316.743	3.31
317.117	3.48
317.491	3.61
317.865	3.58
318.239	4.51
318.613	4.07
318.987	3.47
319.361	3.74
319.734	3.8
320.108	3.85
320.482	4.16
320.855	3.84
321.229	3.5
321.602	4.24
321.976	3.4
322.349	5.06
322.723	3.54
323.096	3.65
323.469	3.66
323.843	3.2
324.216	4.12
324.589	4.11
324.962	3.31
325.335	3.38
325.708	4.14
326.081	3.9
326.454	4.34
326.827	4.21
327.2	3.44
327.573	4.46
327.945	3.71
328.318	3.99
328.691	4.13
329.063	3.47
329.436	3.71
329.809	4.19
330.181	4.51
330.553	4.47
330.926	4.35
331.298	3.87
331.671	4.32
332.043	3.89
332.415	4.01
332.787	4.37
333.159	3.98
333.532	4.36
333.904	4.13
334.276	4.04
334.648	4.13
335.02	3.63
335.391	3.99
335.763	4.26
336.135	4.23
336.507	3.91
336.879	4.67
337.25	3.95
337.622	4.13
337.993	3.92
338.365	4.04
338.736	4.11
339.108	4.31
339.479	4.38
339.851	4.54
340.222	4.76
340.593	4.37
340.964	4.25
341.336	4.17
341.707	4.35
342.078	3.91
342.449	3.9
342.82	4.2
343.191	4.17
343.562	4.24
343.933	3.88
344.303	3.93
344.674	4.18
345.045	4.25
345.416	4.52
345.786	3.99
346.157	4.71
346.527	3.94
346.898	3.76
347.268	4.25
347.639	4.22
348.009	4.52
348.38	4.05
348.75	4.21
349.12	4.46
349.49	4.56
349.861	4.33
350.231	4.32
350.601	3.98
350.971	4.07
351.341	4.43
351.711	4.24
352.081	4.17
352.45	4.11
352.82	3.64
353.19	4.14
353.56	4.25
353.929	4.54
354.299	4.52
354.669	4.44
355.038	4.58
355.408	4.38
355.777	4.34
356.147	4.36
356.516	3.86
356.885	4
357.254	4.43
357.624	4.38
357.993	4.55
358.362	4.47
358.731	4.71
359.1	4.48
359.469	4.5
359.838	4.46
360.207	4.28
360.576	4.4
360.945	4.44
361.314	4.14
361.682	4.07
362.051	4.57
362.42	4.41
362.788	4.44
363.157	4.27
363.525	4.5
363.894	4.24
364.262	4.37
364.631	4.75
364.999	4.2
365.367	4.33
365.735	4.32
366.104	4.5
366.472	4.4
366.84	4.37
367.208	4.69
367.576	4.36
367.944	4.66
368.312	4.47
368.68	4.67
369.048	4.52
369.416	4.57
369.783	4.49
370.151	4.95
370.519	4.76
370.886	4.42
371.254	4.76
371.621	4.61
371.989	4.73
372.356	4.72
372.724	4.44
373.091	4.43
373.458	4.29
373.826	4.73
374.193	4.34
374.56	4.51
374.927	4.73
375.294	4.76
375.661	4.62
376.028	4.2
376.395	4.94
376.762	4.39
377.129	4.63
377.496	4.65
377.863	4.64
378.229	4.77
378.596	4.83
378.963	4.88
379.329	4.74
379.696	4.43
380.062	4.78
380.429	4.38
380.795	4.87
381.161	4.52
381.528	4.3
381.894	4.63
382.26	5.11
382.626	4.92
382.993	5.02
383.359	4.81
383.725	4.36
384.091	4.85
384.457	4.58
384.823	4.88
385.188	4.94
385.554	4.77
385.92	4.7
386.286	4.65
386.651	4.72
387.017	4.8
387.383	4.85
387.748	4.87
388.114	4.85
388.479	4.82
388.845	4.75
389.21	5
389.575	5.19
389.94	4.83
390.306	5.04
390.671	4.84
391.036	4.78
391.401	4.87
391.766	4.8
392.131	5.36
392.496	4.84
392.861	4.66
393.226	4.75
393.591	4.9
393.956	4.91
394.32	5.04
394.685	4.65
395.05	5.03
395.414	5.01
395.779	5.04
396.143	4.86
396.508	4.89
396.872	4.93
397.236	5.37
397.601	5.2
397.965	5.06
398.329	4.92
398.694	4.96
399.058	4.98
399.422	4.8
399.786	4.97
400.15	5.06
400.514	4.81
400.878	5
401.242	4.94
401.605	5.12
401.969	4.84
402.333	5.02
402.697	5.1
403.06	5.02
403.424	5.14
403.787	4.9
404.151	5.15
404.514	5.05
404.878	4.76
405.241	5.05
405.604	4.88
405.968	5.06
406.331	5.18
406.694	5.07
407.057	4.89
407.42	5.04
407.783	5.27
408.146	4.97
408.509	5
408.872	5.22
409.235	5.16
409.598	5.06
409.961	5.06
410.323	5.15
410.686	5.11
411.049	5.33
411.411	5.05
411.774	5.28
412.136	5.11
412.499	5.42
412.861	4.98
413.223	5.11
413.586	5.2
413.948	5.3
414.31	5.27
414.672	4.88
415.035	5.35
415.397	5.04
415.759	5.07
416.121	5.35
416.483	4.9
416.845	5.4
417.206	5.28
417.568	5.18
417.93	5.33
418.292	5.24
418.653	5.03
419.015	5.25
419.377	5.2
419.738	5.21
420.1	5.26
420.461	5.1
420.822	5.24
421.184	5.23
421.545	5.35
421.906	5.27
422.267	5.14
422.629	5.17
422.99	5.21
423.351	5.26
423.712	5.2
424.073	5.29
424.434	5.2
424.795	5.12
425.155	5.1
425.516	5.23
425.877	5.21
426.238	5.28
426.598	5.17
426.959	5.29
427.32	5.35
427.68	5.3
428.041	5.44
428.401	5.21
428.761	5.42
429.122	5.34
429.482	5.29
429.842	5.31
430.202	5.48
430.563	5.33
430.923	5.36
431.283	5.56
431.643	5.47
432.003	5.42
432.363	5.57
432.722	5.49
433.082	5.47
433.442	5.55
433.802	5.42
434.161	5.5
434.521	5.52
434.881	5.49
435.24	5.44
435.6	5.51
435.959	5.44
436.319	5.35
436.678	5.53
437.037	5.49
437.396	5.51
437.756	5.65
438.115	5.51
438.474	5.66
438.833	5.64
439.192	5.48
439.551	5.53
439.91	5.46
440.269	5.55
440.628	5.52
440.987	5.55
441.345	5.54
441.704	5.62
442.063	5.52
442.421	5.53
442.78	5.48
443.138	5.61
443.497	5.59
443.855	5.73
444.214	5.62
444.572	5.82
444.93	5.81
445.288	5.63
445.647	5.53
446.005	5.54
446.363	5.65
446.721	5.6
447.079	5.51
447.437	5.57
447.795	5.63
448.153	5.63
448.51	5.6
448.868	5.62
449.226	5.67
449.584	5.74
449.941	5.71
450.299	5.67
450.656	5.78
451.014	5.78
451.371	5.9
451.729	5.75
452.086	5.8
452.443	5.91
452.801	5.71
453.158	6.02
453.515	5.84
453.872	5.63
454.229	5.54
454.586	5.8
454.943	5.98
455.3	6.01
455.657	5.7
456.014	5.94
456.371	5.98
456.727	6.01
457.084	6.09
457.441	6.07
457.797	5.93
458.154	6.03
458.51	5.8
458.867	5.99
459.223	5.89
459.58	5.82
459.936	5.84
460.292	6
460.648	5.8
461.005	5.83
461.361	5.88
461.717	5.9
462.073	5.9
462.429	5.95
462.785	6.15
463.141	6.01
463.496	6.02
463.852	6.11
464.208	6.02
464.564	6.15
464.919	5.98
465.275	6.08
465.631	6.22
465.986	6.03
466.342	5.89
466.697	6.06
467.052	6.27
467.408	6.18
467.763	6.13
468.118	6.06
468.473	6.17
468.829	5.9
469.184	6.1
469.539	6.02
469.894	6.29
470.249	6.36
470.603	6.23
470.958	6.25
471.313	6.11
471.668	6.29
472.023	6.28
472.377	6.2
472.732	6.35
473.086	6.27
473.441	6.26
473.795	6.52
474.15	6.26
474.504	6.21
474.859	6.03
475.213	6.25
475.567	6.28
475.921	6.53
476.275	6.52
476.63	6.35
476.984	6.25
477.338	6.44
477.692	6.38
478.045	6.45
478.399	6.24
478.753	6.43
479.107	6.53
479.461	6.28
479.814	6.38
480.168	6.33
480.521	6.44
480.875	6.32
481.228	6.44
481.582	6.38
481.935	6.47
482.289	6.37
482.642	6.5
482.995	6.33
483.348	6.29
483.701	6.42
484.055	6.36
484.408	6.39
484.761	6.22
485.114	6.12
485.466	6.07
485.819	6.09
486.172	6.14
486.525	6.24
486.878	6.27
487.23	6.33
487.583	6.43
487.936	6.32
488.288	6.32
488.641	6.33
488.993	6.29
489.345	6.31
489.698	6.32
490.05	6.31
490.402	6.37
490.754	6.47
491.107	6.47
491.459	6.54
491.811	6.57
492.163	6.48
492.515	6.45
492.866	6.41
493.218	6.43
493.57	6.46
493.922	6.44
494.274	6.59
494.625	6.67
494.977	6.62
495.328	6.79
495.68	6.76
496.031	6.83
496.383	6.75
496.734	6.76
497.086	6.95
497.437	6.87
497.788	6.87
498.139	6.84
498.49	6.75
498.842	6.88
499.193	6.76
499.544	6.85
499.894	6.89
500.245	6.9
500.596	6.94
500.947	6.85
501.298	6.83
501.648	7.03
501.999	6.97
502.35	6.99
502.7	7.09
503.051	7.02
503.401	7.14
503.752	6.95
504.102	7.1
504.452	6.96
504.803	6.99
505.153	7.18
505.503	7
505.853	7.06
506.203	7.15
506.553	6.97
506.903	7.12
507.253	7.08
507.603	7.16
507.953	7.07
508.303	7.24
508.652	7.1
509.002	7.29
509.352	7.29
509.701	7.1
510.051	7.13
510.4	7.24
510.75	7.05
511.099	7.05
511.449	7.28
511.798	7.22
512.147	7.16
512.496	7.21
512.846	7.24
513.195	7.19
513.544	7.31
513.893	7.32
514.242	7.33
514.591	7.29
514.939	7.29
515.288	7.33
515.637	7.32
515.986	7.32
516.334	7.34
516.683	7.41
517.032	7.39
517.38	7.31
517.729	7.48
518.077	7.36
518.426	7.54
518.774	7.41
519.122	7.43
519.47	7.43
519.819	7.38
520.167	7.38
520.515	7.44
520.863	7.44
521.211	7.46
521.559	7.55
521.907	7.56
522.255	7.5
522.602	7.56
522.95	7.6
523.298	7.66
523.645	7.65
523.993	7.7
524.341	7.78
524.688	7.75
525.036	7.74
525.383	7.77
525.73	7.62
526.078	7.75
526.425	7.71
526.772	7.61
527.119	7.66
527.466	7.66
527.814	7.63
528.161	7.69
528.508	7.78
528.854	7.77
529.201	7.64
529.548	7.61
529.895	7.52
530.242	7.57
530.588	7.58
530.935	7.58
531.282	7.59
531.628	7.7
531.975	7.74
532.321	7.83
532.667	7.84
533.014	7.94
533.36	7.93
533.706	7.93
534.052	7.94
534.399	7.91
534.745	7.88
535.091	7.83
535.437	7.88
535.783	7.94
536.129	7.96
536.474	8.12
536.82	8.14
537.166	7.98
537.512	8.05
537.857	8.14
538.203	8.12
538.549	8.07
538.894	8.17
539.239	8.19
539.585	8.25
539.93	8.32
540.276	8.44
540.621	8.36
540.966	8.46
541.311	8.41
541.656	8.38
542.001	8.34
542.346	8.19
542.691	8.18
543.036	8.19
543.381	8.22
543.726	8.24
544.071	8.31
544.415	8.32
544.76	8.34
545.105	8.4
545.449	8.42
545.794	8.48
546.138	8.57
546.483	8.64
546.827	8.6
547.171	8.67
547.516	8.61
547.86	8.64
548.204	8.69
548.548	8.74
548.892	8.65
549.236	8.82
549.58	8.8
549.924	8.95
550.268	9.09
550.612	8.94
550.956	8.98
551.3	9.2
551.643	9.03
551.987	9.11
552.33	9.21
552.674	8.98
553.017	9.13
553.361	9.11
553.704	9.12
554.048	9.09
554.391	9.26
554.734	9.03
555.077	9.05
555.42	9.17
555.764	9.19
556.107	9.32
556.45	9.31
556.793	9.45
557.135	9.22
557.478	9.43
557.821	9.25
558.164	9.4
558.507	9.18
558.849	9.52
559.192	9.51
559.534	9.38
559.877	9.42
560.219	9.52
560.562	9.38
560.904	9.64
561.246	9.48
561.589	9.7
561.931	9.47
562.273	9.59
562.615	9.56
562.957	9.65
563.299	9.66
563.641	9.79
563.983	9.52
564.325	9.66
564.667	9.71
565.008	9.6
565.35	9.65
565.692	9.85
566.033	9.85
566.375	9.71
566.716	9.82
567.058	9.84
567.399	9.8
567.741	9.81
568.082	10.01
568.423	9.76
568.764	9.97
569.105	9.93
569.447	10.03
569.788	10.03
570.129	10.15
570.47	10.12
570.811	10.08
571.151	10.15
571.492	10.1
571.833	10.1
572.174	10.29
572.514	10.13
572.855	10.23
573.195	10.13
573.536	10.21
573.876	10.21
574.217	10.13
574.557	10.27
574.898	10.27
575.238	10.43
575.578	10.49
575.918	10.47
576.258	10.46
576.598	10.41
576.938	10.42
577.278	10.47
577.618	10.56
577.958	10.61
578.298	10.63
578.638	10.49
578.977	10.9
579.317	10.61
579.657	10.85
579.996	10.85
580.336	10.76
580.675	10.68
581.014	10.89
581.354	10.61
581.693	10.88
582.032	11.04
582.372	10.99
582.711	10.75
583.05	10.79
583.389	11
583.728	11.02
584.067	10.83
584.406	11.19
584.745	10.93
585.083	11.21
585.422	11.27
585.761	11.37
586.1	11.19
586.438	11.12
586.777	11.3
587.115	11.3
587.454	11.12
587.792	11.27
588.13	11.41
588.469	11.11
588.807	11.31
589.145	11.47
589.483	11.28
589.821	11.52
590.159	11.46
590.497	11.36
590.835	11.34
591.173	11.64
591.511	11.45
591.849	11.63
592.187	11.47
592.524	11.78
592.862	11.52
593.2	11.63
593.537	11.5
593.875	11.65
594.212	11.73
594.55	11.7
594.887	11.96
595.224	11.68
595.561	11.79
595.899	11.8
596.236	11.81
596.573	11.91
596.91	11.86
597.247	12.11
597.584	11.87
597.921	11.88
598.258	12.01
598.594	11.97
598.931	11.72
599.268	11.8
599.604	12
599.941	12.02
600.277	12.01
600.614	11.94
600.95	11.92
601.287	11.87
601.623	11.91
601.959	12.29
602.296	12.25
602.632	12.18
602.968	12.2
603.304	12.57
603.64	12.09
603.976	12.03
604.312	12.27
604.648	12.43
604.984	12.5
605.319	12.32
605.655	12.28
605.991	12.3
606.326	12.4
606.662	12.21
606.998	12.31
607.333	12.42
607.668	12.4
608.004	12.18
608.339	12.61
608.674	12.69
609.01	13.22
609.345	12.63
609.68	12.7
610.015	12.85
610.35	12.93
610.685	12.43
611.02	12.75
611.355	13.02
611.689	12.66
612.024	12.75
612.359	13.18
612.694	12.71
613.028	12.92
613.363	13.12
613.697	13.08
614.032	12.87
614.366	12.85
614.7	13.06
615.035	13.13
615.369	13.18
615.703	13.37
616.037	13.58
616.371	13
616.705	13.32
617.039	13.56
617.373	12.9
617.707	13.5
618.041	13.2
618.375	12.86
618.709	13.59
619.042	13.4
619.376	13.47
619.71	13.49
620.043	13.67
620.377	13.56
620.71	13.3
621.043	13.73
621.377	13.85
621.71	13.61
622.043	13.78
622.376	13.92
622.709	13.75
623.043	13.86
623.376	13.55
623.709	13.78
624.041	13.72
624.374	13.68
624.707	13.99
625.04	13.64
625.373	13.74
625.705	13.97
626.038	13.85
626.37	13.78
626.703	14.01
627.035	13.63
627.368	14.25
627.7	14.11
628.032	13.85
628.365	14.14
628.697	14.14
629.029	13.91
629.361	14.25
629.693	14.17
630.025	14.39
630.357	14.2
630.689	14.17
631.021	14.17
631.353	14.1
631.684	14.35
632.016	14.05
632.348	13.94
632.679	14.39
633.011	14.47
633.342	14.07
633.674	14.41
634.005	14.53
634.336	14.47
634.668	14.47
634.999	14.45
635.33	14.24
635.661	14.6
635.992	14.48
636.323	14.78
636.654	14.56
636.985	14.48
637.316	14.64
637.647	14.73
637.977	14.63
638.308	14.98
638.639	14.64
638.969	14.6
639.3	14.9
639.63	14.59
639.961	14.92
640.291	14.68
640.622	14.66
640.952	15.21
641.282	14.37
641.612	15.28
641.943	15.02
642.273	14.68
642.603	14.99
642.933	15.61
643.263	15.37
643.592	15.65
643.922	15.44
644.252	15.08
644.582	15.29
644.911	15.4
645.241	15.09
645.571	15.42
645.9	15.37
646.23	15.56
646.559	15.23
646.888	15.55
647.218	14.84
647.547	15.83
647.876	14.68
648.205	14.76
648.534	15.23
648.863	15.31
649.192	15.74
649.521	15.65
649.85	15.15
650.179	16.12
650.508	15.27
650.837	15.57
651.165	15.94
651.494	15.59
651.822	15.54
652.151	15.57
652.479	15.88
652.808	15.46
653.136	15.25
653.465	15.45
653.793	16.12
654.121	15.96
654.449	15.98
654.777	15.25
655.105	15.17
655.433	15.96
655.761	15.77
656.089	15.45
656.417	16.13
656.745	16.61
657.073	16.21
657.4	15.91
657.728	15.53
658.056	15.59
658.383	16.03
658.711	16.41
659.038	16.23
659.365	16.72
659.693	16
660.02	15.78
660.347	16.09
660.674	16.32
661.001	16.02
661.329	16.1
661.656	15.87
661.982	16.06
662.309	16.25
662.636	16.67
662.963	16.49
663.29	16.03
663.616	16.34
663.943	16.74
664.27	16.2
664.596	16.36
664.923	16.84
665.249	16.62
665.576	16.17
665.902	15.92
666.228	16.88
666.554	17.02
666.881	16.08
667.207	17.48
667.533	16.64
667.859	16.76
668.185	16.19
668.511	16.68
668.837	16.91
669.162	16.77
669.488	15.99
669.814	17.02
670.139	15.93
670.465	16.72
670.791	16.99
671.116	16.49
671.442	16.32
671.767	16.91
672.092	16.99
672.418	16.89
672.743	17.05
673.068	16.95
673.393	16.54
673.718	16.31
674.043	16.85
674.368	16.85
674.693	16.86
675.018	17.79
675.343	17.56
675.667	16.92
675.992	17.13
676.317	16.5
676.641	17.19
676.966	17.34
677.29	17.18
677.615	17.06
677.939	17.3
678.264	17.49
678.588	18.11
678.912	16.76
679.236	17.08
679.56	17.37
679.885	17.11
680.209	17.52
680.532	17.69
680.856	17.75
681.18	17.96
681.504	17.29
681.828	17.45
682.152	17.53
682.475	17.58
682.799	17
683.122	17.39
683.446	17.23
683.769	17.6
684.093	17.69
684.416	17.61
684.739	17.85
685.062	17.36
685.386	17.66
685.709	17.94
686.032	18.25
686.355	17.41
686.678	17.99
687.001	18.41
687.324	17.9
687.646	18.08
687.969	17.76
688.292	17.33
688.614	18.19
688.937	18
689.26	18.09
689.582	18.08
689.904	18.38
690.227	17.73
690.549	18.55
690.871	17.61
691.194	17.76
691.516	18.37
691.838	18.82
692.16	17.73
692.482	18.06
692.804	18.17
693.126	17.33
693.448	18.58
693.769	18.35
694.091	18.41
694.413	17.89
694.735	18.78
695.056	18.45
695.378	18.97
695.699	18.71
696.021	17.97
696.342	18.56
696.663	18.95
696.984	18.08
697.306	17.93
697.627	19.14
697.948	18.33
698.269	19.59
698.59	18.35
698.911	18.64
699.232	19.13
699.553	18.98
699.873	18.84
700.194	19.17
700.515	18.51
700.835	18.63
701.156	19.48
701.477	18.43
701.797	18.75
702.117	18.52
702.438	18.6
702.758	18.65
703.078	18.23
703.398	18.13
703.719	19.13
704.039	19.28
704.359	18.98
704.679	18.99
704.999	18.84
705.319	18.84
705.638	19.15
705.958	18.35
706.278	18.54
706.597	19.29
706.917	18.9
707.237	18.96
707.556	20.06
707.876	18.97
708.195	20.01
708.514	19.33
708.834	18.93
709.153	19.28
709.472	20.9
709.791	19.31
710.11	19.13
710.429	19.1
710.748	20.48
711.067	19.63
711.386	19.32
711.705	19.8
712.023	20.14
712.342	19.84
712.661	20.64
712.979	20.14
713.298	21.12
713.616	19.34
713.935	19.95
714.253	20.05
714.572	18.88
714.89	19.33
715.208	20.09
715.526	19.08
715.844	19.88
716.162	20.19
716.48	19.14
716.798	19.73
717.116	19.92
717.434	19.19
717.752	20.02
718.069	19.75
718.387	20.06
718.705	20
719.022	20.19
719.34	19.52
719.657	20.32
719.975	19.4
720.292	20.03
720.609	18.7
720.927	19.58
721.244	20.81
721.561	18.26
721.878	19.77
722.195	21.11
722.512	21.19
722.829	20.32
723.146	20.69
723.463	19.87
723.779	19.48
724.096	19.61
724.413	20.23
724.729	20.13
725.046	20.61
725.362	20.32
725.679	19.83
725.995	19.37
726.311	20.68
726.628	19.65
726.944	21.06
727.26	20.01
727.576	22.35
727.892	20.07
728.208	20.21
728.524	20.06
728.84	19.92
729.156	19.96
729.472	19.38
729.787	20
730.103	21.24
730.419	20.37
730.734	19.85
731.05	20.58
731.365	20.26
731.681	20.99
731.996	21.08
732.311	19.98
732.626	21.01
732.942	20.9
733.257	20.59
733.572	20.57
733.887	21.67
734.202	21.08
734.517	20.66
734.832	20.29
735.146	21.01
735.461	20.74
735.776	21.93
736.091	21.22
736.405	20.51
736.72	20.45
737.034	21.89
737.349	20.75
737.663	23.11
737.977	21.95
738.292	20.52
738.606	20.86
738.92	22.37
739.234	20.2
739.548	21.15
739.862	20.67
740.176	20.69
740.49	20.54
740.804	21.23
741.117	20.71
741.431	21.26
741.745	20.58
742.058	21.05
742.372	20.94
742.685	21.78
742.999	21.95
743.312	20.96
743.626	23.25
743.939	20.34
744.252	20.53
744.565	22.63
744.878	20.17
745.191	21.72
745.505	21.31
745.817	21.78
746.13	22.33
746.443	21.46
746.756	19.87
747.069	21.87
747.381	21.72
747.694	23.1
748.007	21.79
748.319	20.76
748.632	22.1
748.944	20.26
749.256	23.3
749.569	21.65
749.881	21.48
750.193	22.8
750.505	21.35
750.817	21.24
751.129	20.82
751.441	21.56
751.753	23.32
752.065	23.24
752.377	22.05
752.689	21.12
753	23.19
753.312	20.9
753.624	21.7
753.935	21.55
754.247	22.66
754.558	22.64
754.869	25.18
755.181	21.61
755.492	20.63
755.803	23.07
756.114	19.95
756.425	21.66
756.736	22.96
757.047	22.88
757.358	21.29
757.669	21.26
757.98	21.42
758.291	22.2
758.601	22.43
758.912	21.6
759.223	23.34
759.533	22.79
759.844	22.09
760.154	23.12
760.464	23.24
760.775	23.11
761.085	23.46
761.395	22.42
761.705	21.54
762.016	22.42
762.326	23.07
762.636	22.42
762.945	21.67
763.255	21.43
763.565	21.83
763.875	21.67
764.185	23.72
764.494	21.91
764.804	21.04
765.113	21.47
765.423	23
765.732	22.9
766.042	23.55
766.351	23.49
766.66	22.22
766.97	22.36
767.279	22.52
767.588	21.62
767.897	21.4
768.206	22.02
768.515	22.78
768.824	22.56
769.133	21.12
769.441	21.76
769.75	20.4
770.059	22.11
770.367	22.57
770.676	21.36
770.984	18.14
771.293	20.85
771.601	20.71
771.91	22.72
772.218	24.44
772.526	21.84
772.834	20.85
773.142	21.57
773.45	22.79
773.758	24.94
774.066	22.47
774.374	24.12
774.682	22.38
774.99	19.21
775.298	23.56
775.605	22.3
775.913	22.89
776.22	20.78
776.528	20.27
776.835	22.44
777.143	26.75
777.45	19.67
777.757	22.5
778.065	23.33
778.372	22.89
778.679	23.39
778.986	24.99
779.293	22.95
779.6	24.36
779.907	23.89
780.214	24.08
780.52	24.53
780.827	26.19
781.134	24.38
781.44	24.01
781.747	24.47
782.053	22.73
782.36	24.63
782.666	22.44
782.973	24.21
783.279	29.2
783.585	25.99
783.891	22.44
784.197	22.05
784.503	22.81
784.809	25.16
785.115	24.27
785.421	27.18
785.727	23.28
786.033	22.28
786.339	24.29
786.644	16.71
786.95	22.49
787.255	22.51
787.561	24.5
787.866	23.07
788.172	24.56
788.477	22.73
788.782	20.38
789.088	20.48
789.393	22.27
789.698	19.37
790.003	24.82
790.308	24.14
790.613	22.78
790.918	23.24
791.223	26.22
791.527	25.56
791.832	26.12
792.137	25.34
792.441	20.92
792.746	25.47
793.05	24.69
793.355	24.78
793.659	23.72
793.963	20.3
794.268	23.52
794.572	18.32
794.876	18.85
795.18	22.74
795.484	25.3
795.788	22.74
796.092	21.17
796.396	19.55
796.7	25.72
797.004	21.62
797.307	24.25
797.611	23.42
797.915	22.11
798.218	25.73
798.522	18.46
798.825	26.5
799.128	23.33
799.432	20.85
799.735	21.13
800.038	21.77
800.341	27.13
800.644	21.17
800.947	22.67
801.25	22.52
801.553	25.2
801.856	25.41
802.159	21.33
802.462	20.76
802.764	26.8
803.067	24.49
803.37	24.54
803.672	21.41
803.975	19.27
804.277	21.96
804.579	23.44
804.882	26.37
805.184	26.12
805.486	26.2
805.788	24.87
806.09	20.39
806.392	22.52
806.694	24.17
806.996	27.06
807.298	22.33
807.6	26.98
807.902	20.57
808.203	22.52
808.505	21.35
808.807	26.94
809.108	23.7
809.409	26.29
809.711	19.56
810.012	24.09
810.313	27.9
810.615	21.58
810.916	25
811.217	22.4
811.518	19.51
811.819	21.42
812.12	27.47
812.421	21.05
812.722	23.71
813.023	23.11
813.323	24.68
813.624	29.13
813.925	18.85
814.225	26.34
814.526	17.51
814.826	21.03
815.126	23
815.427	18.78
815.727	30.46
816.027	25.87
816.327	28.19
816.627	23.61
816.927	21.89
817.227	17.17
817.527	19.95
817.827	21.47
818.127	20.69
818.427	23.44
818.727	20.9
819.026	21.6
819.326	19.16
819.625	21.96
819.925	24.2
820.224	28.44
820.524	26.64
820.823	26.34
821.122	18.9
821.421	20.09
821.72	22.64
822.019	17.21
822.318	22.21
822.617	27.72
822.916	23.94
823.215	24.1
823.514	26.36
823.813	24.8
824.111	24.23
824.41	26.37
824.709	27.01
825.007	26.1
825.306	27.01
825.604	26.39
825.902	26.52
826.201	26.43
826.499	26.17
826.797	26.19
827.095	26.42
827.393	26.98
827.691	25.87
827.989	23.95
828.287	28.31
828.585	26.12
828.882	24.55
829.18	25
829.478	26.2
829.775	27.51
830.073	27.29
830.37	25.23
830.668	27.75
830.965	27.62
831.263	26.21
831.56	26.23
831.857	26.37
832.154	23.64
832.451	24.94
832.748	25.74
833.045	26.72
833.342	24.32
833.639	21.6
833.936	20.4
834.232	23.72
834.529	19.41
834.826	27.52
835.122	25.93
835.419	26.33
835.715	21.76
836.012	27.86
836.308	30.32
836.604	25.83
836.901	21.69
837.197	26.86
837.493	27.32
837.789	24.85
838.085	22.84
838.381	28.28
838.677	26.97
838.972	24.34
839.268	29.56
839.564	29.89
839.86	21.34
840.155	33.75
840.451	26.09
840.746	25.35
841.042	16.01
841.337	20.57
841.632	29.96
841.928	27.73
842.223	23.9
842.518	26.38
842.813	23.1
843.108	22.63
843.403	21.46
843.698	17.42
843.993	22.82
844.287	20.55
844.582	22.88
844.877	18.8
845.171	27.19
845.466	12.42
845.761	27.98
846.055	28.66
846.349	26.38
846.644	22.22
846.938	37.66
847.232	21.72
847.526	29.13
847.82	20.04
848.114	24.14
848.408	11.82
848.702	25.22
848.996	29.37
849.29	46.32
849.584	6.41
849.877	17.33
850.171	21.63
850.465	7.32
850.758	-1.94
851.052	11.08
851.345	13.59
851.638	18.38
851.932	23.13
852.225	44.73
852.518	18.84
852.811	9.2
853.104	8.93
853.397	29.36
853.69	19.24
853.983	19.98
854.276	20.81
854.569	19.07
854.861	12.21
855.154	29.92
855.447	40.96
855.739	-16.12
856.032	24.3
856.324	9.64
856.616	14.35
856.909	-5.1
857.201	0.44
857.493	12.88
857.785	4.72
858.077	12.88
858.369	15.87
858.661	25.97
858.953	37.12
859.245	21.62
859.537	15.38
859.829	17.94
860.12	10.71
860.412	4.35
860.703	31.95
860.995	38.58
861.286	7.23
861.578	6.46
861.869	42.12
862.16	6.83
862.452	1.08
862.743	0.12
863.034	8.36
863.325	15.33
863.616	4.22
863.907	30.38
864.198	2.41
864.488	19.59
864.779	34.64
865.07	17.88
865.36	36.83
865.651	18.19
865.941	12.44
866.232	31.99
866.522	28.69
866.813	34.58
867.103	-7.23
867.393	39.03
867.683	19.48
867.973	25.59
868.263	-1.72
868.553	23.96
868.843	10.43
869.133	21.9
869.423	29.19
869.713	12.76
870.002	40.71
870.292	23.54
870.582	7.14
870.871	26.9
871.161	22.12
871.45	23.89
871.739	53.7
872.029	16.78
872.318	48.64
872.607	31.9
872.896	18.89
873.185	17.03
873.474	-5.26
873.763	41.38
874.052	12.2
874.341	16.41
874.63	24.63
874.918	17.98
875.207	-17.5
875.496	24.07
875.784	26.97
876.073	13.24
876.361	33.55
876.649	19.17
876.938	25.06
877.226	26.69
877.514	9.13
877.802	-15.86
878.09	33.75
878.378	33.18
878.666	42.51
878.954	40.67
879.242	34.63
879.53	27.75
879.817	17.84
880.105	46.47
880.392	11.89
880.68	23.71
880.967	-15.06
881.255	19.52
881.542	4.97
881.83	24.63
882.117	19.43
882.404	16.93
882.691	14.45
882.978	31.41
883.265	18.43
883.552	18.49
883.839	36.38
884.126	16.31
884.413	32.91
884.699	23.53
884.986	29.06
885.273	36.08
885.559	36.08
885.846	36.08
