Data from 22-4_chest_Reflection__2__198.txt Node

Date: Thu Dec 15 18:02:31 CST 2022
User: ToomeyLab
Spectrometer: FLMS14357
Trigger mode: 0
Integration Time (sec): 1.000000E-2
Scans to average: 100
Electric dark correction enabled: true
Nonlinearity correction enabled: false
Boxcar width: 0
XAxis mode: Wavelengths
Number of Pixels in Spectrum: 2048
>>>>>Begin Spectral Data<<<<<
189.047	-13.92
189.435	-13.92
189.823	-13.92
190.211	50.75
190.599	-5.83
190.987	-29.77
191.375	-11.04
191.763	77.15
192.151	137.39
192.538	-81.63
192.926	71.42
193.314	224.54
193.702	-68.32
194.089	-90.06
194.477	176.09
194.864	278.5
195.252	45.46
195.639	103.68
196.027	631.08
196.414	1389.57
196.801	148.12
197.189	99.48
197.576	-39.33
197.963	4.28
198.351	-7.54
198.738	-14.83
199.125	-65.71
199.512	-3.52
199.899	-14.36
200.286	-64.7
200.673	43.95
201.06	-13.91
201.447	10.3
201.833	-42.21
202.22	-15.28
202.607	-53.14
202.994	-21.14
203.38	-1.56
203.767	35
204.154	24.73
204.54	23.39
204.927	44.78
205.313	15.84
205.699	19.73
206.086	46.7
206.472	49.95
206.858	2.72
207.245	2.66
207.631	-14.74
208.017	2.76
208.403	-11.97
208.789	-41.11
209.175	-28.22
209.561	-110.86
209.947	1.63
210.333	-13.46
210.719	31.31
211.105	14.69
211.491	41.48
211.876	-32.46
212.262	-22.11
212.648	-10.18
213.034	-36.25
213.419	-5.34
213.805	-28.17
214.19	-14.44
214.576	-33.59
214.961	-6.49
215.346	-31.08
215.732	-11.41
216.117	9.1
216.502	-40.48
216.888	1.57
217.273	-28.6
217.658	0.1
218.043	-16.17
218.428	-16.06
218.813	13.8
219.198	-51.42
219.583	-31.44
219.968	6.81
220.353	-57.14
220.738	-3.05
221.122	-14.38
221.507	-4.68
221.892	-48.81
222.276	-55.11
222.661	-5.8
223.046	-7.47
223.43	11.26
223.815	-1.53
224.199	-1.76
224.583	-4.73
224.968	-5.72
225.352	-1.82
225.736	6.01
226.121	-9.58
226.505	-5.1
226.889	0.14
227.273	-4.12
227.657	5.14
228.041	4.07
228.425	-2.48
228.809	2.81
229.193	2.73
229.577	2.57
229.961	3.35
230.344	4.48
230.728	4.98
231.112	5.2
231.495	2.25
231.879	4.88
232.263	3.39
232.646	2.11
233.03	4.67
233.413	3.83
233.797	1.81
234.18	3.16
234.563	3.97
234.946	3.17
235.33	4.17
235.713	5.2
236.096	4.88
236.479	5.08
236.862	2.81
237.245	3.01
237.628	5.18
238.011	3.65
238.394	4.3
238.777	3.04
239.16	5.75
239.543	4.78
239.925	3.07
240.308	3.27
240.691	3.15
241.073	2.6
241.456	4.89
241.838	3.19
242.221	4.14
242.603	4.08
242.986	3.9
243.368	4.23
243.75	3.78
244.133	4.42
244.515	3.91
244.897	3.81
245.279	3.45
245.661	3.96
246.043	3.82
246.425	3.27
246.807	3.44
247.189	3.54
247.571	3.73
247.953	3.72
248.335	4.23
248.717	4.33
249.098	4.14
249.48	4.17
249.862	4.28
250.243	4.24
250.625	4.13
251.006	4.41
251.388	3.81
251.769	3.15
252.151	3.77
252.532	3.28
252.913	3.37
253.295	3.41
253.676	4.18
254.057	4.02
254.438	3.86
254.819	3.9
255.2	4.96
255.581	3.96
255.962	5.21
256.343	4.75
256.724	4.67
257.105	3.57
257.486	1.91
257.867	3.15
258.247	4.28
258.628	4.05
259.009	3.85
259.389	3.08
259.77	4.15
260.15	4.55
260.531	4.21
260.911	3.73
261.292	3.93
261.672	4.11
262.052	4.21
262.432	3.6
262.813	3.66
263.193	3.95
263.573	4.15
263.953	3.66
264.333	3.95
264.713	4.64
265.093	3.32
265.473	3.35
265.853	3.94
266.233	3.46
266.612	3.46
266.992	3.44
267.372	3.94
267.752	4.18
268.131	3.95
268.511	3.81
268.89	4.06
269.27	2.79
269.649	3.93
270.029	3.49
270.408	3.24
270.787	3.61
271.167	3.92
271.546	4.4
271.925	4.05
272.304	3.55
272.683	3.93
273.062	3.89
273.441	3.63
273.82	3.77
274.199	3.78
274.578	3.84
274.957	3.85
275.336	4.28
275.715	3.81
276.093	3.13
276.472	2.99
276.851	3.64
277.229	3.79
277.608	3.4
277.986	3.49
278.365	3.97
278.743	3.52
279.122	3.29
279.5	3.59
279.878	3.55
280.257	3.1
280.635	4.07
281.013	2.72
281.391	3.61
281.769	4.36
282.147	3.45
282.525	3.77
282.903	3.31
283.281	3.93
283.659	4.11
284.037	3.74
284.415	3.7
284.792	3.59
285.17	3.71
285.548	3.23
285.925	3.17
286.303	4.03
286.68	4.08
287.058	3.6
287.435	3.58
287.813	3.98
288.19	3.28
288.567	3.92
288.945	3.73
289.322	3.9
289.699	3.75
290.076	4.04
290.453	3.33
290.83	4.03
291.207	3.69
291.584	3.89
291.961	4.07
292.338	3.83
292.715	3.65
293.092	3.84
293.469	3.77
293.845	4.11
294.222	4.5
294.599	3.62
294.975	3.26
295.352	3.77
295.728	3.56
296.105	3.76
296.481	3.76
296.858	3.63
297.234	3.68
297.61	3.79
297.986	4.19
298.363	4.33
298.739	4.19
299.115	4.18
299.491	4.21
299.867	3.83
300.243	3.57
300.619	3.31
300.995	4.19
301.371	4.02
301.746	4.3
302.122	3.52
302.498	3.48
302.874	4.08
303.249	3.98
303.625	3.6
304	4.46
304.376	4.13
304.751	4.26
305.127	3.73
305.502	4.04
305.878	3.73
306.253	4.1
306.628	3.84
307.003	3.54
307.378	3.81
307.754	4.15
308.129	3.79
308.504	4.43
308.879	4.36
309.254	4.3
309.629	3.8
310.003	3.59
310.378	3.92
310.753	4.6
311.128	3.74
311.502	4.21
311.877	4.19
312.252	3.86
312.626	4.58
313.001	4.05
313.375	4.33
313.75	3.93
314.124	4.54
314.498	4.15
314.873	3.92
315.247	3.85
315.621	3.94
315.995	3.85
316.369	3.59
316.743	3.93
317.117	3.44
317.491	4.57
317.865	4.05
318.239	4.96
318.613	3.81
318.987	3.27
319.361	4.38
319.734	4.26
320.108	3.81
320.482	4.57
320.855	3.61
321.229	4.21
321.602	4.32
321.976	4.11
322.349	4.68
322.723	3.87
323.096	4.11
323.469	3.83
323.843	3.36
324.216	3.75
324.589	4.26
324.962	3.95
325.335	3.56
325.708	3.58
326.081	4.02
326.454	4.26
326.827	4.19
327.2	3.95
327.573	4.49
327.945	4.06
328.318	4.03
328.691	3.89
329.063	3.72
329.436	4.01
329.809	4.35
330.181	4.68
330.553	4.5
330.926	4.55
331.298	4.2
331.671	4.36
332.043	3.7
332.415	3.78
332.787	4.1
333.159	3.71
333.532	4.06
333.904	4.22
334.276	4.15
334.648	4.19
335.02	3.93
335.391	3.57
335.763	4.24
336.135	4.37
336.507	4.19
336.879	4.06
337.25	4.35
337.622	4.3
337.993	3.99
338.365	4.3
338.736	4.24
339.108	4.08
339.479	4.25
339.851	4.22
340.222	4.16
340.593	3.76
340.964	4.03
341.336	4.1
341.707	4
342.078	3.94
342.449	4.09
342.82	4.23
343.191	3.91
343.562	4.16
343.933	4.32
344.303	4.3
344.674	3.92
345.045	4.23
345.416	4.06
345.786	3.7
346.157	4.44
346.527	4.15
346.898	3.89
347.268	4.24
347.639	4.1
348.009	4.35
348.38	4.02
348.75	4.33
349.12	4.37
349.49	4.25
349.861	4.32
350.231	4.24
350.601	3.92
350.971	3.91
351.341	4.57
351.711	4.14
352.081	3.93
352.45	3.74
352.82	3.69
353.19	3.6
353.56	4.1
353.929	4.18
354.299	4.36
354.669	4.19
355.038	4.41
355.408	4.32
355.777	4.25
356.147	4.45
356.516	3.97
356.885	4.01
357.254	3.99
357.624	3.85
357.993	4.36
358.362	4.43
358.731	4.69
359.1	4.09
359.469	4.31
359.838	4.23
360.207	4.26
360.576	4.17
360.945	4.3
361.314	4.15
361.682	4.36
362.051	4.46
362.42	4.32
362.788	4.36
363.157	4.24
363.525	4.28
363.894	4.17
364.262	4.29
364.631	4.31
364.999	4.13
365.367	4.25
365.735	3.98
366.104	3.8
366.472	4.3
366.84	4.12
367.208	4.59
367.576	4.33
367.944	4.39
368.312	4.19
368.68	4.71
369.048	4.18
369.416	4.29
369.783	4.18
370.151	4.58
370.519	4.51
370.886	4.38
371.254	4.5
371.621	4.43
371.989	4.57
372.356	4.35
372.724	4.31
373.091	4.1
373.458	4.13
373.826	4.56
374.193	4.28
374.56	4.57
374.927	4.2
375.294	4.8
375.661	4.63
376.028	4.2
376.395	4.67
376.762	4.03
377.129	4.39
377.496	4.28
377.863	4.34
378.229	4.37
378.596	4.47
378.963	4.31
379.329	4.64
379.696	4.03
380.062	4.41
380.429	4.31
380.795	4.38
381.161	4.18
381.528	4.11
381.894	4.2
382.26	4.53
382.626	4.52
382.993	4.57
383.359	4.4
383.725	4.11
384.091	4.51
384.457	4.18
384.823	4.6
385.188	4.45
385.554	4.39
385.92	4.6
386.286	4.33
386.651	4.31
387.017	4.59
387.383	4.31
387.748	4.6
388.114	4.43
388.479	4.47
388.845	4.43
389.21	4.55
389.575	4.71
389.94	4.48
390.306	4.29
390.671	4.51
391.036	4.41
391.401	4.48
391.766	4.57
392.131	4.67
392.496	4.5
392.861	4.26
393.226	4.37
393.591	4.39
393.956	4.44
394.32	4.62
394.685	4.74
395.05	4.67
395.414	4.51
395.779	4.6
396.143	4.47
396.508	4.52
396.872	4.62
397.236	4.69
397.601	4.63
397.965	4.53
398.329	4.5
398.694	4.35
399.058	4.66
399.422	4.41
399.786	4.53
400.15	4.5
400.514	4.61
400.878	4.54
401.242	4.53
401.605	4.63
401.969	4.49
402.333	4.65
402.697	4.83
403.06	4.51
403.424	4.74
403.787	4.71
404.151	4.66
404.514	4.43
404.878	4.44
405.241	4.55
405.604	4.52
405.968	4.73
406.331	4.65
406.694	4.75
407.057	4.47
407.42	4.91
407.783	4.79
408.146	4.49
408.509	4.8
408.872	4.85
409.235	4.69
409.598	4.54
409.961	4.65
410.323	4.51
410.686	4.57
411.049	4.52
411.411	4.67
411.774	4.65
412.136	4.62
412.499	4.88
412.861	4.35
413.223	4.61
413.586	4.83
413.948	4.9
414.31	4.72
414.672	4.48
415.035	4.72
415.397	4.58
415.759	4.59
416.121	4.89
416.483	4.55
416.845	4.69
417.206	4.76
417.568	4.59
417.93	4.56
418.292	4.6
418.653	4.49
419.015	4.63
419.377	4.59
419.738	4.67
420.1	4.63
420.461	4.73
420.822	4.63
421.184	4.73
421.545	4.71
421.906	4.71
422.267	4.62
422.629	4.65
422.99	4.65
423.351	4.6
423.712	4.6
424.073	4.69
424.434	4.71
424.795	4.54
425.155	4.55
425.516	4.7
425.877	4.61
426.238	4.7
426.598	4.68
426.959	4.67
427.32	4.7
427.68	4.69
428.041	4.76
428.401	4.65
428.761	4.84
429.122	4.67
429.482	4.78
429.842	4.55
430.202	4.74
430.563	4.7
430.923	4.81
431.283	4.86
431.643	4.87
432.003	4.86
432.363	4.97
432.722	4.76
433.082	4.67
433.442	4.87
433.802	4.83
434.161	4.78
434.521	4.75
434.881	4.7
435.24	4.66
435.6	4.84
435.959	4.8
436.319	4.85
436.678	4.92
437.037	4.9
437.396	4.86
437.756	4.67
438.115	4.76
438.474	4.75
438.833	4.91
439.192	4.82
439.551	4.8
439.91	4.83
440.269	4.73
440.628	4.84
440.987	4.84
441.345	4.84
441.704	4.87
442.063	4.82
442.421	4.89
442.78	4.83
443.138	4.92
443.497	4.83
443.855	5.04
444.214	4.82
444.572	5
444.93	4.85
445.288	4.87
445.647	4.87
446.005	4.79
446.363	4.87
446.721	4.89
447.079	4.79
447.437	4.97
447.795	4.85
448.153	4.8
448.51	4.88
448.868	4.81
449.226	4.87
449.584	4.78
449.941	4.87
450.299	4.97
450.656	4.88
451.014	4.93
451.371	4.96
451.729	5.03
452.086	4.94
452.443	4.97
452.801	4.98
453.158	5.05
453.515	4.92
453.872	5.05
454.229	4.84
454.586	4.8
454.943	5.02
455.3	5.06
455.657	4.9
456.014	5.01
456.371	5.03
456.727	5.13
457.084	5.1
457.441	5.11
457.797	5.1
458.154	4.9
458.51	5.04
458.867	4.85
459.223	4.88
459.58	5.06
459.936	4.93
460.292	4.91
460.648	4.96
461.005	4.97
461.361	5.01
461.717	4.85
462.073	5.03
462.429	5.07
462.785	5.03
463.141	4.91
463.496	5.18
463.852	5.17
464.208	5.21
464.564	5.05
464.919	5.03
465.275	5.02
465.631	5.23
465.986	5.19
466.342	5.06
466.697	5.15
467.052	5.25
467.408	5.22
467.763	5.22
468.118	5.06
468.473	5.14
468.829	5.09
469.184	5.31
469.539	5.06
469.894	5.11
470.249	5.08
470.603	5.3
470.958	5.27
471.313	5.29
471.668	5.25
472.023	5.16
472.377	5.15
472.732	5.17
473.086	5.07
473.441	5.04
473.795	5.4
474.15	5.11
474.504	5.08
474.859	5.05
475.213	5.27
475.567	5.35
475.921	5.21
476.275	5.27
476.63	5.25
476.984	5.08
477.338	5.21
477.692	5.25
478.045	5.18
478.399	5.25
478.753	5.23
479.107	5.27
479.461	5.22
479.814	5.24
480.168	5.34
480.521	5.37
480.875	5.26
481.228	5.41
481.582	5.3
481.935	5.49
482.289	5.24
482.642	5.31
482.995	5.18
483.348	5.13
483.701	5.26
484.055	5.2
484.408	5.21
484.761	5.05
485.114	5.02
485.466	4.99
485.819	4.97
486.172	5.01
486.525	5.05
486.878	5.09
487.23	5.13
487.583	5.17
487.936	5.12
488.288	5.17
488.641	5.11
488.993	5.08
489.345	5.07
489.698	5.09
490.05	5.11
490.402	5.17
490.754	5.25
491.107	5.14
491.459	5.35
491.811	5.28
492.163	5.16
492.515	5.21
492.866	5.16
493.218	5.14
493.57	5.15
493.922	5.19
494.274	5.33
494.625	5.28
494.977	5.29
495.328	5.46
495.68	5.41
496.031	5.33
496.383	5.34
496.734	5.37
497.086	5.48
497.437	5.41
497.788	5.55
498.139	5.38
498.49	5.45
498.842	5.52
499.193	5.31
499.544	5.49
499.894	5.44
500.245	5.48
500.596	5.54
500.947	5.37
501.298	5.52
501.648	5.63
501.999	5.53
502.35	5.42
502.7	5.66
503.051	5.54
503.401	5.67
503.752	5.43
504.102	5.5
504.452	5.55
504.803	5.56
505.153	5.65
505.503	5.66
505.853	5.69
506.203	5.66
506.553	5.51
506.903	5.64
507.253	5.61
507.603	5.7
507.953	5.61
508.303	5.73
508.652	5.47
509.002	5.72
509.352	5.65
509.701	5.55
510.051	5.7
510.4	5.77
510.75	5.64
511.099	5.5
511.449	5.72
511.798	5.54
512.147	5.55
512.496	5.74
512.846	5.63
513.195	5.65
513.544	5.76
513.893	5.7
514.242	5.77
514.591	5.62
514.939	5.79
515.288	5.8
515.637	5.82
515.986	5.7
516.334	5.71
516.683	5.75
517.032	5.72
517.38	5.77
517.729	5.75
518.077	5.81
518.426	5.78
518.774	5.77
519.122	5.84
519.47	5.7
519.819	5.78
520.167	5.76
520.515	5.83
520.863	5.76
521.211	5.71
521.559	5.83
521.907	5.91
522.255	5.75
522.602	5.97
522.95	6.02
523.298	5.94
523.645	5.93
523.993	5.9
524.341	5.99
524.688	5.89
525.036	5.99
525.383	6.05
525.73	5.88
526.078	5.94
526.425	5.94
526.772	5.87
527.119	5.9
527.466	6.01
527.814	5.92
528.161	5.93
528.508	5.99
528.854	5.98
529.201	5.92
529.548	5.89
529.895	5.79
530.242	5.8
530.588	5.8
530.935	5.87
531.282	5.84
531.628	5.92
531.975	5.95
532.321	6
532.667	6.09
533.014	6.09
533.36	6.17
533.706	6.1
534.052	6.14
534.399	6.07
534.745	5.93
535.091	5.94
535.437	6.01
535.783	6.09
536.129	6.08
536.474	6.13
536.82	6.2
537.166	6.12
537.512	6.23
537.857	6.18
538.203	6.23
538.549	6.16
538.894	6.24
539.239	6.29
539.585	6.31
539.93	6.35
540.276	6.25
540.621	6.38
540.966	6.41
541.311	6.47
541.656	6.28
542.001	6.38
542.346	6.23
542.691	6.25
543.036	6.26
543.381	6.29
543.726	6.33
544.071	6.31
544.415	6.34
544.76	6.35
545.105	6.41
545.449	6.43
545.794	6.45
546.138	6.47
546.483	6.57
546.827	6.47
547.171	6.62
547.516	6.63
547.86	6.56
548.204	6.6
548.548	6.54
548.892	6.63
549.236	6.62
549.58	6.64
549.924	6.85
550.268	6.82
550.612	6.78
550.956	6.98
551.3	6.98
551.643	6.79
551.987	6.96
552.33	6.99
552.674	6.97
553.017	7.09
553.361	7.03
553.704	6.8
554.048	6.77
554.391	7.07
554.734	6.93
555.077	6.98
555.42	6.87
555.764	6.93
556.107	7.19
556.45	7.2
556.793	7.17
557.135	6.97
557.478	7.14
557.821	7.05
558.164	7.2
558.507	7.16
558.849	7.31
559.192	7.26
559.534	7.32
559.877	7.17
560.219	7.29
560.562	7.16
560.904	7.37
561.246	7.33
561.589	7.49
561.931	7.19
562.273	7.3
562.615	7.44
562.957	7.34
563.299	7.47
563.641	7.47
563.983	7.29
564.325	7.5
564.667	7.43
565.008	7.29
565.35	7.25
565.692	7.43
566.033	7.39
566.375	7.38
566.716	7.48
567.058	7.55
567.399	7.54
567.741	7.54
568.082	7.58
568.423	7.56
568.764	7.55
569.105	7.75
569.447	7.53
569.788	7.66
570.129	7.8
570.47	7.66
570.811	7.67
571.151	7.73
571.492	7.86
571.833	7.73
572.174	7.92
572.514	7.78
572.855	7.98
573.195	7.74
573.536	7.91
573.876	7.85
574.217	7.88
574.557	7.86
574.898	7.77
575.238	8.02
575.578	8.1
575.918	7.97
576.258	8.23
576.598	7.86
576.938	8.04
577.278	8.08
577.618	8.08
577.958	8.27
578.298	8.24
578.638	8.01
578.977	8.14
579.317	8.38
579.657	8.14
579.996	8.4
580.336	8.4
580.675	8.37
581.014	8.4
581.354	8.24
581.693	8.52
582.032	8.71
582.372	8.41
582.711	8.54
583.05	8.53
583.389	8.45
583.728	8.72
584.067	8.32
584.406	8.71
584.745	8.59
585.083	8.54
585.422	8.87
585.761	8.85
586.1	8.76
586.438	8.62
586.777	8.68
587.115	8.93
587.454	8.5
587.792	8.54
588.13	8.78
588.469	8.86
588.807	8.88
589.145	9.17
589.483	8.89
589.821	9.31
590.159	8.93
590.497	8.9
590.835	9.05
591.173	9.28
591.511	9.37
591.849	9
592.187	8.96
592.524	9.11
592.862	9.25
593.2	9.13
593.537	9.06
593.875	9.27
594.212	9.26
594.55	9.34
594.887	9.28
595.224	9.54
595.561	9.28
595.899	9.57
596.236	9.52
596.573	9.46
596.91	9.25
597.247	9.53
597.584	9.72
597.921	9.42
598.258	9.72
598.594	9.46
598.931	9.38
599.268	9.53
599.604	9.63
599.941	9.59
600.277	9.67
600.614	9.74
600.95	9.54
601.287	9.56
601.623	9.69
601.959	10.01
602.296	9.84
602.632	9.67
602.968	9.92
603.304	10
603.64	9.95
603.976	9.76
604.312	10.01
604.648	10.07
604.984	10.21
605.319	10.09
605.655	10.08
605.991	9.95
606.326	9.98
606.662	9.94
606.998	10.14
607.333	10.09
607.668	10.03
608.004	10.31
608.339	10.27
608.674	10.41
609.01	10.38
609.345	10.35
609.68	10.25
610.015	10.49
610.35	10.43
610.685	10.22
611.02	10.35
611.355	10.44
611.689	10.46
612.024	10.57
612.359	10.61
612.694	10.75
613.028	10.39
613.363	10.63
613.697	10.44
614.032	10.67
614.366	10.8
614.7	10.9
615.035	10.93
615.369	10.96
615.703	10.83
616.037	11.08
616.371	10.94
616.705	10.93
617.039	10.99
617.373	11.04
617.707	10.93
618.041	10.62
618.375	10.8
618.709	11.3
619.042	10.82
619.376	11.06
619.71	11.26
620.043	11.56
620.377	11.17
620.71	10.98
621.043	11.36
621.377	11.39
621.71	11.39
622.043	11.46
622.376	11.5
622.709	11.53
623.043	11.11
623.376	11.85
623.709	11.66
624.041	11.8
624.374	11.95
624.707	11.75
625.04	11.59
625.373	11.86
625.705	11.57
626.038	11.42
626.37	11.73
626.703	11.79
627.035	11.56
627.368	11.82
627.7	11.81
628.032	11.75
628.365	12.02
628.697	12.14
629.029	11.83
629.361	11.97
629.693	12.06
630.025	12.17
630.357	12.17
630.689	12.12
631.021	12.32
631.353	12.29
631.684	12.13
632.016	11.85
632.348	12.06
632.679	12.35
633.011	12.07
633.342	12.61
633.674	12.07
634.005	12.82
634.336	12.4
634.668	12.36
634.999	12.52
635.33	12.53
635.661	12.34
635.992	12.69
636.323	12.48
636.654	12.7
636.985	12.6
637.316	12.96
637.647	12.79
637.977	12.54
638.308	12.98
638.639	12.61
638.969	12.82
639.3	12.91
639.63	13.1
639.961	13.2
640.291	12.57
640.622	13.16
640.952	13.06
641.282	12.7
641.612	12.62
641.943	12.9
642.273	12.83
642.603	13.24
642.933	13.17
643.263	13.56
643.592	13.52
643.922	13.4
644.252	13.24
644.582	13.5
644.911	13.25
645.241	13.63
645.571	13.17
645.9	13.75
646.23	13.14
646.559	13.45
646.888	13.5
647.218	13.25
647.547	13.79
647.876	13.48
648.205	13.13
648.534	13.46
648.863	13.51
649.192	13.71
649.521	13.77
649.85	13.94
650.179	13.84
650.508	13.56
650.837	14.04
651.165	14.15
651.494	13.85
651.822	14.35
652.151	13.8
652.479	14.42
652.808	13.61
653.136	13.58
653.465	13.91
653.793	14.13
654.121	14.15
654.449	14.05
654.777	13.8
655.105	13.95
655.433	14.39
655.761	14.3
656.089	14.34
656.417	14.27
656.745	14.46
657.073	14.62
657.4	14.15
657.728	14.52
658.056	14.64
658.383	14.8
658.711	14.82
659.038	14.65
659.365	15.14
659.693	14.99
660.02	14.82
660.347	14.6
660.674	14.71
661.001	14.9
661.329	14.74
661.656	14.51
661.982	14.67
662.309	14.51
662.636	15.02
662.963	14.78
663.29	15.24
663.616	15.33
663.943	15.11
664.27	15.23
664.596	14.95
664.923	15.15
665.249	15.83
665.576	14.78
665.902	14.48
666.228	15.34
666.554	15.58
666.881	15
667.207	15.32
667.533	15.17
667.859	14.96
668.185	15.37
668.511	15.82
668.837	15.55
669.162	15.43
669.488	15.31
669.814	15.41
670.139	15.57
670.465	16
670.791	15.07
671.116	15.77
671.442	15.25
671.767	15.61
672.092	15.31
672.418	15.74
672.743	15.8
673.068	15.39
673.393	16.2
673.718	15.52
674.043	15.88
674.368	15.63
674.693	16.14
675.018	16.1
675.343	16.23
675.667	16.23
675.992	16.45
676.317	15.78
676.641	16.36
676.966	16.33
677.29	15.96
677.615	16.11
677.939	16.1
678.264	16.19
678.588	16.48
678.912	15.96
679.236	16.18
679.56	15.97
679.885	16.44
680.209	17.02
680.532	17.02
680.856	16.83
681.18	17.47
681.504	16.51
681.828	16.89
682.152	16.22
682.475	16.59
682.799	16.39
683.122	16.72
683.446	16.54
683.769	17.29
684.093	17.37
684.416	16.91
684.739	16.33
685.062	16.82
685.386	16.54
685.709	16.69
686.032	16.94
686.355	16.81
686.678	17.39
687.001	16.72
687.324	17.05
687.646	17.33
687.969	17.32
688.292	16.69
688.614	17.8
688.937	17.68
689.26	17.14
689.582	17.5
689.904	17.57
690.227	17.71
690.549	17.73
690.871	17.46
691.194	16.99
691.516	17.66
691.838	17.52
692.16	17.62
692.482	17.05
692.804	17.4
693.126	17.75
693.448	17.8
693.769	18.31
694.091	17.59
694.413	17.78
694.735	18.19
695.056	18.14
695.378	18.18
695.699	18.03
696.021	17.75
696.342	17.92
696.663	18.05
696.984	16.97
697.306	18.09
697.627	18.46
697.948	17.54
698.269	18.18
698.59	17.99
698.911	18.1
699.232	18.44
699.553	18.59
699.873	18.37
700.194	18.51
700.515	18.33
700.835	17.92
701.156	18.72
701.477	18.05
701.797	18.29
702.117	17.83
702.438	18.36
702.758	18.37
703.078	18.43
703.398	18.56
703.719	18.72
704.039	19.1
704.359	19.47
704.679	18.18
704.999	18.61
705.319	18.34
705.638	18.91
705.958	18.73
706.278	18.27
706.597	19.81
706.917	19.28
707.237	19.33
707.556	18.83
707.876	19.33
708.195	18.68
708.514	18.48
708.834	19.06
709.153	19.4
709.472	19.87
709.791	18.75
710.11	19.05
710.429	19
710.748	19.81
711.067	19.42
711.386	19.83
711.705	19.7
712.023	20.59
712.342	20.25
712.661	19.72
712.979	19.81
713.298	20.27
713.616	20.14
713.935	20.63
714.253	20.01
714.572	17.92
714.89	19.58
715.208	20.18
715.526	19.63
715.844	19.82
716.162	19.45
716.48	19.56
716.798	20.23
717.116	18.98
717.434	19.4
717.752	19.73
718.069	20.35
718.387	19.78
718.705	20.15
719.022	20.3
719.34	19.69
719.657	20.29
719.975	19.72
720.292	20.36
720.609	19.26
720.927	20.31
721.244	20.66
721.561	19.88
721.878	21.1
722.195	21.61
722.512	21.01
722.829	19.23
723.146	19.53
723.463	19.86
723.779	19.57
724.096	20.79
724.413	21.08
724.729	21.39
725.046	21.58
725.362	21.41
725.679	20.96
725.995	20.5
726.311	20.89
726.628	21.89
726.944	21.43
727.26	21.5
727.576	20.73
727.892	20.51
728.208	20.62
728.524	19.44
728.84	21.44
729.156	20.5
729.472	21.59
729.787	21.03
730.103	21.09
730.419	20.62
730.734	21.04
731.05	21.56
731.365	21.98
731.681	21.49
731.996	21.51
732.311	20.76
732.626	21.47
732.942	20.34
733.257	20.8
733.572	21.98
733.887	23.12
734.202	21.61
734.517	21.82
734.832	21.73
735.146	22.73
735.461	22.15
735.776	22.91
736.091	22.19
736.405	22.08
736.72	21.39
737.034	23
737.349	21.24
737.663	23.31
737.977	23.38
738.292	21.87
738.606	21.63
738.92	21.57
739.234	21.82
739.548	21.34
739.862	22.09
740.176	22.19
740.49	21.66
740.804	23.8
741.117	22.88
741.431	21.92
741.745	21.78
742.058	20.59
742.372	20.68
742.685	22.77
742.999	23.25
743.312	21.98
743.626	23.11
743.939	22.33
744.252	22.59
744.565	24.62
744.878	22.98
745.191	22.1
745.505	20.06
745.817	23.55
746.13	23.97
746.443	21.51
746.756	22
747.069	23.88
747.381	22.35
747.694	23.3
748.007	22.92
748.319	22.76
748.632	22.14
748.944	21.72
749.256	24.72
749.569	22.55
749.881	22.8
750.193	23.09
750.505	22.95
750.817	22.46
751.129	23.49
751.441	23.56
751.753	24.23
752.065	24.29
752.377	24.28
752.689	21.64
753	23.33
753.312	22.84
753.624	21.21
753.935	23.22
754.247	24.81
754.558	22.41
754.869	24.26
755.181	23.08
755.492	23.99
755.803	24.82
756.114	24.04
756.425	22.42
756.736	24.16
757.047	24.7
757.358	23.7
757.669	23.41
757.98	22.72
758.291	23.31
758.601	23.96
758.912	21.68
759.223	24.04
759.533	26.33
759.844	23.37
760.154	24.41
760.464	24.35
760.775	24.86
761.085	24.92
761.395	24.21
761.705	22.14
762.016	23.32
762.326	24.56
762.636	24.62
762.945	24.06
763.255	22.71
763.565	25.08
763.875	23.93
764.185	25.68
764.494	23.22
764.804	24.69
765.113	24.06
765.423	26.09
765.732	25.25
766.042	25.61
766.351	24.16
766.66	25.26
766.97	24.34
767.279	24.25
767.588	23.78
767.897	23.42
768.206	23.79
768.515	24.51
768.824	25.19
769.133	22.82
769.441	23.05
769.75	22.92
770.059	23.41
770.367	25.22
770.676	25.34
770.984	23.9
771.293	25.89
771.601	22.51
771.91	24.96
772.218	23.07
772.526	22.78
772.834	22.9
773.142	25.98
773.45	23.47
773.758	27.06
774.066	23.9
774.374	24.07
774.682	19.99
774.99	23.18
775.298	24.59
775.605	23.34
775.913	20.28
776.22	22.48
776.528	25.98
776.835	26.99
777.143	27.84
777.45	21.48
777.757	24.32
778.065	24.85
778.372	24.09
778.679	24.49
778.986	27.38
779.293	24.41
779.6	24.79
779.907	26.65
780.214	28.38
780.52	25.63
780.827	22.55
781.134	26.18
781.44	27.48
781.747	25.02
782.053	21.98
782.36	22.77
782.666	25.08
782.973	24.42
783.279	27.73
783.585	25.25
783.891	25.87
784.197	26.44
784.503	27.21
784.809	29.73
785.115	29.61
785.421	28.48
785.727	27.67
786.033	27.37
786.339	23.11
786.644	25.47
786.95	26.01
787.255	22.15
787.561	27.99
787.866	22.67
788.172	25.43
788.477	23.52
788.782	23.34
789.088	23.08
789.393	28.02
789.698	23.6
790.003	26.3
790.308	25.96
790.613	25.05
790.918	26.9
791.223	26.83
791.527	27.82
791.832	28.4
792.137	29.33
792.441	24.25
792.746	27.12
793.05	29.13
793.355	27.41
793.659	28.54
793.963	26.31
794.268	25.5
794.572	21.66
794.876	25.3
795.18	26.63
795.484	27.73
795.788	26.98
796.092	25.06
796.396	26.03
796.7	26.52
797.004	24.86
797.307	27.92
797.611	28.79
797.915	28.23
798.218	24.79
798.522	22.14
798.825	25.84
799.128	30.22
799.432	28.18
799.735	25.94
800.038	26.56
800.341	26.59
800.644	23.09
800.947	24.16
801.25	21.77
801.553	29.38
801.856	24.24
802.159	27.44
802.462	28.58
802.764	29.82
803.067	31.53
803.37	25.39
803.672	27.51
803.975	22.92
804.277	23.07
804.579	27.05
804.882	28.95
805.184	26.87
805.486	28.63
805.788	27.8
806.09	25.6
806.392	24.3
806.694	24.64
806.996	35.01
807.298	24.01
807.6	30.27
807.902	25.64
808.203	27.28
808.505	23.54
808.807	30.16
809.108	30.5
809.409	30.07
809.711	25.7
810.012	27.22
810.313	29.82
810.615	28.15
810.916	29.92
811.217	19.91
811.518	31.36
811.819	25.39
812.12	33.33
812.421	21.53
812.722	23.85
813.023	29.87
813.323	24.96
813.624	30.7
813.925	26.35
814.225	29.14
814.526	23.35
814.826	19.83
815.126	24.63
815.427	23.81
815.727	28.78
816.027	32.02
816.327	31.06
816.627	28
816.927	26.57
817.227	26.85
817.527	29.71
817.827	22.74
818.127	24.26
818.427	25.43
818.727	28.26
819.026	30.95
819.326	25.73
819.625	27.89
819.925	25.4
820.224	30.15
820.524	25.6
820.823	33.15
821.122	25.09
821.421	25.76
821.72	27.55
822.019	26.38
822.318	28.28
822.617	32.13
822.916	27.54
823.215	30.37
823.514	32.42
823.813	30.04
824.111	30.46
824.41	31.13
824.709	30.72
825.007	29.82
825.306	30.98
825.604	31.32
825.902	31.28
826.201	31.82
826.499	30.48
826.797	30.34
827.095	31.04
827.393	31.93
827.691	33.36
827.989	31.05
828.287	30.66
828.585	29.35
828.882	28.81
829.18	30.18
829.478	32.22
829.775	31.51
830.073	30.46
830.37	29.57
830.668	31.4
830.965	31.6
831.263	30.93
831.56	32.4
831.857	31.1
832.154	30.23
832.451	33.01
832.748	32.29
833.045	33.21
833.342	28.47
833.639	30.1
833.936	27.71
834.232	26.51
834.529	28.25
834.826	32.98
835.122	31.8
835.419	32.08
835.715	27.66
836.012	28.87
836.308	33.56
836.604	29.89
836.901	29.84
837.197	30.46
837.493	33.84
837.789	27.65
838.085	24.1
838.381	30.3
838.677	32.58
838.972	28.72
839.268	30.21
839.564	33.66
839.86	32.87
840.155	40.04
840.451	31.02
840.746	24.48
841.042	33.1
841.337	22.97
841.632	30.85
841.928	31.62
842.223	25.64
842.518	31.72
842.813	26.02
843.108	25.92
843.403	28.59
843.698	27.76
843.993	31.58
844.287	28.96
844.582	23.23
844.877	30.12
845.171	34.48
845.466	22.89
845.761	20.36
846.055	41.45
846.349	41.33
846.644	37.69
846.938	45.84
847.232	38.89
847.526	27.27
847.82	28.97
848.114	17.83
848.408	16.72
848.702	45.55
848.996	33.89
849.29	28.15
849.584	20.01
849.877	26.86
850.171	13.74
850.465	34.17
850.758	18.26
851.052	22
851.345	32.24
851.638	23.48
851.932	29.78
852.225	34.64
852.518	30.3
852.811	17
853.104	26
853.397	31.17
853.69	23.52
853.983	11.59
854.276	30.35
854.569	9.3
854.861	33.44
855.154	41.43
855.447	22.43
855.739	4.63
856.032	24.95
856.324	20.49
856.616	20.95
856.909	26.15
857.201	9.42
857.493	26.96
857.785	21.04
858.077	20.92
858.369	36.38
858.661	43.36
858.953	24.7
859.245	33.43
859.537	13.02
859.829	18.35
860.12	21.4
860.412	11.34
860.703	6.51
860.995	30.48
861.286	7.04
861.578	24.55
861.869	31.63
862.16	20.11
862.452	1.09
862.743	27.94
863.034	9.39
863.325	34.73
863.616	26.53
863.907	22.67
864.198	14.6
864.488	35.21
864.779	27.99
865.07	48.85
865.36	26.02
865.651	49.4
865.941	31.35
866.232	43.68
866.522	19.37
866.813	15.13
867.103	19.52
867.393	31.09
867.683	25.84
867.973	3.1
868.263	18.33
868.553	15.74
868.843	16.95
869.133	11.31
869.423	13.25
869.713	7.25
870.002	43.35
870.292	21.3
870.582	7.4
870.871	17.92
871.161	22.64
871.45	9.64
871.739	56.42
872.029	13.75
872.318	33.36
872.607	38.2
872.896	20.49
873.185	14.38
873.474	-26.89
873.763	36.39
874.052	23.21
874.341	39.22
874.63	39.14
874.918	39.09
875.207	32.92
875.496	42.9
875.784	-1.19
876.073	19
876.361	20.2
876.649	-0.12
876.938	-0.32
877.226	29.59
877.514	24.12
877.802	14.18
878.09	26.42
878.378	35.68
878.666	49.43
878.954	31.08
879.242	17.96
879.53	29.09
879.817	4.41
880.105	43.37
880.392	23.38
880.68	22.07
880.967	28.91
881.255	37.72
881.542	16.55
881.83	27.39
882.117	14.23
882.404	7.96
882.691	37.41
882.978	17.93
883.265	23.69
883.552	30.45
883.839	32.66
884.126	18.65
884.413	37.48
884.699	30.24
884.986	32.12
885.273	35.82
885.559	35.82
885.846	35.82
