Data from 0016_chest_Reflection__0__50.txt Node

Date: Mon Oct 17 14:49:28 CDT 2022
User: ToomeyLab
Spectrometer: FLMS14357
Trigger mode: 0
Integration Time (sec): 1.000000E-2
Scans to average: 100
Electric dark correction enabled: true
Nonlinearity correction enabled: false
Boxcar width: 0
XAxis mode: Wavelengths
Number of Pixels in Spectrum: 2048
>>>>>Begin Spectral Data<<<<<
189.047	274.66
189.435	274.66
189.823	274.66
190.211	172.78
190.599	-45.73
190.987	213.7
191.375	167.6
191.763	-354.31
192.151	-55.92
192.538	102.39
192.926	57.58
193.314	80.02
193.702	57.89
194.089	299.82
194.477	-1739.18
194.864	-31.21
195.252	286.44
195.639	80.88
196.027	299.34
196.414	189.4
196.801	23.06
197.189	26.66
197.576	81.38
197.963	-61.43
198.351	-76.83
198.738	10.02
199.125	-71.67
199.512	-47.58
199.899	44.88
200.286	10.14
200.673	14.83
201.06	-81.03
201.447	35.21
201.833	66.98
202.22	26.12
202.607	-43.43
202.994	-31.88
203.38	-5
203.767	-4.9
204.154	81.52
204.54	-30.44
204.927	14.42
205.313	-5.46
205.699	9.19
206.086	1.01
206.472	-13.02
206.858	-9.21
207.245	0.93
207.631	7.84
208.017	30.87
208.403	21.22
208.789	27.89
209.175	22.06
209.561	-113.09
209.947	-10.93
210.333	15.7
210.719	22.08
211.105	40.91
211.491	6.37
211.876	-5.81
212.262	36.91
212.648	6.29
213.034	-15.97
213.419	8.53
213.805	-61.87
214.19	11.38
214.576	-8.37
214.961	-15.06
215.346	-23.38
215.732	-17.7
216.117	-5.92
216.502	20.12
216.888	25.72
217.273	0.41
217.658	14.07
218.043	10.38
218.428	-7.96
218.813	7.57
219.198	5.75
219.583	-10.94
219.968	-2.7
220.353	6.36
220.738	-25.67
221.122	-0.74
221.507	8.09
221.892	-7.74
222.276	-11.18
222.661	11.73
223.046	6.13
223.43	5.69
223.815	-6.78
224.199	8.75
224.583	-10.18
224.968	-2.13
225.352	-3.17
225.736	5.39
226.121	-4.54
226.505	-4.19
226.889	0.68
227.273	-0.52
227.657	5.8
228.041	5.3
228.425	-1.28
228.809	4.15
229.193	3.08
229.577	2.99
229.961	4.47
230.344	2.64
230.728	3.07
231.112	2.7
231.495	3.44
231.879	4.06
232.263	3.89
232.646	3.28
233.03	2.67
233.413	1.5
233.797	3.78
234.18	2.74
234.563	0.89
234.946	4.97
235.33	1.75
235.713	1.8
236.096	3.78
236.479	1.45
236.862	2.8
237.245	3.82
237.628	1.32
238.011	2.41
238.394	4.22
238.777	4.21
239.16	3.67
239.543	3.44
239.925	3.43
240.308	4.22
240.691	1.94
241.073	2.63
241.456	2.53
241.838	2.79
242.221	2.06
242.603	2.83
242.986	2.59
243.368	3.25
243.75	3.13
244.133	2.93
244.515	3.03
244.897	3.65
245.279	3.23
245.661	4.56
246.043	2.91
246.425	1.66
246.807	2.51
247.189	2.69
247.571	3.16
247.953	2.72
248.335	2.83
248.717	3.12
249.098	3.07
249.48	2.96
249.862	2.64
250.243	2.73
250.625	3.09
251.006	2.7
251.388	3.29
251.769	3.18
252.151	2.04
252.532	2.98
252.913	2.7
253.295	2.16
253.676	2.99
254.057	3.13
254.438	2.78
254.819	3.69
255.2	2.89
255.581	3.21
255.962	1.36
256.343	2.73
256.724	2.13
257.105	2.41
257.486	2.71
257.867	1.93
258.247	2.33
258.628	3.39
259.009	2.77
259.389	2.85
259.77	2.98
260.15	2.57
260.531	2.52
260.911	2.64
261.292	2.83
261.672	2.71
262.052	2.67
262.432	2.73
262.813	2.73
263.193	2.99
263.573	2.79
263.953	2.82
264.333	2.43
264.713	2.35
265.093	2.78
265.473	2.77
265.853	2.52
266.233	3.8
266.612	2.21
266.992	3.03
267.372	2.69
267.752	2.84
268.131	2.62
268.511	3.13
268.89	3.01
269.27	2.55
269.649	2.67
270.029	2.67
270.408	2.75
270.787	2.59
271.167	2.67
271.546	2.64
271.925	2.75
272.304	2.63
272.683	2.62
273.062	2.86
273.441	2.59
273.82	2.72
274.199	2.95
274.578	2.67
274.957	2.61
275.336	2.36
275.715	2.52
276.093	2.92
276.472	2.41
276.851	2.73
277.229	2.15
277.608	2.68
277.986	2.28
278.365	2.77
278.743	3.17
279.122	2.96
279.5	3.03
279.878	2.77
280.257	2.78
280.635	2.61
281.013	2.45
281.391	2.47
281.769	2.77
282.147	2.96
282.525	2.5
282.903	2.47
283.281	2.41
283.659	2.45
284.037	2.24
284.415	2.63
284.792	2.91
285.17	1.95
285.548	2.27
285.925	3.07
286.303	2.56
286.68	2.89
287.058	2.99
287.435	2.66
287.813	2.58
288.19	2.56
288.567	2.27
288.945	2.54
289.322	2.92
289.699	2.36
290.076	2.68
290.453	2.42
290.83	2.8
291.207	2.77
291.584	2.55
291.961	2.55
292.338	3.15
292.715	2.76
293.092	2.79
293.469	2.94
293.845	2.74
294.222	2.84
294.599	2.88
294.975	2.49
295.352	2.47
295.728	2.56
296.105	2.72
296.481	2.79
296.858	2.91
297.234	2.67
297.61	2.52
297.986	2.41
298.363	2.63
298.739	2.75
299.115	2.63
299.491	2.94
299.867	2.48
300.243	2.76
300.619	2.46
300.995	2.73
301.371	2.54
301.746	2.14
302.122	2.17
302.498	2.92
302.874	2.94
303.249	2.56
303.625	2.86
304	2.93
304.376	3.01
304.751	2.9
305.127	2.66
305.502	2.45
305.878	2.86
306.253	2.47
306.628	2.59
307.003	2.49
307.378	2.79
307.754	2.46
308.129	2.56
308.504	3.02
308.879	3.01
309.254	2.72
309.629	2.59
310.003	3.23
310.378	3.14
310.753	3.04
311.128	2.44
311.502	2.97
311.877	3
312.252	3
312.626	2.33
313.001	2.77
313.375	2.47
313.75	2.51
314.124	2.57
314.498	2.77
314.873	2.25
315.247	2.76
315.621	3.22
315.995	2.18
316.369	2.71
316.743	2.8
317.117	3.07
317.491	2.78
317.865	3.14
318.239	2.89
318.613	3.08
318.987	2.34
319.361	2.54
319.734	3.5
320.108	2.4
320.482	2.22
320.855	2.11
321.229	2.4
321.602	3.03
321.976	2.62
322.349	3.05
322.723	2.88
323.096	2.87
323.469	2.57
323.843	2.49
324.216	2.6
324.589	2.31
324.962	2.68
325.335	2.76
325.708	2.72
326.081	2.53
326.454	3.06
326.827	2.28
327.2	2.41
327.573	2.79
327.945	2.41
328.318	2.54
328.691	2.64
329.063	2.95
329.436	2.27
329.809	2.63
330.181	2.83
330.553	2.62
330.926	2.79
331.298	2.62
331.671	3.12
332.043	2.92
332.415	3.14
332.787	2.76
333.159	3.04
333.532	2.85
333.904	2.7
334.276	2.83
334.648	2.56
335.02	2.81
335.391	2.75
335.763	3.03
336.135	2.38
336.507	2.95
336.879	2.97
337.25	3.58
337.622	2.61
337.993	2.68
338.365	2.48
338.736	2.56
339.108	3.09
339.479	2.45
339.851	2.59
340.222	2.46
340.593	2.61
340.964	2.58
341.336	2.9
341.707	3.07
342.078	3.03
342.449	2.85
342.82	2.95
343.191	3.01
343.562	2.82
343.933	2.66
344.303	2.53
344.674	3.45
345.045	2.95
345.416	3.17
345.786	2.98
346.157	2.87
346.527	2.36
346.898	2.89
347.268	3.25
347.639	2.5
348.009	2.91
348.38	2.93
348.75	2.82
349.12	2.9
349.49	2.53
349.861	3.01
350.231	2.97
350.601	2.67
350.971	2.57
351.341	2.7
351.711	2.23
352.081	2.59
352.45	3.13
352.82	2.82
353.19	2.79
353.56	2.65
353.929	2.77
354.299	2.73
354.669	3.2
355.038	3.14
355.408	2.66
355.777	2.96
356.147	2.74
356.516	3.16
356.885	2.98
357.254	3.05
357.624	3.19
357.993	3.05
358.362	2.69
358.731	2.68
359.1	2.81
359.469	2.91
359.838	3
360.207	2.84
360.576	2.77
360.945	2.68
361.314	2.6
361.682	2.95
362.051	3.09
362.42	2.87
362.788	2.93
363.157	2.96
363.525	2.75
363.894	2.91
364.262	2.79
364.631	2.85
364.999	2.88
365.367	2.68
365.735	3.06
366.104	2.91
366.472	3.04
366.84	2.83
367.208	2.96
367.576	2.78
367.944	2.62
368.312	2.73
368.68	2.81
369.048	2.78
369.416	2.87
369.783	3.07
370.151	2.74
370.519	3.16
370.886	3.13
371.254	2.96
371.621	2.83
371.989	2.95
372.356	2.82
372.724	2.93
373.091	2.97
373.458	2.81
373.826	2.71
374.193	3.12
374.56	2.86
374.927	3.08
375.294	2.87
375.661	2.85
376.028	3.15
376.395	2.71
376.762	2.93
377.129	2.89
377.496	2.66
377.863	2.5
378.229	2.9
378.596	2.76
378.963	2.85
379.329	2.99
379.696	2.74
380.062	3.08
380.429	2.63
380.795	3.21
381.161	3.25
381.528	3.02
381.894	2.75
382.26	2.88
382.626	3.06
382.993	3.1
383.359	2.96
383.725	2.92
384.091	3.08
384.457	2.91
384.823	2.83
385.188	2.61
385.554	2.82
385.92	2.95
386.286	3.03
386.651	2.93
387.017	2.66
387.383	2.86
387.748	2.78
388.114	2.6
388.479	2.92
388.845	3.06
389.21	2.94
389.575	2.95
389.94	3.15
390.306	3.13
390.671	3.26
391.036	3.1
391.401	2.94
391.766	2.93
392.131	3.05
392.496	2.88
392.861	2.87
393.226	2.96
393.591	3
393.956	3.02
394.32	2.94
394.685	2.88
395.05	3.11
395.414	3.28
395.779	2.93
396.143	3.11
396.508	2.93
396.872	3.02
397.236	2.86
397.601	2.94
397.965	2.99
398.329	3.03
398.694	3.06
399.058	2.93
399.422	3.06
399.786	3.11
400.15	3.21
400.514	2.79
400.878	2.84
401.242	2.89
401.605	3.13
401.969	2.98
402.333	3.16
402.697	2.9
403.06	2.91
403.424	2.99
403.787	2.88
404.151	3.05
404.514	3.07
404.878	2.9
405.241	2.99
405.604	2.97
405.968	3.22
406.331	2.87
406.694	2.99
407.057	3.01
407.42	2.88
407.783	3.28
408.146	3.15
408.509	3.19
408.872	2.97
409.235	2.95
409.598	3.11
409.961	2.96
410.323	3.22
410.686	2.97
411.049	2.87
411.411	3.32
411.774	3.11
412.136	3.09
412.499	3.32
412.861	3.21
413.223	2.98
413.586	3.09
413.948	3.14
414.31	2.9
414.672	3.1
415.035	3.1
415.397	3.18
415.759	3.23
416.121	2.88
416.483	3.33
416.845	3.06
417.206	2.92
417.568	3.03
417.93	2.96
418.292	3.11
418.653	2.9
419.015	2.99
419.377	3.02
419.738	2.89
420.1	3.09
420.461	2.94
420.822	3.02
421.184	3.06
421.545	3.09
421.906	3.05
422.267	3.08
422.629	3.02
422.99	3.01
423.351	3.01
423.712	3.06
424.073	3.1
424.434	2.95
424.795	3.03
425.155	3.08
425.516	2.9
425.877	2.9
426.238	2.93
426.598	3.03
426.959	3.06
427.32	3
427.68	3.01
428.041	2.9
428.401	3.15
428.761	3.12
429.122	3.19
429.482	3.1
429.842	3.1
430.202	3.26
430.563	3.06
430.923	3.33
431.283	3.16
431.643	3.21
432.003	3.12
432.363	3.31
432.722	3.06
433.082	3.18
433.442	3.22
433.802	3.01
434.161	3.09
434.521	3.23
434.881	3.11
435.24	2.98
435.6	3.2
435.959	3.12
436.319	3.26
436.678	3
437.037	3.06
437.396	3.21
437.756	3.27
438.115	3.04
438.474	2.87
438.833	3.06
439.192	3.11
439.551	3.02
439.91	3.17
440.269	3.07
440.628	3.04
440.987	3.05
441.345	3.02
441.704	3.15
442.063	2.97
442.421	3.12
442.78	3.06
443.138	3.1
443.497	3.15
443.855	3.21
444.214	3.16
444.572	3.08
444.93	3.24
445.288	3.22
445.647	3.02
446.005	3.26
446.363	3.13
446.721	3.22
447.079	3.07
447.437	3.07
447.795	3.13
448.153	3.13
448.51	3.09
448.868	3.17
449.226	3.08
449.584	3.18
449.941	3.08
450.299	3.28
450.656	3.17
451.014	3.16
451.371	3.34
451.729	3.14
452.086	3.19
452.443	3.29
452.801	3.3
453.158	3.3
453.515	3.14
453.872	3.33
454.229	3.08
454.586	3.1
454.943	3.08
455.3	3.14
455.657	3.21
456.014	3.25
456.371	3.21
456.727	3.2
457.084	3.13
457.441	3.36
457.797	3.24
458.154	3.28
458.51	3.37
458.867	3.27
459.223	3.35
459.58	3.21
459.936	3.19
460.292	3.29
460.648	3.22
461.005	3.2
461.361	3.23
461.717	3.2
462.073	3.16
462.429	3.19
462.785	3.3
463.141	3.35
463.496	3.13
463.852	3.33
464.208	3.46
464.564	3.22
464.919	3.38
465.275	3.04
465.631	3.29
465.986	3.12
466.342	3.32
466.697	3.41
467.052	3.29
467.408	3.22
467.763	3.14
468.118	3.29
468.473	3.44
468.829	3.34
469.184	3.39
469.539	3.21
469.894	3.21
470.249	3.41
470.603	3.31
470.958	3.38
471.313	3.08
471.668	3.37
472.023	3.17
472.377	3.45
472.732	3.27
473.086	3.37
473.441	3.2
473.795	3.17
474.15	3.3
474.504	3.36
474.859	3.27
475.213	3.5
475.567	3.47
475.921	3.2
476.275	3.4
476.63	3.32
476.984	3.29
477.338	3.39
477.692	3.43
478.045	3.5
478.399	3.38
478.753	3.38
479.107	3.22
479.461	3.3
479.814	3.35
480.168	3.3
480.521	3.2
480.875	3.39
481.228	3.46
481.582	3.53
481.935	3.45
482.289	3.32
482.642	3.42
482.995	3.44
483.348	3.39
483.701	3.33
484.055	3.29
484.408	3.39
484.761	3.25
485.114	3.14
485.466	3.12
485.819	3.1
486.172	3.14
486.525	3.23
486.878	3.29
487.23	3.32
487.583	3.37
487.936	3.39
488.288	3.31
488.641	3.21
488.993	3.2
489.345	3.18
489.698	3.24
490.05	3.26
490.402	3.2
490.754	3.37
491.107	3.34
491.459	3.43
491.811	3.54
492.163	3.43
492.515	3.36
492.866	3.29
493.218	3.24
493.57	3.31
493.922	3.31
494.274	3.41
494.625	3.49
494.977	3.44
495.328	3.46
495.68	3.47
496.031	3.47
496.383	3.47
496.734	3.45
497.086	3.38
497.437	3.41
497.788	3.45
498.139	3.45
498.49	3.54
498.842	3.49
499.193	3.4
499.544	3.49
499.894	3.45
500.245	3.52
500.596	3.52
500.947	3.61
501.298	3.58
501.648	3.54
501.999	3.48
502.35	3.51
502.7	3.61
503.051	3.73
503.401	3.58
503.752	3.71
504.102	3.55
504.452	3.51
504.803	3.6
505.153	3.56
505.503	3.62
505.853	3.63
506.203	3.69
506.553	3.67
506.903	3.57
507.253	3.52
507.603	3.61
507.953	3.62
508.303	3.61
508.652	3.65
509.002	3.66
509.352	3.56
509.701	3.52
510.051	3.65
510.4	3.5
510.75	3.61
511.099	3.59
511.449	3.57
511.798	3.67
512.147	3.67
512.496	3.66
512.846	3.63
513.195	3.59
513.544	3.68
513.893	3.69
514.242	3.75
514.591	3.73
514.939	3.66
515.288	3.69
515.637	3.79
515.986	3.78
516.334	3.74
516.683	3.73
517.032	3.69
517.38	3.63
517.729	3.7
518.077	3.74
518.426	3.65
518.774	3.77
519.122	3.72
519.47	3.74
519.819	3.81
520.167	3.7
520.515	3.65
520.863	3.74
521.211	3.78
521.559	3.68
521.907	3.91
522.255	3.76
522.602	3.83
522.95	3.88
523.298	3.79
523.645	3.8
523.993	3.8
524.341	3.93
524.688	3.74
525.036	3.9
525.383	3.85
525.73	3.79
526.078	3.87
526.425	3.76
526.772	3.81
527.119	3.82
527.466	3.7
527.814	3.79
528.161	3.87
528.508	3.91
528.854	3.82
529.201	3.86
529.548	3.75
529.895	3.72
530.242	3.67
530.588	3.65
530.935	3.7
531.282	3.78
531.628	3.83
531.975	3.86
532.321	3.88
532.667	4.01
533.014	3.98
533.36	3.91
533.706	4
534.052	3.95
534.399	3.93
534.745	3.84
535.091	3.85
535.437	3.94
535.783	3.98
536.129	4.04
536.474	4.14
536.82	4.1
537.166	4.16
537.512	4.05
537.857	4.09
538.203	3.99
538.549	3.97
538.894	4.03
539.239	4.1
539.585	4.14
539.93	4.04
540.276	4.14
540.621	4.18
540.966	4.13
541.311	4.12
541.656	4.11
542.001	4.15
542.346	4.2
542.691	4.06
543.036	3.94
543.381	4.02
543.726	4.09
544.071	4.13
544.415	4.15
544.76	4.23
545.105	4.17
545.449	4.27
545.794	4.25
546.138	4.31
546.483	4.22
546.827	4.4
547.171	4.27
547.516	4.32
547.86	4.3
548.204	4.36
548.548	4.36
548.892	4.38
549.236	4.38
549.58	4.43
549.924	4.45
550.268	4.6
550.612	4.47
550.956	4.58
551.3	4.51
551.643	4.65
551.987	4.53
552.33	4.53
552.674	4.59
553.017	4.62
553.361	4.75
553.704	4.47
554.048	4.45
554.391	4.63
554.734	4.47
555.077	4.61
555.42	4.76
555.764	4.64
556.107	4.63
556.45	4.58
556.793	4.7
557.135	4.92
557.478	4.76
557.821	4.9
558.164	4.65
558.507	4.67
558.849	4.91
559.192	4.72
559.534	4.86
559.877	4.69
560.219	4.74
560.562	4.61
560.904	4.9
561.246	4.75
561.589	4.99
561.931	4.93
562.273	5.01
562.615	4.74
562.957	4.9
563.299	4.92
563.641	4.98
563.983	4.85
564.325	5.2
564.667	4.99
565.008	5.12
565.35	5.01
565.692	5.18
566.033	5.12
566.375	5
566.716	4.96
567.058	4.97
567.399	4.9
567.741	4.99
568.082	5.12
568.423	5.09
568.764	5.25
569.105	5.1
569.447	5.08
569.788	5.25
570.129	5.32
570.47	5.18
570.811	5.3
571.151	5.28
571.492	5.29
571.833	5.24
572.174	5.37
572.514	5.32
572.855	5.25
573.195	5.21
573.536	5.23
573.876	5.23
574.217	5.38
574.557	5.28
574.898	5.26
575.238	5.38
575.578	5.47
575.918	5.46
576.258	5.5
576.598	5.47
576.938	5.54
577.278	5.49
577.618	5.53
577.958	5.53
578.298	5.68
578.638	5.64
578.977	5.7
579.317	5.49
579.657	5.65
579.996	5.58
580.336	5.85
580.675	5.69
581.014	5.66
581.354	5.76
581.693	5.71
582.032	5.66
582.372	5.76
582.711	5.71
583.05	5.82
583.389	5.73
583.728	6.01
584.067	5.88
584.406	5.78
584.745	5.96
585.083	5.93
585.422	5.9
585.761	5.95
586.1	6.15
586.438	6.07
586.777	6.15
587.115	6.08
587.454	6.08
587.792	6.26
588.13	5.94
588.469	6.27
588.807	6.28
589.145	6.33
589.483	6.13
589.821	6.2
590.159	6.22
590.497	6.21
590.835	6.24
591.173	6.3
591.511	6.29
591.849	6.26
592.187	6.31
592.524	6.26
592.862	6.45
593.2	6.46
593.537	6.44
593.875	6.34
594.212	6.65
594.55	6.45
594.887	6.5
595.224	6.45
595.561	6.36
595.899	6.8
596.236	6.68
596.573	6.6
596.91	6.51
597.247	7.06
597.584	6.7
597.921	6.88
598.258	6.63
598.594	6.69
598.931	6.57
599.268	6.68
599.604	6.71
599.941	6.99
600.277	6.99
600.614	6.84
600.95	6.91
601.287	6.83
601.623	6.94
601.959	7.03
602.296	7.14
602.632	6.96
602.968	7.04
603.304	7.1
603.64	6.88
603.976	6.94
604.312	7.23
604.648	6.94
604.984	7.07
605.319	6.99
605.655	7.32
605.991	7.36
606.326	7.22
606.662	7.16
606.998	7.21
607.333	7.5
607.668	7.36
608.004	7.31
608.339	7.36
608.674	7.36
609.01	7.65
609.345	7.63
609.68	7.74
610.015	7.55
610.35	7.27
610.685	7.46
611.02	7.58
611.355	7.54
611.689	7.39
612.024	7.82
612.359	7.59
612.694	7.88
613.028	7.65
613.363	7.78
613.697	7.77
614.032	7.71
614.366	7.81
614.7	8.1
615.035	7.96
615.369	8.01
615.703	7.96
616.037	8.06
616.371	8.05
616.705	8.17
617.039	8.13
617.373	8.61
617.707	7.73
618.041	8.08
618.375	7.92
618.709	8.53
619.042	8.41
619.376	8.11
619.71	8.34
620.043	8.54
620.377	8.16
620.71	8.34
621.043	8.83
621.377	8.58
621.71	8.74
622.043	8.65
622.376	8.64
622.709	8.53
623.043	8.62
623.376	8.47
623.709	8.79
624.041	8.56
624.374	8.6
624.707	8.28
625.04	8.45
625.373	8.89
625.705	8.23
626.038	8.3
626.37	8.65
626.703	9.17
627.035	9.29
627.368	8.68
627.7	8.91
628.032	8.76
628.365	8.55
628.697	8.92
629.029	8.88
629.361	9.02
629.693	9.15
630.025	8.99
630.357	9.05
630.689	9.11
631.021	9.02
631.353	9.16
631.684	9.03
632.016	9.14
632.348	9.52
632.679	9.57
633.011	9.13
633.342	9.3
633.674	9.73
634.005	9.25
634.336	9.37
634.668	9.37
634.999	9.32
635.33	9.64
635.661	9.64
635.992	9.42
636.323	9.77
636.654	9.67
636.985	9.6
637.316	9.63
637.647	9.8
637.977	9.53
638.308	9.36
638.639	9.69
638.969	10
639.3	9.87
639.63	10.03
639.961	9.85
640.291	9.86
640.622	10.01
640.952	9.91
641.282	10.11
641.612	10
641.943	9.91
642.273	9.91
642.603	9.73
642.933	10.45
643.263	9.99
643.592	10.53
643.922	10.01
644.252	10.56
644.582	10.93
644.911	10.8
645.241	10.07
645.571	10.18
645.9	10.43
646.23	10.54
646.559	10.57
646.888	10.74
647.218	10.45
647.547	10.69
647.876	10.32
648.205	10.67
648.534	10.69
648.863	10.53
649.192	10.97
649.521	11.01
649.85	10.72
650.179	11.15
650.508	10.56
650.837	10.62
651.165	11.17
651.494	10.85
651.822	11.36
652.151	10.81
652.479	11.28
652.808	11.12
653.136	11.23
653.465	10.87
653.793	10.81
654.121	11.2
654.449	11.29
654.777	11.74
655.105	11.11
655.433	11.4
655.761	11.19
656.089	11.35
656.417	11.7
656.745	11.44
657.073	11.57
657.4	11.31
657.728	11.3
658.056	11.28
658.383	11.67
658.711	11.82
659.038	11.47
659.365	11.12
659.693	11.72
660.02	11.63
660.347	11.89
660.674	11.68
661.001	11.76
661.329	12
661.656	11.91
661.982	11.67
662.309	12.21
662.636	12.06
662.963	11.7
663.29	11.89
663.616	12.24
663.943	11.87
664.27	12.26
664.596	11.59
664.923	12.26
665.249	12.07
665.576	12.3
665.902	11.71
666.228	12.25
666.554	12.11
666.881	12.36
667.207	12.59
667.533	12.4
667.859	11.9
668.185	12.61
668.511	12.47
668.837	12.44
669.162	12.41
669.488	12.43
669.814	13.55
670.139	12.4
670.465	12.55
670.791	12.63
671.116	12.6
671.442	12.96
671.767	12.26
672.092	12.36
672.418	12.97
672.743	12.62
673.068	12.97
673.393	12.68
673.718	12.84
674.043	13.31
674.368	12.93
674.693	12.95
675.018	13.19
675.343	13.85
675.667	13.02
675.992	13.08
676.317	13.19
676.641	13.13
676.966	13.63
677.29	13.61
677.615	13.03
677.939	13.51
678.264	13.07
678.588	13.12
678.912	14.11
679.236	13.97
679.56	13.4
679.885	13.54
680.209	13.91
680.532	13.47
680.856	14.16
681.18	13.66
681.504	14.01
681.828	14.01
682.152	13.64
682.475	14.3
682.799	13.71
683.122	13.78
683.446	13.81
683.769	14.19
684.093	13.67
684.416	14.83
684.739	13.76
685.062	14.6
685.386	14.11
685.709	14.21
686.032	14.74
686.355	14.13
686.678	13.85
687.001	14.5
687.324	14.34
687.646	14.52
687.969	14.47
688.292	14.45
688.614	14.05
688.937	15.68
689.26	14.88
689.582	14.45
689.904	15.1
690.227	15.16
690.549	15
690.871	14.22
691.194	14.6
691.516	14.99
691.838	15
692.16	14.94
692.482	15.53
692.804	15.05
693.126	15.76
693.448	15.21
693.769	14.93
694.091	15.37
694.413	14.65
694.735	15.34
695.056	14.89
695.378	14.9
695.699	14.98
696.021	15.67
696.342	15.67
696.663	15.71
696.984	15.86
697.306	15.31
697.627	15.16
697.948	15.16
698.269	15.21
698.59	15.76
698.911	15.82
699.232	16.08
699.553	15.48
699.873	16.2
700.194	15.37
700.515	16.43
700.835	16.05
701.156	16.04
701.477	15.75
701.797	15.77
702.117	16.65
702.438	16.4
702.758	16.94
703.078	15.81
703.398	16.37
703.719	16.17
704.039	16.4
704.359	16.8
704.679	15.65
704.999	16.74
705.319	16.96
705.638	16.13
705.958	16.59
706.278	16.36
706.597	15.92
706.917	16.7
707.237	16.07
707.556	16.46
707.876	16.31
708.195	16.15
708.514	16.13
708.834	16.43
709.153	16.09
709.472	15.9
709.791	16.95
710.11	16.57
710.429	16.39
710.748	16.62
711.067	17.09
711.386	16.09
711.705	17.48
712.023	16.96
712.342	17.31
712.661	17.87
712.979	17.2
713.298	17.59
713.616	17.14
713.935	17.2
714.253	17.41
714.572	17.49
714.89	16.66
715.208	17.3
715.526	16.77
715.844	17.12
716.162	16.76
716.48	17.38
716.798	17.72
717.116	18.17
717.434	16.82
717.752	17.35
718.069	17.99
718.387	17.85
718.705	17.56
719.022	18.19
719.34	18.32
719.657	18.47
719.975	17.72
720.292	17.75
720.609	17.76
720.927	18.23
721.244	17.58
721.561	19.3
721.878	18.25
722.195	18.01
722.512	17
722.829	19.92
723.146	18.82
723.463	18.41
723.779	18.81
724.096	17.65
724.413	18.76
724.729	18.49
725.046	19.27
725.362	19.25
725.679	17.72
725.995	17.78
726.311	17.64
726.628	19.06
726.944	18.82
727.26	18.63
727.576	18.45
727.892	18.55
728.208	18.94
728.524	17.91
728.84	19.09
729.156	20.3
729.472	18.39
729.787	19.57
730.103	17.71
730.419	20.89
730.734	20.1
731.05	19.29
731.365	19.87
731.681	19.65
731.996	20.02
732.311	19.51
732.626	19.23
732.942	18.99
733.257	19.56
733.572	20.31
733.887	19.96
734.202	19.52
734.517	20.29
734.832	19.64
735.146	18.96
735.461	19.81
735.776	20.59
736.091	19.92
736.405	19.1
736.72	19.56
737.034	19.83
737.349	19.36
737.663	20.46
737.977	19.4
738.292	20.33
738.606	21
738.92	21.4
739.234	19.55
739.548	18.91
739.862	19.65
740.176	18.79
740.49	21.17
740.804	20.45
741.117	20.56
741.431	20.33
741.745	19.96
742.058	20.22
742.372	21.62
742.685	19.14
742.999	20.33
743.312	22.77
743.626	22.12
743.939	18.79
744.252	21.65
744.565	20.06
744.878	19.85
745.191	19.52
745.505	21.49
745.817	22.13
746.13	20.71
746.443	19.56
746.756	19.99
747.069	21.28
747.381	20.26
747.694	20.47
748.007	22.4
748.319	19.49
748.632	21.46
748.944	22.92
749.256	20.14
749.569	21.19
749.881	20.37
750.193	22.32
750.505	21.54
750.817	20.44
751.129	19.27
751.441	21.82
751.753	21.86
752.065	22.73
752.377	22.35
752.689	22.48
753	20.57
753.312	22.72
753.624	21.76
753.935	21.59
754.247	22.25
754.558	22.85
754.869	22.86
755.181	22.9
755.492	23.27
755.803	21.12
756.114	20.18
756.425	22.2
756.736	22.02
757.047	23.22
757.358	20.66
757.669	20.32
757.98	20.38
758.291	22.15
758.601	22.64
758.912	23.44
759.223	22.18
759.533	22.36
759.844	22.79
760.154	22.63
760.464	23.2
760.775	21.79
761.085	23.17
761.395	23.17
761.705	22.32
762.016	23.32
762.326	23.83
762.636	23.46
762.945	22.28
763.255	24.01
763.565	23.17
763.875	22.9
764.185	23.9
764.494	22.86
764.804	21.77
765.113	23.21
765.423	21.82
765.732	22.46
766.042	24.06
766.351	22.4
766.66	22.72
766.97	23.26
767.279	23.23
767.588	23.61
767.897	23.34
768.206	23.32
768.515	24.92
768.824	23.37
769.133	22.39
769.441	24.64
769.75	22.86
770.059	22.49
770.367	23.85
770.676	24.41
770.984	22.48
771.293	23.95
771.601	24.47
771.91	24.06
772.218	25.02
772.526	25.59
772.834	24.37
773.142	25.28
773.45	27.01
773.758	23.71
774.066	23.22
774.374	22.19
774.682	24.74
774.99	24.44
775.298	22.27
775.605	23.92
775.913	26.26
776.22	26.07
776.528	24.1
776.835	24.32
777.143	22.56
777.45	24.99
777.757	24.33
778.065	23.44
778.372	22.91
778.679	24.35
778.986	25.65
779.293	28.87
779.6	22.26
779.907	25.27
780.214	24.51
780.52	22.53
780.827	24.35
781.134	23
781.44	21.39
781.747	24.2
782.053	23.33
782.36	24.63
782.666	28.18
782.973	24.84
783.279	24.58
783.585	26.04
783.891	25.84
784.197	24.96
784.503	25.72
784.809	20.45
785.115	23.26
785.421	22.47
785.727	26.2
786.033	24.3
786.339	29.33
786.644	27.46
786.95	24.87
787.255	24.32
787.561	25.51
787.866	21.67
788.172	21.75
788.477	24.01
788.782	24.84
789.088	26.63
789.393	28.94
789.698	28.42
790.003	24.14
790.308	23.66
790.613	26.37
790.918	25.77
791.223	25.67
791.527	21.62
791.832	25.81
792.137	25.32
792.441	25.26
792.746	27.75
793.05	26.8
793.355	29.69
793.659	24.24
793.963	26.46
794.268	25.78
794.572	26.86
794.876	24.9
795.18	26.3
795.484	27.2
795.788	20.14
796.092	23.65
796.396	22.99
796.7	23.06
797.004	24.2
797.307	23.85
797.611	25.61
797.915	29.38
798.218	26.13
798.522	28.22
798.825	25.01
799.128	28.77
799.432	27.15
799.735	27.64
800.038	23.84
800.341	22.49
800.644	26.31
800.947	24.47
801.25	24.46
801.553	25.36
801.856	21.8
802.159	29.22
802.462	27.04
802.764	28.65
803.067	26.02
803.37	27.08
803.672	22.9
803.975	31.45
804.277	27.59
804.579	28.01
804.882	25.25
805.184	25.7
805.486	28.77
805.788	27.11
806.09	32.29
806.392	26.64
806.694	29.77
806.996	24.79
807.298	24.56
807.6	27.55
807.902	28.04
808.203	28.06
808.505	26
808.807	22.73
809.108	27.5
809.409	31.16
809.711	26.91
810.012	28.84
810.313	27.77
810.615	30.62
810.916	31.71
811.217	27.4
811.518	26.41
811.819	32.62
812.12	34.56
812.421	25.3
812.722	28.91
813.023	28.59
813.323	30.07
813.624	26.39
813.925	28.05
814.225	25.05
814.526	30.31
814.826	27.37
815.126	24.5
815.427	27.41
815.727	30.5
816.027	28.97
816.327	31.07
816.627	30.39
816.927	25.81
817.227	26.89
817.527	28.63
817.827	32.31
818.127	34.58
818.427	30.98
818.727	28.33
819.026	32.13
819.326	32.34
819.625	30.31
819.925	25.46
820.224	28.59
820.524	35.4
820.823	24.61
821.122	28.41
821.421	22.93
821.72	33.99
822.019	31.46
822.318	32.76
822.617	26.04
822.916	31.2
823.215	30.17
823.514	32.02
823.813	29.11
824.111	28.44
824.41	29.87
824.709	30.01
825.007	30.47
825.306	29.85
825.604	29.66
825.902	29.26
826.201	30.69
826.499	31.03
826.797	30.66
827.095	31.94
827.393	31.02
827.691	29.43
827.989	29.3
828.287	30.22
828.585	32.19
828.882	30.72
829.18	30.73
829.478	31.4
829.775	31.74
830.073	30.38
830.37	31.11
830.668	32.83
830.965	29.42
831.263	30.01
831.56	33.22
831.857	31.51
832.154	29.34
832.451	32.84
832.748	30.46
833.045	33.35
833.342	32.01
833.639	29.21
833.936	32.64
834.232	30.02
834.529	32.78
834.826	26.28
835.122	25.27
835.419	31.68
835.715	34.88
836.012	32.71
836.308	28.74
836.604	31.65
836.901	34.09
837.197	31.03
837.493	34.23
837.789	34.6
838.085	32.18
838.381	32.23
838.677	32.23
838.972	31.94
839.268	35.72
839.564	29.91
839.86	31.64
840.155	36.93
840.451	31.1
840.746	25.75
841.042	36.27
841.337	29.68
841.632	25.45
841.928	27.98
842.223	21.33
842.518	27.01
842.813	27.64
843.108	23.53
843.403	23.21
843.698	33.5
843.993	23.67
844.287	37.31
844.582	30.8
844.877	33.72
845.171	26.03
845.466	30.74
845.761	36.09
846.055	27.59
846.349	30.03
846.644	26.33
846.938	25.58
847.232	24.74
847.526	26.13
847.82	23.68
848.114	38.77
848.408	23.49
848.702	13.15
848.996	14.36
849.29	32.61
849.584	29.49
849.877	27.02
850.171	9.95
850.465	18.52
850.758	30.56
851.052	31.3
851.345	36.13
851.638	18.69
851.932	26.18
852.225	31.08
852.518	19.16
852.811	37.94
853.104	20.05
853.397	37.13
853.69	28.55
853.983	32.29
854.276	34.8
854.569	46.97
854.861	12.86
855.154	24.51
855.447	47.29
855.739	38.72
856.032	24.68
856.324	29.2
856.616	49.66
856.909	35.63
857.201	20
857.493	13.36
857.785	35.55
858.077	7.61
858.369	22.93
858.661	14.65
858.953	16.6
859.245	25.22
859.537	5.55
859.829	25.81
860.12	49.13
860.412	35.24
860.703	1.18
860.995	54.12
861.286	16.17
861.578	17.49
861.869	33.88
862.16	30.58
862.452	31.45
862.743	19.6
863.034	33.94
863.325	21.82
863.616	28.98
863.907	15.16
864.198	13.79
864.488	38.85
864.779	51.15
865.07	19.42
865.36	23.96
865.651	36.5
865.941	32.87
866.232	20.08
866.522	37.92
866.813	26.76
867.103	30.06
867.393	30.12
867.683	38.92
867.973	4.2
868.263	37.01
868.553	8.37
868.843	13.9
869.133	27.86
869.423	35.87
869.713	28.89
870.002	45.21
870.292	4.98
870.582	54.1
870.871	36.26
871.161	42.33
871.45	35.48
871.739	43.71
872.029	16.33
872.318	-0.28
872.607	25.77
872.896	25.79
873.185	45.5
873.474	48.82
873.763	39.71
874.052	28.59
874.341	18.66
874.63	34.64
874.918	39.36
875.207	39.25
875.496	17.22
875.784	43.81
876.073	13.42
876.361	32.55
876.649	33.38
876.938	28.77
877.226	32.35
877.514	33.1
877.802	38.57
878.09	19.62
878.378	35.86
878.666	29.48
878.954	27.34
879.242	23.29
879.53	58.29
879.817	-6.49
880.105	17.73
880.392	42.38
880.68	16.13
880.967	32.78
881.255	30.48
881.542	32.41
881.83	14.99
882.117	38.68
882.404	50.32
882.691	21.14
882.978	25.04
883.265	34.04
883.552	27.49
883.839	41.14
884.126	42.82
884.413	33.6
884.699	29.34
884.986	30.18
885.273	33.54
885.559	33.54
885.846	33.54
