Data from 0016_crown_Reflection__1__56.txt Node

Date: Mon Oct 17 14:51:48 CDT 2022
User: ToomeyLab
Spectrometer: FLMS14357
Trigger mode: 0
Integration Time (sec): 1.000000E-2
Scans to average: 100
Electric dark correction enabled: true
Nonlinearity correction enabled: false
Boxcar width: 0
XAxis mode: Wavelengths
Number of Pixels in Spectrum: 2048
>>>>>Begin Spectral Data<<<<<
189.047	828.3
189.435	828.3
189.823	828.3
190.211	79.81
190.599	68.95
190.987	58.14
191.375	388.02
191.763	168.03
192.151	-133.96
192.538	-18.19
192.926	13.14
193.314	157.33
193.702	196.56
194.089	148.88
194.477	-2138.49
194.864	154.33
195.252	134.76
195.639	49.19
196.027	188.42
196.414	-995.13
196.801	23.96
197.189	114.79
197.576	61
197.963	-138.86
198.351	-50.51
198.738	2.62
199.125	10.6
199.512	-88.21
199.899	35.45
200.286	-15.28
200.673	-8.99
201.06	-13.46
201.447	26.95
201.833	39.41
202.22	20.78
202.607	-10.88
202.994	27.99
203.38	4.25
203.767	32.55
204.154	50.47
204.54	-0.52
204.927	20.04
205.313	-3.05
205.699	26.07
206.086	-57.95
206.472	6.72
206.858	1.55
207.245	28.92
207.631	11.81
208.017	8.14
208.403	1.86
208.789	-16.43
209.175	1.05
209.561	-50.02
209.947	-23.28
210.333	33.49
210.719	11.06
211.105	10.75
211.491	-3.79
211.876	-23.53
212.262	13.21
212.648	23.14
213.034	-27.86
213.419	1.43
213.805	26.4
214.19	10.09
214.576	-21.39
214.961	-10.23
215.346	-25.91
215.732	-6.71
216.117	28.79
216.502	-9.51
216.888	-12.14
217.273	3.14
217.658	9.13
218.043	0.07
218.428	-12.4
218.813	14.83
219.198	11.9
219.583	-1.35
219.968	25.98
220.353	10.03
220.738	25.75
221.122	-7.93
221.507	-15.05
221.892	15.6
222.276	5.45
222.661	2.21
223.046	2.21
223.43	8.61
223.815	5.35
224.199	4.95
224.583	-3.47
224.968	4.37
225.352	-6.85
225.736	7.85
226.121	1.88
226.505	3.24
226.889	7.94
227.273	8.32
227.657	9.15
228.041	6.04
228.425	5.14
228.809	8.48
229.193	9.54
229.577	6.25
229.961	9.27
230.344	6.9
230.728	6.89
231.112	6.87
231.495	7.03
231.879	8.51
232.263	8.52
232.646	7.38
233.03	6.42
233.413	4.62
233.797	6.14
234.18	5.77
234.563	3.75
234.946	8.98
235.33	6.03
235.713	6.33
236.096	7.42
236.479	5.51
236.862	7.76
237.245	6.13
237.628	4.73
238.011	6.58
238.394	6.84
238.777	6.51
239.16	8.74
239.543	7.15
239.925	6.89
240.308	6.69
240.691	6.83
241.073	7.41
241.456	4.84
241.838	6.75
242.221	5.8
242.603	6.76
242.986	6.04
243.368	7.31
243.75	6.61
244.133	6.76
244.515	6.93
244.897	7.37
245.279	7.26
245.661	6.85
246.043	6.68
246.425	5.87
246.807	6.38
247.189	6.55
247.571	6.68
247.953	6.26
248.335	6.46
248.717	6.4
249.098	6.49
249.48	6.4
249.862	6.32
250.243	6.3
250.625	6.96
251.006	6.04
251.388	5.82
251.769	7.15
252.151	6.17
252.532	5.61
252.913	6
253.295	5.79
253.676	6.76
254.057	6.56
254.438	6.56
254.819	7.37
255.2	7.19
255.581	6.49
255.962	5.74
256.343	5.95
256.724	5.44
257.105	6.55
257.486	5.33
257.867	5.54
258.247	5.41
258.628	6.1
259.009	6.96
259.389	5.84
259.77	5.88
260.15	5.82
260.531	5.75
260.911	6.02
261.292	6.03
261.672	5.8
262.052	5.96
262.432	6
262.813	5.54
263.193	5.94
263.573	6.38
263.953	5.82
264.333	6.13
264.713	6
265.093	6.18
265.473	6.79
265.853	5.97
266.233	6.33
266.612	5.69
266.992	6.19
267.372	5.55
267.752	5.99
268.131	6.16
268.511	5.92
268.89	6.03
269.27	6
269.649	5.25
270.029	5.3
270.408	5.82
270.787	5.54
271.167	6.02
271.546	6.02
271.925	6.2
272.304	5.72
272.683	5.93
273.062	5.66
273.441	5.15
273.82	5.74
274.199	5.99
274.578	5.58
274.957	5.44
275.336	5.8
275.715	5.32
276.093	5.2
276.472	5.53
276.851	5.31
277.229	5.28
277.608	5.47
277.986	5.04
278.365	5.41
278.743	5.6
279.122	4.9
279.5	5.65
279.878	5.68
280.257	5.1
280.635	4.88
281.013	5.31
281.391	5.26
281.769	5.1
282.147	5.79
282.525	5.37
282.903	4.53
283.281	5.08
283.659	5.24
284.037	4.61
284.415	5.45
284.792	5.61
285.17	4.99
285.548	4.84
285.925	5.15
286.303	4.83
286.68	5.3
287.058	5.19
287.435	5.36
287.813	5.26
288.19	5.11
288.567	4.95
288.945	4.87
289.322	5.76
289.699	5.41
290.076	5.15
290.453	4.52
290.83	4.96
291.207	4.94
291.584	4.73
291.961	4.75
292.338	4.91
292.715	5.22
293.092	4.78
293.469	4.83
293.845	4.99
294.222	5.28
294.599	4.82
294.975	4.32
295.352	4.6
295.728	5.07
296.105	4.63
296.481	4.84
296.858	5.18
297.234	4.67
297.61	4.86
297.986	4.54
298.363	4.8
298.739	5.06
299.115	4.54
299.491	4.94
299.867	4.69
300.243	4.46
300.619	4.34
300.995	4.94
301.371	4.71
301.746	4.77
302.122	4.24
302.498	4.47
302.874	5.15
303.249	4.56
303.625	4.69
304	4.37
304.376	4.83
304.751	4.78
305.127	4.65
305.502	4.49
305.878	4.67
306.253	4.42
306.628	5.07
307.003	4.34
307.378	5.23
307.754	4.61
308.129	3.79
308.504	4.87
308.879	4.69
309.254	4.71
309.629	4.62
310.003	4.67
310.378	4.79
310.753	4.51
311.128	4.69
311.502	4.5
311.877	4.58
312.252	4.59
312.626	4.15
313.001	4.13
313.375	4.21
313.75	4.43
314.124	4.81
314.498	4.23
314.873	4.42
315.247	4.22
315.621	4.84
315.995	4.16
316.369	3.99
316.743	4.27
317.117	4.8
317.491	4.46
317.865	4.58
318.239	4.71
318.613	4.72
318.987	4.04
319.361	3.76
319.734	4.9
320.108	4.2
320.482	4.79
320.855	4.37
321.229	4.23
321.602	4.58
321.976	4.21
322.349	3.97
322.723	4.19
323.096	4.41
323.469	4.62
323.843	4.34
324.216	4.38
324.589	4.18
324.962	4.35
325.335	4.39
325.708	4.5
326.081	4.1
326.454	4.8
326.827	4.1
327.2	4.2
327.573	4.03
327.945	3.96
328.318	4.2
328.691	4.02
329.063	4.42
329.436	4.12
329.809	4.1
330.181	4.65
330.553	4.01
330.926	4.12
331.298	4.46
331.671	4.61
332.043	4.25
332.415	4.23
332.787	4.22
333.159	4.51
333.532	3.98
333.904	4.27
334.276	4.08
334.648	4.14
335.02	4.3
335.391	4.77
335.763	4.59
336.135	4.28
336.507	4.56
336.879	4.56
337.25	4.43
337.622	4.29
337.993	4.1
338.365	4.42
338.736	3.87
339.108	4.41
339.479	4.63
339.851	5.01
340.222	4.57
340.593	4.99
340.964	4.17
341.336	4.37
341.707	4.42
342.078	4.5
342.449	4.43
342.82	4.54
343.191	4.48
343.562	4.25
343.933	4.59
344.303	4.44
344.674	4.49
345.045	4.39
345.416	4.52
345.786	4.74
346.157	4.64
346.527	4.52
346.898	4.88
347.268	4.9
347.639	4.5
348.009	4.42
348.38	4.39
348.75	4.22
349.12	4.61
349.49	4.57
349.861	4.56
350.231	4.08
350.601	4.44
350.971	4.36
351.341	4.27
351.711	4.37
352.081	4.42
352.45	4.83
352.82	4.58
353.19	4.43
353.56	4.32
353.929	4.4
354.299	4.61
354.669	4.61
355.038	4.8
355.408	4.87
355.777	4.56
356.147	4.55
356.516	4.84
356.885	4.74
357.254	4.72
357.624	4.68
357.993	4.96
358.362	4.54
358.731	4.51
359.1	4.71
359.469	4.57
359.838	4.57
360.207	4.86
360.576	4.7
360.945	4.31
361.314	4.75
361.682	4.9
362.051	4.67
362.42	4.53
362.788	4.83
363.157	4.69
363.525	4.59
363.894	4.8
364.262	4.77
364.631	4.91
364.999	4.65
365.367	4.77
365.735	4.83
366.104	4.87
366.472	4.67
366.84	5.02
367.208	5.16
367.576	4.95
367.944	4.63
368.312	4.96
368.68	5.19
369.048	4.85
369.416	5
369.783	5.15
370.151	4.99
370.519	4.79
370.886	5.16
371.254	4.85
371.621	5.02
371.989	4.61
372.356	5.31
372.724	4.92
373.091	4.85
373.458	4.85
373.826	5.05
374.193	5.26
374.56	4.86
374.927	5.06
375.294	4.92
375.661	5.23
376.028	5.24
376.395	5.01
376.762	4.96
377.129	5
377.496	4.97
377.863	4.66
378.229	4.95
378.596	5.16
378.963	5.19
379.329	4.85
379.696	4.76
380.062	5.48
380.429	4.99
380.795	5.14
381.161	5.15
381.528	4.76
381.894	4.98
382.26	5.24
382.626	5.14
382.993	5.28
383.359	5.29
383.725	5.31
384.091	5.06
384.457	5.27
384.823	5.1
385.188	5.03
385.554	5.27
385.92	5.19
386.286	5.45
386.651	5.08
387.017	4.97
387.383	5.21
387.748	4.88
388.114	5.23
388.479	5.53
388.845	5.31
389.21	4.96
389.575	5.17
389.94	5.46
390.306	5.41
390.671	5.38
391.036	5.44
391.401	5.68
391.766	5.45
392.131	5.38
392.496	5.41
392.861	5.23
393.226	5.33
393.591	5.09
393.956	5.17
394.32	5.35
394.685	5.38
395.05	5.47
395.414	5.34
395.779	5.36
396.143	5.31
396.508	5.29
396.872	5.23
397.236	5.54
397.601	5.42
397.965	5.47
398.329	5.63
398.694	5.53
399.058	5.51
399.422	5.4
399.786	5.46
400.15	5.64
400.514	5.36
400.878	5.45
401.242	5.1
401.605	5.67
401.969	5.69
402.333	5.34
402.697	5.65
403.06	5.23
403.424	5.39
403.787	5.5
404.151	5.62
404.514	5.48
404.878	5.6
405.241	5.3
405.604	5.41
405.968	5.59
406.331	5.27
406.694	5.33
407.057	5.39
407.42	5.52
407.783	5.61
408.146	5.58
408.509	5.7
408.872	5.51
409.235	5.58
409.598	5.54
409.961	5.48
410.323	5.9
410.686	5.52
411.049	5.37
411.411	5.74
411.774	5.51
412.136	5.52
412.499	5.85
412.861	5.7
413.223	5.48
413.586	5.51
413.948	5.69
414.31	5.67
414.672	5.67
415.035	5.6
415.397	5.85
415.759	5.43
416.121	5.42
416.483	5.55
416.845	5.59
417.206	5.56
417.568	5.65
417.93	5.37
418.292	5.81
418.653	5.73
419.015	5.69
419.377	5.55
419.738	5.44
420.1	5.74
420.461	5.48
420.822	5.48
421.184	5.6
421.545	5.52
421.906	5.54
422.267	5.52
422.629	5.43
422.99	5.5
423.351	5.5
423.712	5.52
424.073	5.67
424.434	5.61
424.795	5.68
425.155	5.57
425.516	5.46
425.877	5.4
426.238	5.49
426.598	5.6
426.959	5.58
427.32	5.66
427.68	5.61
428.041	5.62
428.401	5.75
428.761	5.77
429.122	5.84
429.482	5.8
429.842	5.79
430.202	5.91
430.563	5.74
430.923	5.88
431.283	5.91
431.643	5.78
432.003	5.83
432.363	5.77
432.722	5.67
433.082	5.71
433.442	5.84
433.802	5.84
434.161	5.78
434.521	5.92
434.881	5.68
435.24	5.67
435.6	5.87
435.959	5.78
436.319	5.8
436.678	5.77
437.037	5.93
437.396	5.77
437.756	6.01
438.115	5.84
438.474	5.68
438.833	5.67
439.192	5.62
439.551	5.73
439.91	5.75
440.269	5.77
440.628	5.63
440.987	5.75
441.345	5.71
441.704	5.7
442.063	5.69
442.421	5.65
442.78	5.59
443.138	5.77
443.497	5.78
443.855	5.91
444.214	5.88
444.572	5.71
444.93	5.8
445.288	5.71
445.647	5.87
446.005	5.85
446.363	5.92
446.721	5.62
447.079	5.68
447.437	5.73
447.795	5.66
448.153	5.71
448.51	5.73
448.868	5.7
449.226	5.65
449.584	5.77
449.941	5.73
450.299	5.91
450.656	5.75
451.014	5.79
451.371	5.91
451.729	5.87
452.086	5.92
452.443	6.03
452.801	5.88
453.158	5.99
453.515	5.68
453.872	5.86
454.229	5.63
454.586	5.82
454.943	5.85
455.3	5.98
455.657	5.77
456.014	5.9
456.371	5.86
456.727	5.95
457.084	5.86
457.441	5.87
457.797	5.88
458.154	5.79
458.51	5.9
458.867	5.88
459.223	5.84
459.58	5.9
459.936	5.82
460.292	5.99
460.648	5.78
461.005	5.82
461.361	5.71
461.717	5.74
462.073	5.77
462.429	5.84
462.785	5.92
463.141	5.99
463.496	5.81
463.852	6.06
464.208	6.14
464.564	5.79
464.919	5.95
465.275	5.84
465.631	6.08
465.986	5.96
466.342	5.86
466.697	6.01
467.052	6.1
467.408	5.73
467.763	5.71
468.118	6.03
468.473	5.94
468.829	5.94
469.184	6.01
469.539	6
469.894	5.81
470.249	5.99
470.603	5.94
470.958	6.07
471.313	6.07
471.668	6.14
472.023	5.74
472.377	5.98
472.732	5.85
473.086	6.06
473.441	6.03
473.795	5.88
474.15	6.05
474.504	6.05
474.859	5.99
475.213	5.93
475.567	6.1
475.921	5.84
476.275	5.84
476.63	6.1
476.984	6.08
477.338	5.87
477.692	5.99
478.045	6.03
478.399	5.92
478.753	5.92
479.107	5.84
479.461	5.96
479.814	6.06
480.168	5.9
480.521	5.96
480.875	5.98
481.228	5.92
481.582	6.03
481.935	5.93
482.289	5.76
482.642	5.81
482.995	5.86
483.348	5.83
483.701	5.86
484.055	5.8
484.408	5.83
484.761	5.66
485.114	5.5
485.466	5.4
485.819	5.37
486.172	5.52
486.525	5.71
486.878	5.76
487.23	5.8
487.583	5.83
487.936	5.77
488.288	5.68
488.641	5.58
488.993	5.53
489.345	5.57
489.698	5.55
490.05	5.61
490.402	5.64
490.754	5.78
491.107	5.77
491.459	5.87
491.811	5.89
492.163	5.75
492.515	5.78
492.866	5.57
493.218	5.55
493.57	5.59
493.922	5.64
494.274	5.82
494.625	5.85
494.977	5.97
495.328	5.81
495.68	5.9
496.031	5.97
496.383	6.02
496.734	5.88
497.086	5.89
497.437	5.85
497.788	5.8
498.139	5.68
498.49	5.72
498.842	5.82
499.193	5.82
499.544	5.91
499.894	5.88
500.245	5.83
500.596	5.83
500.947	6.07
501.298	5.96
501.648	5.84
501.999	5.9
502.35	5.9
502.7	5.99
503.051	6
503.401	5.97
503.752	6
504.102	5.86
504.452	5.87
504.803	6.05
505.153	5.85
505.503	5.89
505.853	5.78
506.203	5.82
506.553	5.84
506.903	5.9
507.253	5.88
507.603	5.89
507.953	5.98
508.303	5.88
508.652	5.86
509.002	5.99
509.352	5.9
509.701	5.81
510.051	5.85
510.4	5.72
510.75	5.78
511.099	5.81
511.449	5.84
511.798	5.87
512.147	5.85
512.496	5.82
512.846	5.79
513.195	5.91
513.544	5.77
513.893	5.9
514.242	5.89
514.591	5.8
514.939	5.88
515.288	5.87
515.637	5.93
515.986	5.92
516.334	5.92
516.683	5.94
517.032	5.79
517.38	5.78
517.729	5.89
518.077	5.95
518.426	5.8
518.774	5.74
519.122	5.7
519.47	5.83
519.819	5.79
520.167	5.68
520.515	5.72
520.863	5.82
521.211	5.73
521.559	5.8
521.907	5.86
522.255	5.83
522.602	5.83
522.95	5.88
523.298	5.71
523.645	5.84
523.993	5.79
524.341	5.86
524.688	5.81
525.036	5.79
525.383	5.83
525.73	5.87
526.078	5.85
526.425	5.74
526.772	5.68
527.119	5.72
527.466	5.5
527.814	5.62
528.161	5.68
528.508	5.75
528.854	5.67
529.201	5.73
529.548	5.61
529.895	5.46
530.242	5.36
530.588	5.39
530.935	5.48
531.282	5.58
531.628	5.66
531.975	5.72
532.321	5.64
532.667	5.8
533.014	5.75
533.36	5.76
533.706	5.68
534.052	5.71
534.399	5.59
534.745	5.5
535.091	5.44
535.437	5.51
535.783	5.66
536.129	5.76
536.474	5.83
536.82	5.76
537.166	5.81
537.512	5.79
537.857	5.75
538.203	5.55
538.549	5.59
538.894	5.68
539.239	5.83
539.585	5.69
539.93	5.8
540.276	5.78
540.621	5.73
540.966	5.75
541.311	5.63
541.656	5.66
542.001	5.71
542.346	5.64
542.691	5.53
543.036	5.36
543.381	5.45
543.726	5.49
544.071	5.58
544.415	5.61
544.76	5.64
545.105	5.59
545.449	5.63
545.794	5.66
546.138	5.59
546.483	5.73
546.827	5.73
547.171	5.67
547.516	5.68
547.86	5.68
548.204	5.62
548.548	5.56
548.892	5.67
549.236	5.67
549.58	5.67
549.924	5.75
550.268	5.78
550.612	5.79
550.956	5.86
551.3	5.64
551.643	5.81
551.987	5.79
552.33	5.85
552.674	5.77
553.017	5.74
553.361	5.8
553.704	5.58
554.048	5.52
554.391	5.7
554.734	5.57
555.077	5.75
555.42	5.74
555.764	5.85
556.107	5.73
556.45	5.71
556.793	5.73
557.135	5.86
557.478	5.84
557.821	5.79
558.164	5.55
558.507	5.9
558.849	5.61
559.192	5.7
559.534	5.95
559.877	5.59
560.219	5.58
560.562	5.48
560.904	5.58
561.246	5.8
561.589	5.63
561.931	5.61
562.273	5.79
562.615	5.52
562.957	5.64
563.299	5.7
563.641	5.62
563.983	5.66
564.325	5.79
564.667	5.73
565.008	5.65
565.35	5.59
565.692	5.88
566.033	5.66
566.375	5.51
566.716	5.6
567.058	5.49
567.399	5.59
567.741	5.59
568.082	5.66
568.423	5.54
568.764	5.52
569.105	5.55
569.447	5.63
569.788	5.59
570.129	5.68
570.47	5.78
570.811	5.67
571.151	5.46
571.492	5.68
571.833	5.5
572.174	5.7
572.514	5.68
572.855	5.58
573.195	5.48
573.536	5.47
573.876	5.42
574.217	5.44
574.557	5.39
574.898	5.44
575.238	5.55
575.578	5.64
575.918	5.6
576.258	5.67
576.598	5.43
576.938	5.64
577.278	5.5
577.618	5.62
577.958	5.47
578.298	5.47
578.638	5.5
578.977	5.72
579.317	5.51
579.657	5.46
579.996	5.37
580.336	5.48
580.675	5.66
581.014	5.4
581.354	5.37
581.693	5.54
582.032	5.41
582.372	5.29
582.711	5.46
583.05	5.37
583.389	5.26
583.728	5.63
584.067	5.53
584.406	5.43
584.745	5.56
585.083	5.6
585.422	5.34
585.761	5.6
586.1	5.59
586.438	5.46
586.777	5.82
587.115	5.72
587.454	5.39
587.792	5.7
588.13	5.51
588.469	5.7
588.807	5.55
589.145	5.46
589.483	5.52
589.821	5.46
590.159	5.29
590.497	5.56
590.835	5.45
591.173	5.54
591.511	5.41
591.849	5.24
592.187	5.5
592.524	5.63
592.862	5.39
593.2	5.47
593.537	5.59
593.875	5.41
594.212	5.62
594.55	5.5
594.887	5.39
595.224	5.47
595.561	5.36
595.899	5.46
596.236	5.54
596.573	5.4
596.91	5.44
597.247	5.37
597.584	5.32
597.921	5.22
598.258	5.17
598.594	5.27
598.931	5.21
599.268	5.09
599.604	5.37
599.941	5.32
600.277	5.38
600.614	5.33
600.95	5.45
601.287	5.37
601.623	5.6
601.959	5.07
602.296	5.47
602.632	5.06
602.968	5.07
603.304	5.1
603.64	5.28
603.976	5.26
604.312	5.32
604.648	5.19
604.984	5.19
605.319	5.13
605.655	5.19
605.991	5.5
606.326	5.06
606.662	5.16
606.998	5.13
607.333	5.29
607.668	5.18
608.004	5.19
608.339	5.35
608.674	5.53
609.01	5.52
609.345	5.4
609.68	5.46
610.015	5.46
610.35	5.07
610.685	4.8
611.02	5.39
611.355	5.26
611.689	5.24
612.024	5.32
612.359	5.25
612.694	5.21
613.028	5.11
613.363	5.43
613.697	4.99
614.032	5.53
614.366	5.34
614.7	5.44
615.035	5.22
615.369	5.3
615.703	5.29
616.037	5.38
616.371	5.49
616.705	5.06
617.039	5.66
617.373	5.32
617.707	5.29
618.041	5.25
618.375	5.22
618.709	5.83
619.042	5.23
619.376	5.19
619.71	5.27
620.043	5.43
620.377	5.33
620.71	5.5
621.043	5.42
621.377	5.02
621.71	5.64
622.043	5.54
622.376	5.21
622.709	5.08
623.043	5.08
623.376	5.17
623.709	5.13
624.041	5.2
624.374	5.24
624.707	5.39
625.04	5.03
625.373	5.42
625.705	5.15
626.038	4.63
626.37	5.25
626.703	5.59
627.035	5.34
627.368	5.21
627.7	5.19
628.032	5.29
628.365	4.99
628.697	5.18
629.029	5.07
629.361	5.18
629.693	5.2
630.025	5.21
630.357	4.97
630.689	5.1
631.021	5.25
631.353	5.06
631.684	4.86
632.016	4.92
632.348	5.37
632.679	5.36
633.011	5.02
633.342	5.03
633.674	5.43
634.005	5.39
634.336	5.1
634.668	5.37
634.999	5.39
635.33	4.89
635.661	5.4
635.992	4.97
636.323	4.91
636.654	5.33
636.985	4.92
637.316	5.22
637.647	5.2
637.977	5.08
638.308	5.04
638.639	4.94
638.969	4.97
639.3	4.99
639.63	5.51
639.961	5.1
640.291	5.14
640.622	5.1
640.952	5.54
641.282	5.11
641.612	4.81
641.943	5.29
642.273	5.23
642.603	5.01
642.933	5.24
643.263	5.11
643.592	4.81
643.922	4.7
644.252	5.21
644.582	5.5
644.911	5.38
645.241	5.1
645.571	4.66
645.9	5.52
646.23	4.83
646.559	4.96
646.888	4.87
647.218	4.95
647.547	5.07
647.876	4.86
648.205	5.05
648.534	4.99
648.863	5.14
649.192	4.99
649.521	5.13
649.85	4.86
650.179	5.14
650.508	4.98
650.837	5.11
651.165	5.21
651.494	5.41
651.822	5.36
652.151	4.48
652.479	5.12
652.808	4.67
653.136	5.04
653.465	4.46
653.793	4.98
654.121	5.36
654.449	5.36
654.777	5.13
655.105	4.6
655.433	4.85
655.761	4.92
656.089	4.92
656.417	5.04
656.745	4.7
657.073	4.59
657.4	4.97
657.728	4.95
658.056	4.64
658.383	5.2
658.711	4.99
659.038	5.28
659.365	5.08
659.693	4.8
660.02	4.43
660.347	5.24
660.674	4.89
661.001	5.11
661.329	5.16
661.656	4.74
661.982	4.61
662.309	5.27
662.636	5.23
662.963	4.68
663.29	5.03
663.616	5.01
663.943	4.71
664.27	4.83
664.596	4.69
664.923	4.89
665.249	4.78
665.576	5.33
665.902	5.03
666.228	5.18
666.554	4.95
666.881	4.77
667.207	5.3
667.533	5.83
667.859	5.38
668.185	5.31
668.511	5.14
668.837	4.86
669.162	5.31
669.488	5.1
669.814	5.58
670.139	5.03
670.465	5.02
670.791	4.99
671.116	5.41
671.442	4.95
671.767	5.12
672.092	4.71
672.418	4.68
672.743	5.05
673.068	4.87
673.393	4.52
673.718	5.01
674.043	5.02
674.368	5.02
674.693	5.04
675.018	5.07
675.343	5.39
675.667	4.75
675.992	5.02
676.317	4.26
676.641	4.9
676.966	4.99
677.29	5.16
677.615	4.31
677.939	4.91
678.264	4.88
678.588	4.85
678.912	4.89
679.236	5.66
679.56	4.31
679.885	5.62
680.209	5.01
680.532	5.21
680.856	4.96
681.18	4.69
681.504	5.49
681.828	5.25
682.152	5.02
682.475	4.73
682.799	4.83
683.122	4.9
683.446	5.62
683.769	4.97
684.093	4.68
684.416	5.48
684.739	4.72
685.062	5.59
685.386	5.15
685.709	4.71
686.032	6.25
686.355	5.49
686.678	4.71
687.001	4.97
687.324	4.68
687.646	4.71
687.969	4.87
688.292	5.42
688.614	5.07
688.937	5.47
689.26	5.21
689.582	4.82
689.904	5.52
690.227	5.17
690.549	5.74
690.871	5.71
691.194	5.14
691.516	4.96
691.838	5.63
692.16	4.76
692.482	5.25
692.804	4.59
693.126	5.31
693.448	5.34
693.769	5.16
694.091	4.9
694.413	5.07
694.735	4.32
695.056	5.12
695.378	5.07
695.699	4.94
696.021	4.83
696.342	5.37
696.663	5.11
696.984	5.64
697.306	5.81
697.627	4.54
697.948	4.73
698.269	5.21
698.59	5.61
698.911	5.49
699.232	5.51
699.553	5.12
699.873	5.15
700.194	5.09
700.515	5.65
700.835	4.76
701.156	4.63
701.477	4.77
701.797	4.82
702.117	5.23
702.438	4.6
702.758	4.56
703.078	4.72
703.398	5.49
703.719	4.4
704.039	4.52
704.359	5.97
704.679	4.51
704.999	5
705.319	5.6
705.638	4.26
705.958	5.22
706.278	4.87
706.597	4.78
706.917	4.88
707.237	4.34
707.556	4.68
707.876	4.51
708.195	5.43
708.514	5.51
708.834	4.88
709.153	4.75
709.472	5.01
709.791	4.86
710.11	4.92
710.429	4.6
710.748	5.2
711.067	5.06
711.386	5.7
711.705	4.83
712.023	5.59
712.342	5.47
712.661	5.4
712.979	4.54
713.298	5.07
713.616	4.64
713.935	4.52
714.253	5.28
714.572	5.2
714.89	5.07
715.208	5.28
715.526	4.96
715.844	5.35
716.162	6.95
716.48	4.64
716.798	4.98
717.116	5.13
717.434	5.23
717.752	4.55
718.069	5.46
718.387	4.64
718.705	3.89
719.022	5.08
719.34	5
719.657	5.94
719.975	5.38
720.292	4.86
720.609	5.99
720.927	4.43
721.244	4.73
721.561	6.14
721.878	6.31
722.195	4.56
722.512	5.23
722.829	5.88
723.146	5.65
723.463	4.86
723.779	5.85
724.096	6.17
724.413	5.68
724.729	3.64
725.046	5.21
725.362	5.9
725.679	4.55
725.995	4.81
726.311	4.17
726.628	5.76
726.944	4.02
727.26	6.42
727.576	5.25
727.892	6.65
728.208	6.25
728.524	4.34
728.84	5.29
729.156	5.59
729.472	5.81
729.787	6.1
730.103	5.01
730.419	6.55
730.734	7.01
731.05	5.4
731.365	5.87
731.681	5.5
731.996	3.89
732.311	4.72
732.626	5.75
732.942	4.99
733.257	5.91
733.572	5.56
733.887	5.13
734.202	6.72
734.517	5.81
734.832	5.67
735.146	4.83
735.461	4.78
735.776	5.77
736.091	5.31
736.405	5.18
736.72	5.27
737.034	6.2
737.349	5.23
737.663	4.96
737.977	4.99
738.292	6.02
738.606	5.4
738.92	5.95
739.234	4.36
739.548	4.14
739.862	5.17
740.176	5
740.49	4.81
740.804	6.61
741.117	4.94
741.431	5.39
741.745	6.09
742.058	5.27
742.372	5.9
742.685	3.6
742.999	4.54
743.312	6.43
743.626	5.74
743.939	6.56
744.252	7.2
744.565	3.47
744.878	5.86
745.191	4.27
745.505	5.6
745.817	5.75
746.13	6.58
746.443	4.75
746.756	5.73
747.069	6.61
747.381	3.55
747.694	3.33
748.007	6.58
748.319	4.66
748.632	4.36
748.944	5.44
749.256	6.32
749.569	4.77
749.881	4.56
750.193	6.34
750.505	4.59
750.817	4.92
751.129	3.26
751.441	5.94
751.753	6.22
752.065	6.24
752.377	4.35
752.689	7.01
753	4.38
753.312	6.71
753.624	4.91
753.935	6.25
754.247	6.29
754.558	6.7
754.869	5.33
755.181	6.99
755.492	6.1
755.803	5.97
756.114	5.58
756.425	3.41
756.736	5.61
757.047	6.26
757.358	5.41
757.669	4.31
757.98	2.32
758.291	3.69
758.601	6.01
758.912	5.24
759.223	4.01
759.533	5.21
759.844	5.78
760.154	5.87
760.464	5.84
760.775	3.23
761.085	6.29
761.395	5.49
761.705	5.55
762.016	4.54
762.326	8.02
762.636	5.9
762.945	5.43
763.255	7.13
763.565	7.07
763.875	4.01
764.185	5.94
764.494	5.38
764.804	6.35
765.113	5.63
765.423	4.79
765.732	5.95
766.042	5.67
766.351	5.09
766.66	6.04
766.97	6.73
767.279	7.03
767.588	5.33
767.897	6.35
768.206	4.8
768.515	6.2
768.824	6.61
769.133	4.34
769.441	6.19
769.75	4.82
770.059	6.89
770.367	5.82
770.676	6.06
770.984	4.31
771.293	5.48
771.601	4.36
771.91	5.64
772.218	6
772.526	6.15
772.834	4.39
773.142	8.04
773.45	9.7
773.758	6.82
774.066	4.18
774.374	4.7
774.682	6.97
774.99	5.4
775.298	6.3
775.605	3.54
775.913	4.4
776.22	7.65
776.528	3.04
776.835	4.84
777.143	3.29
777.45	4.88
777.757	5.33
778.065	8.59
778.372	3.13
778.679	5.38
778.986	5.97
779.293	5.64
779.6	3.47
779.907	5.12
780.214	5.66
780.52	6.23
780.827	3.62
781.134	2.19
781.44	1.65
781.747	7.18
782.053	3.62
782.36	3.96
782.666	10.39
782.973	4.32
783.279	5.3
783.585	6.34
783.891	5.94
784.197	9.54
784.503	4.49
784.809	4.12
785.115	4.15
785.421	2.18
785.727	8.66
786.033	4.16
786.339	7.2
786.644	9.31
786.95	6.74
787.255	5.99
787.561	8.36
787.866	1.83
788.172	1.87
788.477	7.94
788.782	5.21
789.088	8.11
789.393	6.26
789.698	6.42
790.003	4.3
790.308	6.68
790.613	6.72
790.918	6.48
791.223	4.73
791.527	3.47
791.832	7.62
792.137	4.49
792.441	7.27
792.746	4.74
793.05	6.53
793.355	7.5
793.659	7.25
793.963	3.07
794.268	7.82
794.572	5.06
794.876	3.71
795.18	8.01
795.484	9.88
795.788	-0.64
796.092	7.73
796.396	1.03
796.7	3.03
797.004	5.95
797.307	3.21
797.611	3.58
797.915	8.16
798.218	11.75
798.522	5.66
798.825	5.4
799.128	8.72
799.432	3.59
799.735	6.35
800.038	2.17
800.341	1.72
800.644	6.23
800.947	3.26
801.25	4.97
801.553	5.6
801.856	2.18
802.159	9.06
802.462	3.25
802.764	7.27
803.067	2.31
803.37	6.57
803.672	5.56
803.975	6.06
804.277	3.07
804.579	4.57
804.882	7.54
805.184	3.6
805.486	4.24
805.788	6.64
806.09	9.11
806.392	4.23
806.694	3.42
806.996	11.05
807.298	5.53
807.6	7.53
807.902	2.19
808.203	3.1
808.505	3.41
808.807	1.31
809.108	11.74
809.409	8.16
809.711	7.6
810.012	7.72
810.313	8.46
810.615	5.87
810.916	0.44
811.217	-0.41
811.518	2.55
811.819	12.01
812.12	11.48
812.421	1.04
812.722	8.35
813.023	6.72
813.323	7.67
813.624	4.15
813.925	3.05
814.225	3.88
814.526	5.71
814.826	6.86
815.126	1.31
815.427	0.26
815.727	9.72
816.027	8.56
816.327	8.08
816.627	10.37
816.927	6.91
817.227	3.01
817.527	6.35
817.827	8.23
818.127	12.92
818.427	9.31
818.727	8.67
819.026	8.05
819.326	8.2
819.625	7.6
819.925	9.4
820.224	5.85
820.524	7.26
820.823	5.46
821.122	7.26
821.421	3.06
821.72	9.08
822.019	9.91
822.318	7.23
822.617	2.22
822.916	5.39
823.215	9.5
823.514	5.26
823.813	6.66
824.111	5.82
824.41	7.56
824.709	7.05
825.007	7.67
825.306	6.06
825.604	6.71
825.902	6.63
826.201	7.95
826.499	7.16
826.797	7.88
827.095	7.52
827.393	7.89
827.691	5.15
827.989	7.81
828.287	8.07
828.585	9.62
828.882	7.63
829.18	7.23
829.478	8.55
829.775	8.14
830.073	6.89
830.37	6.43
830.668	7.33
830.965	4.9
831.263	6.39
831.56	8.14
831.857	8.02
832.154	5.64
832.451	6.27
832.748	6.83
833.045	8.42
833.342	9.09
833.639	4.46
833.936	3.76
834.232	6.21
834.529	3.51
834.826	4.47
835.122	7.96
835.419	5.13
835.715	6.56
836.012	9.35
836.308	6.45
836.604	5.88
836.901	8.26
837.197	6.31
837.493	7.74
837.789	6.74
838.085	8.23
838.381	7.31
838.677	7.17
838.972	7.88
839.268	11.1
839.564	3.48
839.86	8.14
840.155	9.44
840.451	6.06
840.746	10.07
841.042	14.25
841.337	4.24
841.632	8.29
841.928	1.9
842.223	5.2
842.518	6.81
842.813	12.03
843.108	1.59
843.403	-0.04
843.698	12.17
843.993	7.57
844.287	10.12
844.582	5.92
844.877	4.42
845.171	2.79
845.466	-5.03
845.761	11.21
846.055	2.2
846.349	-2.75
846.644	-1.73
846.938	-0.97
847.232	6.16
847.526	12.26
847.82	2.83
848.114	5.84
848.408	-6.09
848.702	-16.57
848.996	3.3
849.29	-14.66
849.584	5.19
849.877	8.34
850.171	-10.99
850.465	3.64
850.758	4.62
851.052	-10.81
851.345	24.09
851.638	20.11
851.932	-1.67
852.225	6.06
852.518	-4.49
852.811	14.08
853.104	-5.19
853.397	17.18
853.69	14.7
853.983	-16.35
854.276	19.69
854.569	25.52
854.861	5.91
855.154	13.84
855.447	13.33
855.739	19.68
856.032	18.53
856.324	17.58
856.616	6.45
856.909	4
857.201	-5.55
857.493	-4.7
857.785	-1.65
858.077	-6.95
858.369	13.27
858.661	-10.59
858.953	3.92
859.245	4.06
859.537	-6.88
859.829	11.65
860.12	22.86
860.412	15.58
860.703	-0.33
860.995	0.98
861.286	-4
861.578	-11.93
861.869	-9.54
862.16	7.41
862.452	-11.82
862.743	25.63
863.034	12.94
863.325	5.29
863.616	15.03
863.907	8.96
864.198	-2.12
864.488	-1.9
864.779	4.24
865.07	22.3
865.36	-11.43
865.651	30.54
865.941	7.39
866.232	14.01
866.522	-33.2
866.813	14.48
867.103	5.33
867.393	-0.76
867.683	3.19
867.973	-13.84
868.263	-1.4
868.553	9.47
868.843	-9.15
869.133	-11.09
869.423	24.34
869.713	21.81
870.002	16.28
870.292	15.95
870.582	6.11
870.871	19.46
871.161	-12.15
871.45	5.85
871.739	26.41
872.029	-13.33
872.318	-5.71
872.607	1.19
872.896	3.46
873.185	-20.8
873.474	26.83
873.763	14.37
874.052	8.42
874.341	14.53
874.63	-1.08
874.918	12.56
875.207	23.37
875.496	-14.37
875.784	39.32
876.073	-8.37
876.361	-0.99
876.649	1.34
876.938	3.56
877.226	12.21
877.514	10.51
877.802	5.84
878.09	2.3
878.378	17.41
878.666	11.61
878.954	6.37
879.242	-24.52
879.53	-13.96
879.817	-24.65
880.105	9.17
880.392	17.49
880.68	2.91
880.967	5.05
881.255	-11.95
881.542	12.73
881.83	1.2
882.117	21.57
882.404	12.57
882.691	2.84
882.978	27.32
883.265	-5.88
883.552	9.28
883.839	19.77
884.126	4.24
884.413	8.52
884.699	-0.38
884.986	6.54
885.273	12.08
885.559	12.08
885.846	12.08
