Data from 97282_chest_Reflection__4__95.txt Node

Date: Fri Sep 23 20:24:49 CDT 2022
User: ToomeyLab
Spectrometer: FLMS14357
Trigger mode: 0
Integration Time (sec): 1.000000E-2
Scans to average: 100
Electric dark correction enabled: true
Nonlinearity correction enabled: false
Boxcar width: 0
XAxis mode: Wavelengths
Number of Pixels in Spectrum: 2048
>>>>>Begin Spectral Data<<<<<
189.047	-298.52
189.435	-298.52
189.823	-298.52
190.211	-24.15
190.599	46.31
190.987	-49.65
191.375	1997.28
191.763	161.22
192.151	57.03
192.538	-131.92
192.926	-19.68
193.314	20.86
193.702	167.38
194.089	105.12
194.477	105.18
194.864	-314.5
195.252	39.15
195.639	122.94
196.027	16.85
196.414	-27020
196.801	38.57
197.189	-5429.41
197.576	-770.3
197.963	2179.21
198.351	7.54
198.738	-35.44
199.125	22.89
199.512	55.59
199.899	1.99
200.286	7.18
200.673	26.82
201.06	37.66
201.447	-22.75
201.833	8.66
202.22	-1.4
202.607	-5.57
202.994	0.61
203.38	-9.5
203.767	-72.54
204.154	20.12
204.54	37.47
204.927	6.52
205.313	9.03
205.699	-19.91
206.086	-18.16
206.472	26.86
206.858	42.58
207.245	-5.92
207.631	6.04
208.017	17.15
208.403	16.17
208.789	43.7
209.175	44.61
209.561	22.53
209.947	-27.92
210.333	-4.56
210.719	-0.73
211.105	7.31
211.491	48.39
211.876	-9.54
212.262	-1.3
212.648	-3.53
213.034	0.73
213.419	2.65
213.805	44.17
214.19	7.03
214.576	17.43
214.961	15.62
215.346	-18.83
215.732	7.5
216.117	7.45
216.502	-6.34
216.888	3.18
217.273	10.2
217.658	8.75
218.043	19.26
218.428	9.98
218.813	4.05
219.198	-7.43
219.583	9.41
219.968	2.77
220.353	-15.96
220.738	5.29
221.122	22.74
221.507	9.14
221.892	2.04
222.276	9.2
222.661	-7.37
223.046	-1.77
223.43	-1.53
223.815	6.15
224.199	1.46
224.583	8.46
224.968	-5.16
225.352	-2.65
225.736	-0.5
226.121	9.01
226.505	11.99
226.889	6.82
227.273	3.73
227.657	0.47
228.041	4.75
228.425	4.36
228.809	1.73
229.193	5.7
229.577	4.7
229.961	3.57
230.344	2.38
230.728	2.6
231.112	2.25
231.495	2.18
231.879	2.02
232.263	4.6
232.646	4.26
233.03	2.49
233.413	3.26
233.797	2.72
234.18	4.79
234.563	1.93
234.946	5.38
235.33	1.65
235.713	5.08
236.096	2.23
236.479	2.69
236.862	2.23
237.245	2.64
237.628	5.66
238.011	4.53
238.394	3.52
238.777	3.74
239.16	3.71
239.543	2.65
239.925	3.32
240.308	3.33
240.691	3.58
241.073	0.98
241.456	3.83
241.838	5.14
242.221	4.13
242.603	4.05
242.986	2.03
243.368	3.35
243.75	3.29
244.133	3.4
244.515	3.57
244.897	3.54
245.279	3.9
245.661	5.01
246.043	4.62
246.425	3.9
246.807	3.83
247.189	3.73
247.571	3.82
247.953	3.46
248.335	3.48
248.717	3.79
249.098	3.38
249.48	3.57
249.862	3.45
250.243	3.79
250.625	3.72
251.006	3.88
251.388	3.89
251.769	3.88
252.151	2.42
252.532	4.07
252.913	3.62
253.295	3.49
253.676	3.12
254.057	3.55
254.438	3.5
254.819	3.96
255.2	3.6
255.581	4.56
255.962	3.95
256.343	4.03
256.724	3.33
257.105	3.98
257.486	3.01
257.867	3.66
258.247	4.23
258.628	2.75
259.009	3.38
259.389	3.52
259.77	3.66
260.15	3.34
260.531	3.8
260.911	3.36
261.292	3.28
261.672	3.29
262.052	3.45
262.432	3.15
262.813	3.66
263.193	3.37
263.573	3.96
263.953	3.46
264.333	3.63
264.713	3.59
265.093	3.71
265.473	3.51
265.853	3.75
266.233	2.12
266.612	3.02
266.992	4.18
267.372	2.99
267.752	3.27
268.131	3.2
268.511	3.24
268.89	3.13
269.27	3.12
269.649	3.28
270.029	3.53
270.408	3.6
270.787	3.06
271.167	3.75
271.546	3.02
271.925	2.59
272.304	3.29
272.683	3.14
273.062	2.94
273.441	3.35
273.82	3.02
274.199	3.32
274.578	2.91
274.957	2.82
275.336	3.49
275.715	3.19
276.093	3.71
276.472	3.83
276.851	3.48
277.229	3.55
277.608	3.37
277.986	2.9
278.365	2.86
278.743	3.51
279.122	2.95
279.5	3.07
279.878	2.89
280.257	3.49
280.635	3.04
281.013	3.57
281.391	3.43
281.769	3.64
282.147	2.83
282.525	3.09
282.903	2.84
283.281	3.35
283.659	3.41
284.037	3.12
284.415	3.09
284.792	3.13
285.17	3.32
285.548	3.19
285.925	3.13
286.303	3.34
286.68	3.04
287.058	3.17
287.435	3.18
287.813	3.32
288.19	3.17
288.567	3.42
288.945	3.15
289.322	2.8
289.699	3.57
290.076	3.08
290.453	3.16
290.83	3.58
291.207	3.11
291.584	3.84
291.961	3.3
292.338	3.22
292.715	3.13
293.092	3.2
293.469	3.72
293.845	3.6
294.222	3.49
294.599	3.44
294.975	3.61
295.352	3.89
295.728	3.49
296.105	3.41
296.481	3.43
296.858	3.92
297.234	3.83
297.61	3.21
297.986	3.7
298.363	3.76
298.739	3.84
299.115	3.47
299.491	3.55
299.867	3.68
300.243	3.75
300.619	3.72
300.995	4.2
301.371	3.52
301.746	3.97
302.122	3.67
302.498	4.12
302.874	3.46
303.249	3.87
303.625	3.99
304	3.65
304.376	3.86
304.751	3.88
305.127	3.57
305.502	3.49
305.878	4.12
306.253	3.99
306.628	4.23
307.003	3.16
307.378	4.28
307.754	4.2
308.129	3.8
308.504	3.96
308.879	4.3
309.254	4
309.629	4.32
310.003	4.24
310.378	4.42
310.753	4.22
311.128	3.93
311.502	3.81
311.877	4.31
312.252	3.81
312.626	4.35
313.001	4.34
313.375	4.08
313.75	3.92
314.124	3.69
314.498	4.21
314.873	4.24
315.247	4.35
315.621	4.68
315.995	4.43
316.369	3.85
316.743	3.59
317.117	3.56
317.491	3.88
317.865	4.16
318.239	4.33
318.613	4.18
318.987	4
319.361	3.75
319.734	3.86
320.108	3.58
320.482	3.89
320.855	4.24
321.229	4.46
321.602	4.03
321.976	4.75
322.349	4.59
322.723	4.3
323.096	4.27
323.469	3.75
323.843	4.15
324.216	4.39
324.589	4.27
324.962	4.18
325.335	3.52
325.708	4.44
326.081	3.97
326.454	3.72
326.827	4.37
327.2	3.8
327.573	4.5
327.945	4.2
328.318	3.64
328.691	4.63
329.063	4.14
329.436	4.18
329.809	4.49
330.181	4.27
330.553	4.75
330.926	4.42
331.298	4.27
331.671	4.65
332.043	4.48
332.415	4.24
332.787	3.9
333.159	4.11
333.532	3.96
333.904	3.74
334.276	3.62
334.648	4.11
335.02	4.19
335.391	4.38
335.763	4.02
336.135	4.44
336.507	4.79
336.879	4.54
337.25	4.66
337.622	4.82
337.993	4.56
338.365	4.72
338.736	4.78
339.108	4.81
339.479	4.05
339.851	4.76
340.222	4.64
340.593	3.86
340.964	4.7
341.336	4.19
341.707	4.93
342.078	4.14
342.449	4.41
342.82	4.16
343.191	4.13
343.562	4.21
343.933	4.59
344.303	4.63
344.674	4.35
345.045	4.58
345.416	4.16
345.786	4.61
346.157	4.28
346.527	4.58
346.898	4.35
347.268	4.4
347.639	4.2
348.009	4.53
348.38	4.45
348.75	4.79
349.12	4.62
349.49	4.53
349.861	4.66
350.231	4.53
350.601	4.47
350.971	4.51
351.341	4.48
351.711	4.3
352.081	4.26
352.45	4.09
352.82	4.13
353.19	4.75
353.56	4.95
353.929	3.99
354.299	4.69
354.669	4.52
355.038	4.45
355.408	4.32
355.777	4.35
356.147	4.46
356.516	4.81
356.885	4.61
357.254	4.14
357.624	4.25
357.993	4.41
358.362	4.31
358.731	4.48
359.1	4.25
359.469	4.3
359.838	4.46
360.207	4.75
360.576	4.31
360.945	4.58
361.314	4.38
361.682	4.54
362.051	4.65
362.42	4.57
362.788	4.29
363.157	4.59
363.525	4.37
363.894	4.51
364.262	4.49
364.631	4.62
364.999	4.38
365.367	4.27
365.735	4.57
366.104	4.44
366.472	4.35
366.84	4.66
367.208	4.71
367.576	4.8
367.944	4.59
368.312	4.72
368.68	4.48
369.048	4.28
369.416	4.3
369.783	4.36
370.151	4.58
370.519	4.46
370.886	4.73
371.254	4.73
371.621	4.66
371.989	4.41
372.356	4.83
372.724	4.24
373.091	4.36
373.458	4.49
373.826	4.72
374.193	4.63
374.56	4.68
374.927	4.83
375.294	4.53
375.661	4.95
376.028	4.57
376.395	4.66
376.762	4.36
377.129	4.33
377.496	4.88
377.863	4.72
378.229	4.31
378.596	4.51
378.963	4.91
379.329	4.62
379.696	4.31
380.062	4.65
380.429	4.35
380.795	4.68
381.161	4.6
381.528	4.5
381.894	4.47
382.26	4.41
382.626	4.44
382.993	4.54
383.359	4.64
383.725	4.87
384.091	4.57
384.457	4.74
384.823	4.61
385.188	4.78
385.554	4.87
385.92	5.14
386.286	4.62
386.651	4.74
387.017	4.84
387.383	4.69
387.748	4.94
388.114	4.91
388.479	4.52
388.845	4.63
389.21	4.48
389.575	4.75
389.94	4.56
390.306	4.74
390.671	4.51
391.036	4.81
391.401	4.68
391.766	4.97
392.131	4.84
392.496	4.82
392.861	4.62
393.226	4.68
393.591	4.76
393.956	4.95
394.32	4.82
394.685	4.92
395.05	4.88
395.414	4.72
395.779	4.65
396.143	4.62
396.508	4.85
396.872	4.56
397.236	4.97
397.601	4.71
397.965	4.97
398.329	4.93
398.694	4.71
399.058	4.86
399.422	4.63
399.786	5
400.15	4.8
400.514	4.7
400.878	4.85
401.242	4.72
401.605	5.01
401.969	4.97
402.333	4.83
402.697	4.42
403.06	4.98
403.424	4.86
403.787	4.94
404.151	4.97
404.514	4.66
404.878	4.56
405.241	4.71
405.604	4.84
405.968	4.87
406.331	4.62
406.694	4.93
407.057	4.78
407.42	4.78
407.783	4.83
408.146	4.73
408.509	4.85
408.872	4.91
409.235	5.07
409.598	4.97
409.961	5.03
410.323	4.68
410.686	5.19
411.049	4.8
411.411	5.12
411.774	4.82
412.136	4.91
412.499	5.02
412.861	4.77
413.223	4.91
413.586	5.01
413.948	4.92
414.31	4.98
414.672	5.15
415.035	4.98
415.397	5.09
415.759	5.1
416.121	5.18
416.483	4.86
416.845	4.75
417.206	4.91
417.568	5.04
417.93	4.88
418.292	5.14
418.653	5.15
419.015	4.94
419.377	4.85
419.738	5.03
420.1	4.93
420.461	5.1
420.822	4.95
421.184	5.07
421.545	4.99
421.906	4.85
422.267	4.83
422.629	4.87
422.99	4.84
423.351	4.82
423.712	4.85
424.073	4.94
424.434	4.98
424.795	5.04
425.155	4.91
425.516	5.01
425.877	4.89
426.238	4.96
426.598	4.96
426.959	5.05
427.32	5.05
427.68	5.04
428.041	5.05
428.401	5.03
428.761	5.01
429.122	5.2
429.482	5.18
429.842	5.28
430.202	5.36
430.563	5.05
430.923	5.02
431.283	5.2
431.643	5.13
432.003	5.07
432.363	5.1
432.722	5.17
433.082	5.06
433.442	5.04
433.802	5.21
434.161	5.12
434.521	4.9
434.881	4.89
435.24	5
435.6	5.08
435.959	5.16
436.319	5.13
436.678	5.23
437.037	5.24
437.396	5.19
437.756	5.12
438.115	5.14
438.474	5.15
438.833	5.23
439.192	5.31
439.551	5.2
439.91	5.17
440.269	5.4
440.628	5.05
440.987	5.04
441.345	5.22
441.704	5.15
442.063	5.2
442.421	5.06
442.78	5.16
443.138	5.09
443.497	5.27
443.855	5.23
444.214	5.26
444.572	5.12
444.93	5.21
445.288	5.23
445.647	5.28
446.005	5.27
446.363	5.3
446.721	5.19
447.079	5.26
447.437	5.3
447.795	5.2
448.153	5.14
448.51	5.15
448.868	5.19
449.226	5.3
449.584	5.22
449.941	5.32
450.299	5.31
450.656	5.33
451.014	5.38
451.371	5.18
451.729	5.23
452.086	5.39
452.443	5.49
452.801	5.38
453.158	5.38
453.515	5.28
453.872	5.36
454.229	5.41
454.586	5.42
454.943	5.42
455.3	5.39
455.657	5.57
456.014	5.54
456.371	5.41
456.727	5.53
457.084	5.41
457.441	5.62
457.797	5.37
458.154	5.44
458.51	5.25
458.867	5.52
459.223	5.41
459.58	5.36
459.936	5.42
460.292	5.42
460.648	5.5
461.005	5.35
461.361	5.41
461.717	5.36
462.073	5.43
462.429	5.38
462.785	5.53
463.141	5.56
463.496	5.58
463.852	5.59
464.208	5.51
464.564	5.6
464.919	5.69
465.275	5.64
465.631	5.43
465.986	5.36
466.342	5.53
466.697	5.61
467.052	5.76
467.408	5.71
467.763	5.59
468.118	5.43
468.473	5.58
468.829	5.56
469.184	5.56
469.539	5.56
469.894	5.7
470.249	5.57
470.603	5.67
470.958	5.76
471.313	5.55
471.668	5.7
472.023	5.64
472.377	5.71
472.732	5.67
473.086	5.55
473.441	5.64
473.795	5.77
474.15	5.77
474.504	5.63
474.859	5.85
475.213	6.07
475.567	5.68
475.921	5.82
476.275	5.64
476.63	5.81
476.984	5.89
477.338	5.93
477.692	5.8
478.045	5.64
478.399	5.79
478.753	5.84
479.107	5.6
479.461	5.72
479.814	5.78
480.168	5.73
480.521	5.65
480.875	5.82
481.228	6.04
481.582	5.74
481.935	5.84
482.289	5.82
482.642	5.78
482.995	5.89
483.348	5.55
483.701	5.75
484.055	5.72
484.408	5.62
484.761	5.62
485.114	5.42
485.466	5.36
485.819	5.34
486.172	5.48
486.525	5.65
486.878	5.71
487.23	5.72
487.583	5.79
487.936	5.76
488.288	5.67
488.641	5.63
488.993	5.63
489.345	5.61
489.698	5.62
490.05	5.67
490.402	5.67
490.754	5.8
491.107	5.87
491.459	5.84
491.811	5.88
492.163	5.95
492.515	5.79
492.866	5.75
493.218	5.67
493.57	5.62
493.922	5.79
494.274	5.88
494.625	5.94
494.977	5.97
495.328	6.09
495.68	6.11
496.031	6.12
496.383	6.22
496.734	6.06
497.086	6.07
497.437	6.29
497.788	6.19
498.139	6
498.49	5.99
498.842	5.96
499.193	6.04
499.544	6.09
499.894	6.09
500.245	6.07
500.596	6.09
500.947	6.04
501.298	6.22
501.648	6.3
501.999	6.17
502.35	6.26
502.7	6.27
503.051	6.18
503.401	6.32
503.752	6.23
504.102	6.38
504.452	6.41
504.803	6.14
505.153	6.25
505.503	6.16
505.853	6.39
506.203	6.31
506.553	6.3
506.903	6.29
507.253	6.36
507.603	6.37
507.953	6.33
508.303	6.25
508.652	6.32
509.002	6.38
509.352	6.42
509.701	6.26
510.051	6.44
510.4	6.37
510.75	6.35
511.099	6.42
511.449	6.33
511.798	6.41
512.147	6.45
512.496	6.4
512.846	6.48
513.195	6.4
513.544	6.5
513.893	6.45
514.242	6.45
514.591	6.52
514.939	6.58
515.288	6.51
515.637	6.58
515.986	6.65
516.334	6.51
516.683	6.64
517.032	6.46
517.38	6.71
517.729	6.69
518.077	6.53
518.426	6.68
518.774	6.63
519.122	6.55
519.47	6.48
519.819	6.58
520.167	6.52
520.515	6.48
520.863	6.62
521.211	6.61
521.559	6.69
521.907	6.75
522.255	6.77
522.602	6.7
522.95	6.75
523.298	6.72
523.645	6.7
523.993	6.84
524.341	6.95
524.688	6.83
525.036	6.78
525.383	6.69
525.73	6.96
526.078	6.8
526.425	6.9
526.772	6.85
527.119	6.69
527.466	6.72
527.814	6.73
528.161	6.87
528.508	6.85
528.854	6.85
529.201	6.88
529.548	6.68
529.895	6.6
530.242	6.51
530.588	6.52
530.935	6.66
531.282	6.74
531.628	6.79
531.975	6.91
532.321	6.91
532.667	6.98
533.014	6.98
533.36	7.03
533.706	6.97
534.052	6.99
534.399	7.01
534.745	6.85
535.091	6.89
535.437	6.85
535.783	7.01
536.129	7.06
536.474	7.17
536.82	7.1
537.166	7.19
537.512	7.15
537.857	7.11
538.203	7.1
538.549	7.09
538.894	7.13
539.239	7.26
539.585	7.33
539.93	7.41
540.276	7.41
540.621	7.36
540.966	7.34
541.311	7.39
541.656	7.35
542.001	7.51
542.346	7.19
542.691	7.13
543.036	7.1
543.381	7.14
543.726	7.23
544.071	7.3
544.415	7.41
544.76	7.37
545.105	7.46
545.449	7.44
545.794	7.45
546.138	7.53
546.483	7.58
546.827	7.57
547.171	7.61
547.516	7.68
547.86	7.57
548.204	7.64
548.548	7.54
548.892	7.59
549.236	7.77
549.58	7.71
549.924	7.9
550.268	7.98
550.612	7.82
550.956	7.95
551.3	7.86
551.643	7.84
551.987	7.83
552.33	7.88
552.674	7.97
553.017	8.03
553.361	7.92
553.704	7.9
554.048	7.99
554.391	7.95
554.734	8.13
555.077	8.06
555.42	8.03
555.764	8.01
556.107	8.14
556.45	8.33
556.793	8.11
557.135	8.21
557.478	8.34
557.821	8.12
558.164	8.18
558.507	8.18
558.849	8.47
559.192	8.35
559.534	8.58
559.877	8.33
560.219	8.41
560.562	8.35
560.904	8.37
561.246	8.32
561.589	8.57
561.931	8.46
562.273	8.58
562.615	8.43
562.957	8.4
563.299	8.38
563.641	8.48
563.983	8.54
564.325	8.66
564.667	8.46
565.008	8.59
565.35	8.63
565.692	8.7
566.033	8.59
566.375	8.83
566.716	8.57
567.058	8.75
567.399	8.6
567.741	8.7
568.082	8.78
568.423	8.66
568.764	8.85
569.105	8.81
569.447	8.67
569.788	8.95
570.129	8.84
570.47	8.94
570.811	8.9
571.151	9.08
571.492	8.84
571.833	8.93
572.174	9.02
572.514	9
572.855	8.91
573.195	8.87
573.536	9.14
573.876	8.81
574.217	8.95
574.557	9.09
574.898	9.1
575.238	9.22
575.578	9.07
575.918	8.99
576.258	9.26
576.598	9.25
576.938	9.28
577.278	9.28
577.618	9.27
577.958	9.36
578.298	9.34
578.638	9.31
578.977	9.37
579.317	9.55
579.657	9.51
579.996	9.41
580.336	9.68
580.675	9.67
581.014	9.75
581.354	9.73
581.693	9.64
582.032	9.64
582.372	9.81
582.711	9.6
583.05	9.8
583.389	9.66
583.728	9.87
584.067	9.89
584.406	9.68
584.745	9.98
585.083	9.87
585.422	9.78
585.761	9.82
586.1	9.91
586.438	9.88
586.777	9.89
587.115	9.93
587.454	10.01
587.792	10.29
588.13	9.84
588.469	9.99
588.807	9.92
589.145	10.2
589.483	10.19
589.821	10.09
590.159	10.26
590.497	10.09
590.835	10.09
591.173	10.26
591.511	10.4
591.849	9.94
592.187	10.57
592.524	10.64
592.862	10.32
593.2	10.41
593.537	10.6
593.875	10.48
594.212	10.54
594.55	10.15
594.887	10.77
595.224	10.36
595.561	10.37
595.899	10.33
596.236	10.28
596.573	10.63
596.91	10.48
597.247	10.67
597.584	10.57
597.921	10.7
598.258	10.51
598.594	10.49
598.931	10.53
599.268	10.49
599.604	10.78
599.941	10.85
600.277	10.77
600.614	10.86
600.95	10.83
601.287	10.8
601.623	10.69
601.959	10.82
602.296	11.01
602.632	10.89
602.968	10.54
603.304	10.99
603.64	11.15
603.976	10.87
604.312	11.31
604.648	11.26
604.984	10.93
605.319	11.23
605.655	10.92
605.991	10.76
606.326	11.01
606.662	11.01
606.998	11.2
607.333	11.15
607.668	11.1
608.004	11.31
608.339	11.44
608.674	11.44
609.01	11.22
609.345	11.69
609.68	11.57
610.015	11.43
610.35	11.6
610.685	11.41
611.02	11.5
611.355	11.36
611.689	11.64
612.024	11.57
612.359	11.4
612.694	11.82
613.028	11.78
613.363	11.85
613.697	11.62
614.032	11.59
614.366	11.92
614.7	11.67
615.035	11.99
615.369	12.14
615.703	11.92
616.037	11.86
616.371	11.97
616.705	12.12
617.039	12.12
617.373	12.3
617.707	12.29
618.041	12.29
618.375	12.46
618.709	11.79
619.042	11.89
619.376	12.28
619.71	12.39
620.043	12.08
620.377	11.88
620.71	12.66
621.043	12.11
621.377	11.95
621.71	12.31
622.043	12.06
622.376	12.4
622.709	12.48
623.043	12.03
623.376	12.49
623.709	12.19
624.041	12.56
624.374	12.33
624.707	12.51
625.04	12.69
625.373	12.67
625.705	12.44
626.038	12.4
626.37	12.68
626.703	12.95
627.035	13.08
627.368	12.86
627.7	12.64
628.032	12.52
628.365	12.55
628.697	12.48
629.029	12.83
629.361	13.02
629.693	12.66
630.025	13.06
630.357	12.94
630.689	13.09
631.021	13.06
631.353	13.36
631.684	12.74
632.016	13.46
632.348	13.09
632.679	13.01
633.011	13.17
633.342	13.06
633.674	13.43
634.005	13.15
634.336	13.29
634.668	13.39
634.999	13.25
635.33	13.47
635.661	13.3
635.992	13.28
636.323	13.49
636.654	13.45
636.985	13.68
637.316	13.29
637.647	13.44
637.977	13.45
638.308	13.4
638.639	13.29
638.969	13.9
639.3	13.6
639.63	13.63
639.961	13.63
640.291	13.69
640.622	13.78
640.952	13.52
641.282	13.9
641.612	13.64
641.943	13.61
642.273	14.05
642.603	14
642.933	14.23
643.263	13.95
643.592	13.96
643.922	14.35
644.252	14.23
644.582	14.45
644.911	13.79
645.241	14.3
645.571	14.4
645.9	14.3
646.23	14.12
646.559	14
646.888	14.05
647.218	14.27
647.547	14.2
647.876	14.14
648.205	14.15
648.534	14.27
648.863	14.5
649.192	14.58
649.521	14.08
649.85	13.79
650.179	14.29
650.508	14.11
650.837	14.12
651.165	14.63
651.494	14.34
651.822	14.73
652.151	14.45
652.479	14.56
652.808	14.58
653.136	14.29
653.465	14.85
653.793	14.87
654.121	14.5
654.449	14.35
654.777	15.09
655.105	14.85
655.433	14.66
655.761	14.83
656.089	14.79
656.417	14.86
656.745	14.57
657.073	14.61
657.4	15.58
657.728	15.12
658.056	15.34
658.383	15.08
658.711	14.57
659.038	14.38
659.365	14.65
659.693	14.96
660.02	15.02
660.347	14.66
660.674	15.11
661.001	15.24
661.329	14.98
661.656	15.27
661.982	15.22
662.309	15.45
662.636	15.35
662.963	15.2
663.29	15.55
663.616	15.02
663.943	15.68
664.27	15.15
664.596	15.59
664.923	15.37
665.249	15.63
665.576	15.71
665.902	14.97
666.228	15.81
666.554	15.39
666.881	15.66
667.207	15.45
667.533	15.82
667.859	15.61
668.185	16.01
668.511	15.63
668.837	15.98
669.162	15.76
669.488	16.1
669.814	16.25
670.139	15.39
670.465	15.47
670.791	15.69
671.116	15.82
671.442	15.98
671.767	15.88
672.092	15.64
672.418	16.05
672.743	16.21
673.068	15.8
673.393	16.43
673.718	15.82
674.043	16.46
674.368	16.37
674.693	16.2
675.018	16.37
675.343	16.8
675.667	16.45
675.992	17.07
676.317	16.4
676.641	16
676.966	16.37
677.29	16.06
677.615	16.53
677.939	16.37
678.264	16.5
678.588	15.84
678.912	16.51
679.236	16.55
679.56	16.59
679.885	16.93
680.209	16.92
680.532	16.21
680.856	16.39
681.18	16.61
681.504	16.42
681.828	16.68
682.152	16.95
682.475	16.47
682.799	16.92
683.122	16.31
683.446	17.08
683.769	16.65
684.093	16.92
684.416	17.3
684.739	16.71
685.062	15.77
685.386	16.94
685.709	16.42
686.032	16.81
686.355	17.41
686.678	16.83
687.001	17.23
687.324	17.63
687.646	17.03
687.969	16.74
688.292	16.43
688.614	17.63
688.937	17.15
689.26	16.76
689.582	16.94
689.904	17.51
690.227	17.01
690.549	16.87
690.871	17.66
691.194	16.77
691.516	16.61
691.838	17.43
692.16	17.17
692.482	17.52
692.804	16.98
693.126	18.19
693.448	16.89
693.769	18.28
694.091	17.73
694.413	17.44
694.735	17.63
695.056	17.57
695.378	17.7
695.699	17.98
696.021	18.57
696.342	18.03
696.663	17.47
696.984	17.8
697.306	18.23
697.627	18.43
697.948	16.98
698.269	18.08
698.59	17.87
698.911	18.06
699.232	17.23
699.553	17.47
699.873	18.02
700.194	17.76
700.515	17.77
700.835	18.22
701.156	17.73
701.477	18.3
701.797	18.66
702.117	17.7
702.438	18.26
702.758	18.18
703.078	18.46
703.398	18.47
703.719	18.55
704.039	18.47
704.359	18.76
704.679	18.49
704.999	17.96
705.319	17.82
705.638	18.31
705.958	18.14
706.278	18.11
706.597	18.07
706.917	18.51
707.237	18.03
707.556	18.64
707.876	18.16
708.195	17.76
708.514	18.47
708.834	16.67
709.153	19.06
709.472	18.87
709.791	18.87
710.11	18.68
710.429	19.46
710.748	19.07
711.067	19
711.386	18.73
711.705	17.71
712.023	18.76
712.342	18.92
712.661	17.63
712.979	18.04
713.298	19.15
713.616	18.97
713.935	18.74
714.253	19.63
714.572	19.01
714.89	18.28
715.208	19.22
715.526	19.38
715.844	18.72
716.162	19.08
716.48	19.19
716.798	19.58
717.116	20.08
717.434	19.05
717.752	19.21
718.069	19.39
718.387	18.74
718.705	18.95
719.022	19.22
719.34	17.82
719.657	19.03
719.975	19.55
720.292	19.34
720.609	19.06
720.927	20.22
721.244	20.28
721.561	20.49
721.878	18.43
722.195	19.58
722.512	19.98
722.829	19.55
723.146	20.32
723.463	19.22
723.779	19.67
724.096	19.6
724.413	19.75
724.729	19.9
725.046	19.79
725.362	21.4
725.679	20.76
725.995	20.61
726.311	20.47
726.628	20.9
726.944	20.36
727.26	20.99
727.576	20.62
727.892	18.84
728.208	19.88
728.524	20.57
728.84	20.44
729.156	19.53
729.472	20.66
729.787	20.34
730.103	20.28
730.419	21.12
730.734	20.53
731.05	20.76
731.365	20.57
731.681	21.08
731.996	20.64
732.311	21.01
732.626	20.12
732.942	20.15
733.257	21.13
733.572	20.5
733.887	22.48
734.202	20.54
734.517	20.73
734.832	20.98
735.146	20.9
735.461	20.34
735.776	20.08
736.091	21.04
736.405	20.08
736.72	21.85
737.034	19.87
737.349	19.17
737.663	22.29
737.977	21.15
738.292	22.66
738.606	22.42
738.92	20.2
739.234	20.43
739.548	20.58
739.862	19.77
740.176	20.62
740.49	20.43
740.804	20.93
741.117	22.12
741.431	21.73
741.745	20.67
742.058	22
742.372	22.69
742.685	22.87
742.999	21.35
743.312	20.82
743.626	19.74
743.939	22.71
744.252	20.01
744.565	20.97
744.878	21.88
745.191	21.14
745.505	22.54
745.817	21.32
746.13	19.95
746.443	21.99
746.756	20.83
747.069	22.54
747.381	21.77
747.694	22.84
748.007	22.68
748.319	21.14
748.632	21.74
748.944	22.34
749.256	21.33
749.569	22.07
749.881	19.59
750.193	21.75
750.505	22.71
750.817	22.05
751.129	20.61
751.441	22
751.753	22.35
752.065	22.22
752.377	22.73
752.689	21.3
753	22.03
753.312	20.9
753.624	21.77
753.935	22.78
754.247	22.68
754.558	22.99
754.869	22.12
755.181	21.78
755.492	22.57
755.803	21.92
756.114	21.65
756.425	23.51
756.736	23.02
757.047	23.62
757.358	23.87
757.669	21.38
757.98	22.5
758.291	22.62
758.601	22.93
758.912	23.24
759.223	23.59
759.533	23.49
759.844	23.61
760.154	23.12
760.464	22.41
760.775	22.79
761.085	20.7
761.395	19.81
761.705	22.04
762.016	23.43
762.326	23.4
762.636	23.85
762.945	23.2
763.255	21.91
763.565	23.49
763.875	23.1
764.185	23.86
764.494	21.37
764.804	23.13
765.113	22.84
765.423	22.72
765.732	23.27
766.042	23.77
766.351	22.63
766.66	21.97
766.97	23.61
767.279	23.03
767.588	22.85
767.897	22.99
768.206	22.14
768.515	22.89
768.824	24.51
769.133	23.87
769.441	23.37
769.75	23.71
770.059	24.47
770.367	24.73
770.676	23.45
770.984	23.57
771.293	21.18
771.601	24.29
771.91	24.98
772.218	23.11
772.526	20.53
772.834	21.72
773.142	23.47
773.45	21.32
773.758	21.16
774.066	22.96
774.374	23.87
774.682	23.46
774.99	22.83
775.298	24.21
775.605	22.46
775.913	22.18
776.22	20.85
776.528	23.65
776.835	25.02
777.143	21.89
777.45	23.91
777.757	21.89
778.065	22.64
778.372	21.18
778.679	22.95
778.986	25.16
779.293	25.91
779.6	26.2
779.907	24.98
780.214	25.22
780.52	23.73
780.827	24.07
781.134	26.6
781.44	24.42
781.747	24.87
782.053	22.19
782.36	22.47
782.666	22.41
782.973	24.03
783.279	21.13
783.585	25.76
783.891	26.96
784.197	25.3
784.503	26.73
784.809	26.79
785.115	26.53
785.421	25.85
785.727	24.93
786.033	28.15
786.339	19.82
786.644	23.57
786.95	23.49
787.255	24.51
787.561	22.91
787.866	24.77
788.172	29.25
788.477	30.02
788.782	22.86
789.088	26.12
789.393	28.83
789.698	25.54
790.003	26.36
790.308	25.37
790.613	25.69
790.918	24.05
791.223	24.08
791.527	24.85
791.832	26.4
792.137	23.88
792.441	26.22
792.746	27.41
793.05	23.21
793.355	27.22
793.659	25.83
793.963	26.13
794.268	25.64
794.572	23.73
794.876	27.49
795.18	26.62
795.484	28
795.788	25.3
796.092	22.97
796.396	20.76
796.7	22.15
797.004	26.27
797.307	26.26
797.611	28.44
797.915	29.53
798.218	23.46
798.522	26.68
798.825	25.28
799.128	25.98
799.432	25.46
799.735	23.93
800.038	24.93
800.341	26.28
800.644	18.8
800.947	26.19
801.25	31.11
801.553	25.28
801.856	24.04
802.159	22.65
802.462	27.23
802.764	26.47
803.067	23.33
803.37	29.81
803.672	24.87
803.975	27.7
804.277	27.31
804.579	27.53
804.882	28.63
805.184	24.19
805.486	24.23
805.788	31.24
806.09	23.07
806.392	28.95
806.694	25.61
806.996	25.72
807.298	29.07
807.6	31.08
807.902	25.54
808.203	29.74
808.505	25.9
808.807	27.78
809.108	28.56
809.409	28.48
809.711	26.76
810.012	26.69
810.313	24.45
810.615	20.99
810.916	25.47
811.217	22.65
811.518	23.85
811.819	28.25
812.12	27.75
812.421	23.51
812.722	25.16
813.023	27.36
813.323	23.25
813.624	30.17
813.925	24.84
814.225	21.28
814.526	28.4
814.826	25.16
815.126	23.63
815.427	25.26
815.727	27.48
816.027	29.8
816.327	27.76
816.627	25.48
816.927	33.41
817.227	23.43
817.527	30.47
817.827	30.77
818.127	28.22
818.427	31.47
818.727	24.26
819.026	24.2
819.326	25.04
819.625	32.38
819.925	29.45
820.224	27.62
820.524	26.06
820.823	27.55
821.122	24.19
821.421	25.54
821.72	26.39
822.019	23.95
822.318	31.64
822.617	23.22
822.916	25.68
823.215	25.96
823.514	24.68
823.813	24.66
824.111	28.5
824.41	25.52
824.709	27.06
825.007	26.77
825.306	27.69
825.604	27.58
825.902	26.86
826.201	28.06
826.499	28.4
826.797	28.97
827.095	27.35
827.393	29.65
827.691	28.73
827.989	30.03
828.287	29.36
828.585	29.26
828.882	27.5
829.18	29.78
829.478	28.49
829.775	26.48
830.073	30.21
830.37	27.85
830.668	28.2
830.965	29.56
831.263	28.83
831.56	29.22
831.857	30.52
832.154	27.09
832.451	28.51
832.748	24
833.045	28.76
833.342	29.65
833.639	25.15
833.936	25.89
834.232	27.87
834.529	26.72
834.826	33.66
835.122	27.21
835.419	30.79
835.715	31.9
836.012	26.86
836.308	30.55
836.604	28.99
836.901	28.83
837.197	28.71
837.493	26.06
837.789	27.95
838.085	26.1
838.381	26.14
838.677	30.14
838.972	29.46
839.268	27.69
839.564	24.71
839.86	29.19
840.155	32.93
840.451	30.16
840.746	32.77
841.042	28.23
841.337	23.47
841.632	30.65
841.928	34.01
842.223	33.3
842.518	34
842.813	32.42
843.108	33.14
843.403	27.83
843.698	29.38
843.993	27.58
844.287	34.92
844.582	26.02
844.877	24.53
845.171	24.49
845.466	34.12
845.761	34.96
846.055	36.52
846.349	18.24
846.644	23.46
846.938	19.2
847.232	30.75
847.526	32.17
847.82	34.68
848.114	29.81
848.408	37.22
848.702	38.93
848.996	36.41
849.29	39.42
849.584	28.28
849.877	28.93
850.171	12.75
850.465	36.62
850.758	14.36
851.052	51.05
851.345	39.8
851.638	32.28
851.932	29.96
852.225	18.39
852.518	23.27
852.811	11.33
853.104	27.44
853.397	26.41
853.69	21.03
853.983	-1.09
854.276	30.2
854.569	31.57
854.861	23.85
855.154	29.36
855.447	28.04
855.739	22.09
856.032	31.32
856.324	35.75
856.616	33.31
856.909	28.04
857.201	32
857.493	36.88
857.785	34.48
858.077	43.05
858.369	35.1
858.661	36.02
858.953	22.17
859.245	47.31
859.537	37.69
859.829	-13.55
860.12	37.4
860.412	16.83
860.703	30.6
860.995	33.47
861.286	29.53
861.578	27.92
861.869	22.86
862.16	34.17
862.452	36.86
862.743	29.68
863.034	34.93
863.325	38.77
863.616	32.22
863.907	36.19
864.198	35.91
864.488	24.5
864.779	32.56
865.07	20.49
865.36	19.28
865.651	36.99
865.941	35.28
866.232	42.94
866.522	35.02
866.813	35.52
867.103	32.11
867.393	16.01
867.683	26.43
867.973	24.55
868.263	12.47
868.553	4.22
868.843	52.1
869.133	32.38
869.423	38.56
869.713	-19.11
870.002	11.2
870.292	45.93
870.582	30.52
870.871	37.57
871.161	8.15
871.45	11.91
871.739	50.37
872.029	45.31
872.318	55.65
872.607	44.69
872.896	22.3
873.185	37.74
873.474	39.29
873.763	19.65
874.052	19.72
874.341	29.27
874.63	35
874.918	27.15
875.207	55.21
875.496	22.4
875.784	29.65
876.073	29.22
876.361	48.1
876.649	24.98
876.938	44.31
877.226	23.89
877.514	18.02
877.802	19.45
878.09	55.62
878.378	58.21
878.666	55.46
878.954	34.67
879.242	31.1
879.53	50.49
879.817	44.01
880.105	46.6
880.392	39.72
880.68	37.69
880.967	22.82
881.255	34.51
881.542	24.75
881.83	21.51
882.117	34.12
882.404	27.58
882.691	27.86
882.978	12.15
883.265	35.63
883.552	36.48
883.839	31.96
884.126	21.61
884.413	31.19
884.699	29.81
884.986	31.72
885.273	30.66
885.559	30.66
885.846	30.66
