Data from 97282_crown_Reflection__3__104.txt Node

Date: Fri Sep 23 20:29:24 CDT 2022
User: ToomeyLab
Spectrometer: FLMS14357
Trigger mode: 0
Integration Time (sec): 1.000000E-2
Scans to average: 100
Electric dark correction enabled: true
Nonlinearity correction enabled: false
Boxcar width: 0
XAxis mode: Wavelengths
Number of Pixels in Spectrum: 2048
>>>>>Begin Spectral Data<<<<<
189.047	-254.55
189.435	-254.55
189.823	-254.55
190.211	67.79
190.599	-23.14
190.987	-80.1
191.375	212.35
191.763	120.2
192.151	-27.4
192.538	-49.16
192.926	110.91
193.314	92.53
193.702	66
194.089	116.79
194.477	72.33
194.864	-121.36
195.252	154.66
195.639	162.58
196.027	154.35
196.414	81520
196.801	49.9
197.189	-550.59
197.576	-390.3
197.963	2594.06
198.351	21.26
198.738	-78.16
199.125	23.47
199.512	-31.4
199.899	-0.26
200.286	-19.92
200.673	45.08
201.06	0.57
201.447	38.82
201.833	21.85
202.22	6.46
202.607	4.35
202.994	34.63
203.38	-21.24
203.767	-22.61
204.154	40.27
204.54	21.73
204.927	34.88
205.313	3.68
205.699	-39.59
206.086	-55.21
206.472	50.7
206.858	21.89
207.245	-4.72
207.631	26.57
208.017	25.68
208.403	32.55
208.789	26.69
209.175	9.91
209.561	28.52
209.947	5.4
210.333	-5.79
210.719	46.04
211.105	-0.8
211.491	-12.15
211.876	5.33
212.262	0.48
212.648	-32.62
213.034	-62.29
213.419	-39.15
213.805	42.36
214.19	0.58
214.576	2.08
214.961	24.58
215.346	-28.04
215.732	24.02
216.117	9.93
216.502	-21.06
216.888	17.83
217.273	-8.44
217.658	13.84
218.043	16.71
218.428	14.92
218.813	9.08
219.198	7.04
219.583	12.03
219.968	16.04
220.353	-20.83
220.738	-2.2
221.122	9.61
221.507	8.62
221.892	0.93
222.276	-7.22
222.661	-14.6
223.046	4.17
223.43	-0.45
223.815	10.22
224.199	7.84
224.583	3.35
224.968	1.94
225.352	0.13
225.736	7.31
226.121	13.8
226.505	8.63
226.889	2.04
227.273	3.36
227.657	3.85
228.041	7.4
228.425	4.99
228.809	6.23
229.193	7.6
229.577	6.2
229.961	6.5
230.344	5.07
230.728	5.24
231.112	5.02
231.495	5.07
231.879	3.87
232.263	6.03
232.646	4.48
233.03	6.02
233.413	5.65
233.797	5.36
234.18	6.86
234.563	4.62
234.946	6.79
235.33	4.81
235.713	7.46
236.096	3.63
236.479	4.57
236.862	4.37
237.245	5.37
237.628	6.9
238.011	6.03
238.394	6.28
238.777	6.16
239.16	5.26
239.543	6.41
239.925	4.1
240.308	6.42
240.691	4.9
241.073	4.08
241.456	4.16
241.838	6.66
242.221	5.14
242.603	6.2
242.986	4.41
243.368	4.52
243.75	5.02
244.133	5.69
244.515	5.21
244.897	5.08
245.279	6.13
245.661	5.73
246.043	6.48
246.425	5.64
246.807	4.79
247.189	6.89
247.571	6.09
247.953	5.22
248.335	5.27
248.717	5.27
249.098	5.29
249.48	5.26
249.862	5.63
250.243	5.5
250.625	5.63
251.006	5.66
251.388	5.53
251.769	5.49
252.151	3.38
252.532	6.12
252.913	5.75
253.295	5.6
253.676	5.44
254.057	5.66
254.438	5.17
254.819	6.49
255.2	5.27
255.581	5.87
255.962	5.34
256.343	5.53
256.724	5.12
257.105	5.91
257.486	3.94
257.867	4.85
258.247	5.64
258.628	5.46
259.009	4.66
259.389	4.91
259.77	4.34
260.15	5.44
260.531	5.42
260.911	4.94
261.292	4.99
261.672	4.89
262.052	4.84
262.432	4.93
262.813	5.03
263.193	4.72
263.573	4.86
263.953	4.66
264.333	4.72
264.713	4.61
265.093	4.89
265.473	5.1
265.853	4.69
266.233	4.24
266.612	5.49
266.992	5.75
267.372	4.96
267.752	5.33
268.131	5.71
268.511	4.67
268.89	4.97
269.27	4.96
269.649	4.59
270.029	5.21
270.408	5.08
270.787	4.57
271.167	5.04
271.546	4.62
271.925	4.66
272.304	4.77
272.683	5.32
273.062	4.58
273.441	4.95
273.82	4.72
274.199	4.89
274.578	4.85
274.957	4.43
275.336	4.86
275.715	4.72
276.093	5.36
276.472	5.2
276.851	4.77
277.229	4.82
277.608	4.65
277.986	4.82
278.365	5.09
278.743	4.76
279.122	4.21
279.5	4.48
279.878	4.23
280.257	4.71
280.635	4.31
281.013	4.25
281.391	4.87
281.769	4.92
282.147	4.74
282.525	4.59
282.903	4.42
283.281	4.3
283.659	4.5
284.037	4.4
284.415	4.4
284.792	4.31
285.17	5.26
285.548	4.45
285.925	4.26
286.303	5.47
286.68	4.58
287.058	4.23
287.435	4.41
287.813	4.88
288.19	4.35
288.567	4.64
288.945	4.6
289.322	4.62
289.699	4.51
290.076	4.55
290.453	4.23
290.83	4.56
291.207	4.41
291.584	4.49
291.961	4.45
292.338	4.36
292.715	4.07
293.092	4.49
293.469	4.52
293.845	4.49
294.222	4.69
294.599	4.1
294.975	4.65
295.352	4.29
295.728	4.44
296.105	4.49
296.481	4.63
296.858	4.48
297.234	4.3
297.61	4.15
297.986	4.51
298.363	4.25
298.739	4.55
299.115	4.36
299.491	4.58
299.867	4.38
300.243	4.3
300.619	5.17
300.995	4.34
301.371	3.73
301.746	4.84
302.122	4.27
302.498	4.55
302.874	4.19
303.249	4.65
303.625	4.18
304	4.6
304.376	4.24
304.751	3.9
305.127	4.21
305.502	4.56
305.878	4.61
306.253	4.58
306.628	4.32
307.003	3.97
307.378	4.75
307.754	4.82
308.129	4.39
308.504	4.32
308.879	4.61
309.254	4.3
309.629	4.3
310.003	4.66
310.378	4.35
310.753	4.25
311.128	3.87
311.502	4.38
311.877	4.5
312.252	4.27
312.626	4.32
313.001	4.41
313.375	4.55
313.75	4.4
314.124	4.11
314.498	4.71
314.873	4.67
315.247	4.6
315.621	4.4
315.995	4.94
316.369	4.24
316.743	4.18
317.117	3.88
317.491	4.16
317.865	4.53
318.239	4.43
318.613	4.62
318.987	3.96
319.361	4.2
319.734	4.29
320.108	4.06
320.482	4.05
320.855	4.51
321.229	4.9
321.602	4.54
321.976	4.96
322.349	4.28
322.723	4.59
323.096	4.68
323.469	3.81
323.843	4.18
324.216	4.54
324.589	4.39
324.962	4.33
325.335	3.96
325.708	4.64
326.081	4.31
326.454	4.54
326.827	4.16
327.2	4.16
327.573	4.84
327.945	4.71
328.318	3.66
328.691	4.46
329.063	4.9
329.436	4.37
329.809	4.55
330.181	3.93
330.553	4.18
330.926	4.64
331.298	4.42
331.671	5.06
332.043	4.35
332.415	4.64
332.787	4.32
333.159	4.14
333.532	4.11
333.904	4.01
334.276	4.23
334.648	4.24
335.02	4.04
335.391	4.33
335.763	4.56
336.135	4.31
336.507	4.67
336.879	4.45
337.25	4.44
337.622	4.75
337.993	4.18
338.365	4.63
338.736	4.65
339.108	5.26
339.479	4.62
339.851	4.62
340.222	4.93
340.593	4.41
340.964	4.41
341.336	4.42
341.707	4.93
342.078	4.14
342.449	4.4
342.82	4.52
343.191	4.37
343.562	4.54
343.933	4.65
344.303	4.51
344.674	4.66
345.045	4.85
345.416	4.48
345.786	4.62
346.157	4.69
346.527	4.75
346.898	4.78
347.268	4.78
347.639	4.51
348.009	4.66
348.38	4.41
348.75	5.12
349.12	4.32
349.49	4.97
349.861	4.65
350.231	4.82
350.601	4.67
350.971	4.55
351.341	4.35
351.711	4.77
352.081	4.5
352.45	4.29
352.82	4.05
353.19	5.25
353.56	4.8
353.929	4.34
354.299	4.72
354.669	4.56
355.038	4.65
355.408	4.01
355.777	4.61
356.147	4.35
356.516	4.63
356.885	4.64
357.254	4.33
357.624	4.3
357.993	4.8
358.362	4.52
358.731	4.66
359.1	4.73
359.469	4.58
359.838	4.83
360.207	4.78
360.576	4.92
360.945	4.79
361.314	4.43
361.682	4.63
362.051	4.5
362.42	4.83
362.788	4.73
363.157	4.62
363.525	4.79
363.894	4.84
364.262	4.33
364.631	4.79
364.999	4.68
365.367	4.57
365.735	4.93
366.104	4.75
366.472	4.81
366.84	4.88
367.208	4.63
367.576	4.84
367.944	4.68
368.312	4.74
368.68	4.7
369.048	4.75
369.416	4.92
369.783	4.73
370.151	4.91
370.519	5.14
370.886	4.8
371.254	5.07
371.621	4.68
371.989	4.75
372.356	5.22
372.724	4.76
373.091	4.82
373.458	4.95
373.826	4.5
374.193	4.59
374.56	5.07
374.927	4.64
375.294	4.71
375.661	4.63
376.028	4.79
376.395	4.66
376.762	4.69
377.129	4.53
377.496	5.01
377.863	4.99
378.229	4.71
378.596	4.92
378.963	5.05
379.329	5
379.696	4.92
380.062	5.03
380.429	4.96
380.795	4.63
381.161	4.98
381.528	4.77
381.894	5.15
382.26	4.69
382.626	4.82
382.993	4.74
383.359	5.05
383.725	5.2
384.091	4.77
384.457	4.98
384.823	4.85
385.188	5.1
385.554	5
385.92	5.12
386.286	5.01
386.651	5.04
387.017	5.15
387.383	5.09
387.748	4.97
388.114	5.24
388.479	4.76
388.845	4.98
389.21	4.81
389.575	4.89
389.94	4.99
390.306	4.87
390.671	4.92
391.036	4.92
391.401	5.2
391.766	4.95
392.131	4.96
392.496	4.92
392.861	5.16
393.226	4.91
393.591	4.68
393.956	5.04
394.32	5.03
394.685	4.91
395.05	5.24
395.414	5.09
395.779	4.88
396.143	4.9
396.508	5.25
396.872	5.07
397.236	5.2
397.601	5.16
397.965	5.32
398.329	4.96
398.694	4.83
399.058	4.86
399.422	5.52
399.786	5.31
400.15	5.14
400.514	4.8
400.878	5.07
401.242	4.91
401.605	5.09
401.969	5.14
402.333	5.17
402.697	4.94
403.06	5.25
403.424	5.17
403.787	5.16
404.151	5.07
404.514	5.15
404.878	5.11
405.241	4.94
405.604	5.21
405.968	4.96
406.331	5.25
406.694	5.35
407.057	5.1
407.42	5.22
407.783	5.02
408.146	5.18
408.509	5.25
408.872	5
409.235	5.32
409.598	5.34
409.961	5.26
410.323	5.12
410.686	5.2
411.049	5.14
411.411	5.25
411.774	4.98
412.136	5.09
412.499	5.18
412.861	4.92
413.223	5.03
413.586	5.21
413.948	5.35
414.31	5.03
414.672	5.12
415.035	5.31
415.397	5.32
415.759	5.37
416.121	5.44
416.483	5.12
416.845	5.12
417.206	5.02
417.568	5.25
417.93	5.08
418.292	5.27
418.653	5.17
419.015	4.93
419.377	5.11
419.738	5.05
420.1	5.16
420.461	5.25
420.822	5.15
421.184	5.18
421.545	5.07
421.906	5.03
422.267	5.09
422.629	5.07
422.99	5.02
423.351	5.1
423.712	5.06
424.073	5.11
424.434	5.1
424.795	5.12
425.155	5.08
425.516	5.11
425.877	5.1
426.238	5.19
426.598	5.16
426.959	5.13
427.32	5.25
427.68	5.13
428.041	5.21
428.401	5.2
428.761	5.2
429.122	5.36
429.482	5.27
429.842	5.36
430.202	5.42
430.563	5.27
430.923	5.38
431.283	5.43
431.643	5.22
432.003	5.23
432.363	5.4
432.722	5.3
433.082	5.12
433.442	5.3
433.802	5.2
434.161	5.26
434.521	5.29
434.881	5.15
435.24	5.15
435.6	5.15
435.959	5.34
436.319	5.11
436.678	5.2
437.037	5.4
437.396	5.26
437.756	5.33
438.115	5.11
438.474	5.15
438.833	5.29
439.192	5.48
439.551	5.27
439.91	5.23
440.269	5.32
440.628	5.16
440.987	5.22
441.345	5.24
441.704	5.21
442.063	5.32
442.421	5.12
442.78	5.21
443.138	5.14
443.497	5.3
443.855	5.23
444.214	5.26
444.572	5.31
444.93	5.27
445.288	5.2
445.647	5.36
446.005	5.24
446.363	5.3
446.721	5.11
447.079	5.13
447.437	5.33
447.795	5.18
448.153	5.06
448.51	5.18
448.868	5.22
449.226	5.18
449.584	5.26
449.941	5.31
450.299	5.24
450.656	5.2
451.014	5.28
451.371	5.22
451.729	5.25
452.086	5.34
452.443	5.24
452.801	5.26
453.158	5.27
453.515	5.21
453.872	5.32
454.229	5.25
454.586	5.2
454.943	5.34
455.3	5.27
455.657	5.36
456.014	5.37
456.371	5.32
456.727	5.27
457.084	5.31
457.441	5.46
457.797	5.22
458.154	5.3
458.51	5.16
458.867	5.36
459.223	5.32
459.58	5.32
459.936	5.31
460.292	5.17
460.648	5.42
461.005	5.3
461.361	5.2
461.717	5.16
462.073	5.23
462.429	5.17
462.785	5.21
463.141	5.15
463.496	5.33
463.852	5.3
464.208	5.27
464.564	5.42
464.919	5.54
465.275	5.28
465.631	5.23
465.986	5.22
466.342	5.17
466.697	5.37
467.052	5.21
467.408	5.28
467.763	5.27
468.118	5.23
468.473	5.31
468.829	5.22
469.184	5.27
469.539	5.2
469.894	5.19
470.249	5.4
470.603	5.31
470.958	5.31
471.313	5.31
471.668	5.37
472.023	5.27
472.377	5.24
472.732	5.45
473.086	5.44
473.441	5.39
473.795	5.3
474.15	5.27
474.504	5.33
474.859	5.3
475.213	5.47
475.567	5.16
475.921	5.36
476.275	5.16
476.63	5.3
476.984	5.35
477.338	5.18
477.692	5.29
478.045	5.11
478.399	5.28
478.753	5.41
479.107	5.12
479.461	5.38
479.814	5.24
480.168	5.15
480.521	5.21
480.875	5.25
481.228	5.22
481.582	5.4
481.935	5.32
482.289	5.36
482.642	5.09
482.995	5.32
483.348	5.07
483.701	5.29
484.055	5.15
484.408	5.19
484.761	5.07
485.114	4.98
485.466	4.87
485.819	4.86
486.172	4.95
486.525	5.04
486.878	5.07
487.23	5.12
487.583	5.14
487.936	5.2
488.288	5.11
488.641	5.02
488.993	5.05
489.345	4.99
489.698	5
490.05	5.07
490.402	5.06
490.754	5.15
491.107	5.14
491.459	5.09
491.811	5.21
492.163	5.3
492.515	5.22
492.866	5.04
493.218	4.97
493.57	4.96
493.922	5.08
494.274	5.09
494.625	5.1
494.977	5.11
495.328	5.3
495.68	5.26
496.031	5.22
496.383	5.27
496.734	5.31
497.086	5.32
497.437	5.36
497.788	5.41
498.139	5.21
498.49	5.12
498.842	5.12
499.193	5.25
499.544	5.11
499.894	5.19
500.245	5.25
500.596	5.33
500.947	5.28
501.298	5.35
501.648	5.47
501.999	5.3
502.35	5.38
502.7	5.46
503.051	5.16
503.401	5.23
503.752	5.18
504.102	5.29
504.452	5.22
504.803	5.19
505.153	5.25
505.503	5.14
505.853	5.24
506.203	5.3
506.553	5.26
506.903	5.19
507.253	5.31
507.603	5.21
507.953	5.29
508.303	5.37
508.652	5.3
509.002	5.39
509.352	5.25
509.701	5.25
510.051	5.21
510.4	5.21
510.75	5.14
511.099	5.26
511.449	5.16
511.798	5.32
512.147	5.38
512.496	5.1
512.846	5.26
513.195	5.25
513.544	5.24
513.893	5.26
514.242	5.2
514.591	5.06
514.939	5.21
515.288	5.22
515.637	5.17
515.986	5.24
516.334	5.13
516.683	5.35
517.032	5.27
517.38	5.25
517.729	5.31
518.077	5.09
518.426	5.29
518.774	5.16
519.122	5.17
519.47	5.16
519.819	5.16
520.167	5.14
520.515	5.16
520.863	5.19
521.211	5.11
521.559	5.15
521.907	5.19
522.255	5.22
522.602	5.17
522.95	5.25
523.298	5.16
523.645	5.2
523.993	5.23
524.341	5.27
524.688	5.15
525.036	5.33
525.383	5.24
525.73	5.24
526.078	5.26
526.425	5.27
526.772	5.26
527.119	5.17
527.466	5.09
527.814	5.14
528.161	5.21
528.508	5.2
528.854	5.13
529.201	5.14
529.548	5.14
529.895	4.97
530.242	4.87
530.588	4.94
530.935	4.99
531.282	5.05
531.628	5.04
531.975	5.1
532.321	5.09
532.667	5.27
533.014	5.2
533.36	5.31
533.706	5.08
534.052	5.18
534.399	5.05
534.745	5.11
535.091	5.06
535.437	5.05
535.783	5.15
536.129	5.17
536.474	5.13
536.82	5.16
537.166	5.23
537.512	5.21
537.857	5.14
538.203	5.22
538.549	5.14
538.894	5.16
539.239	5.2
539.585	5.25
539.93	5.26
540.276	5.3
540.621	5.22
540.966	5.23
541.311	5.29
541.656	5.23
542.001	5.31
542.346	5.12
542.691	5.02
543.036	5.04
543.381	5.01
543.726	5.05
544.071	5.09
544.415	5.1
544.76	5.1
545.105	5.14
545.449	5.21
545.794	5.13
546.138	5.26
546.483	5.26
546.827	5.27
547.171	5.22
547.516	5.27
547.86	5.23
548.204	5.2
548.548	5.08
548.892	5.09
549.236	5.16
549.58	5.18
549.924	5.41
550.268	5.42
550.612	5.25
550.956	5.38
551.3	5.3
551.643	5.23
551.987	5.36
552.33	5.39
552.674	5.22
553.017	5.33
553.361	5.35
553.704	5.14
554.048	5.21
554.391	5.23
554.734	5.3
555.077	5.19
555.42	5.13
555.764	5.22
556.107	5.33
556.45	5.25
556.793	5.3
557.135	5.36
557.478	5.4
557.821	5.36
558.164	5.28
558.507	5.28
558.849	5.46
559.192	5.32
559.534	5.49
559.877	5.35
560.219	5.45
560.562	5.39
560.904	5.41
561.246	5.4
561.589	5.43
561.931	5.42
562.273	5.46
562.615	5.4
562.957	5.23
563.299	5.36
563.641	5.54
563.983	5.35
564.325	5.42
564.667	5.25
565.008	5.36
565.35	5.38
565.692	5.36
566.033	5.44
566.375	5.46
566.716	5.31
567.058	5.33
567.399	5.22
567.741	5.23
568.082	5.19
568.423	5.16
568.764	5.29
569.105	5.23
569.447	5.18
569.788	5.3
570.129	5.33
570.47	5.27
570.811	5.23
571.151	5.53
571.492	5.25
571.833	5.24
572.174	5.36
572.514	5.49
572.855	5.25
573.195	5.24
573.536	5.41
573.876	5.14
574.217	5.2
574.557	5.22
574.898	5.25
575.238	5.34
575.578	5.29
575.918	5.31
576.258	5.25
576.598	5.11
576.938	5.41
577.278	5.27
577.618	5.23
577.958	5.24
578.298	5.29
578.638	5.39
578.977	5.34
579.317	5.42
579.657	5.52
579.996	5.17
580.336	5.52
580.675	5.3
581.014	5.38
581.354	5.37
581.693	5.25
582.032	5.46
582.372	5.48
582.711	5.51
583.05	5.19
583.389	5.32
583.728	5.31
584.067	5.36
584.406	5.33
584.745	5.3
585.083	5.19
585.422	5.2
585.761	5.3
586.1	5.19
586.438	5.12
586.777	5.11
587.115	5.26
587.454	5.35
587.792	5.48
588.13	5.39
588.469	5.25
588.807	5.06
589.145	5.28
589.483	5.38
589.821	5.26
590.159	5.26
590.497	5.07
590.835	5.24
591.173	5.47
591.511	5.21
591.849	5.18
592.187	5.38
592.524	5.6
592.862	5.4
593.2	5.55
593.537	5.6
593.875	5.33
594.212	5.62
594.55	5.22
594.887	5.22
595.224	5.33
595.561	5.32
595.899	5.33
596.236	5.17
596.573	5.34
596.91	5.35
597.247	5.36
597.584	5.26
597.921	5.29
598.258	5.15
598.594	5.23
598.931	5.16
599.268	5.25
599.604	5.26
599.941	5.3
600.277	5.26
600.614	5.3
600.95	5.34
601.287	5.02
601.623	5.08
601.959	5.38
602.296	5.29
602.632	5.06
602.968	5.15
603.304	5.12
603.64	5.28
603.976	5.08
604.312	5.34
604.648	5.24
604.984	5.24
605.319	5.34
605.655	5.16
605.991	5.09
606.326	5.28
606.662	5.2
606.998	5.3
607.333	5.11
607.668	5.16
608.004	5.26
608.339	5.36
608.674	5.33
609.01	5.28
609.345	5.17
609.68	5.06
610.015	5.5
610.35	5.27
610.685	4.92
611.02	5.15
611.355	5.13
611.689	5.05
612.024	5.35
612.359	5.32
612.694	5.38
613.028	5.45
613.363	5.44
613.697	5.24
614.032	5.34
614.366	5.64
614.7	5.23
615.035	5.38
615.369	5.25
615.703	5.18
616.037	4.98
616.371	5.4
616.705	5.22
617.039	5.24
617.373	5.31
617.707	5.73
618.041	5.59
618.375	5.61
618.709	5.05
619.042	5.33
619.376	5.61
619.71	5.27
620.043	5.01
620.377	5.32
620.71	5.23
621.043	5.35
621.377	5.07
621.71	5.5
622.043	5.2
622.376	5.05
622.709	5.49
623.043	4.91
623.376	5.29
623.709	5.27
624.041	5.17
624.374	5.17
624.707	5.34
625.04	5.59
625.373	5.26
625.705	5.32
626.038	5.14
626.37	5.14
626.703	5.29
627.035	5.22
627.368	5.58
627.7	5.2
628.032	5.24
628.365	5.17
628.697	5.13
629.029	5.35
629.361	5.49
629.693	5.3
630.025	5.45
630.357	5.59
630.689	5.25
631.021	4.95
631.353	5.5
631.684	5.26
632.016	5.51
632.348	5.35
632.679	5.43
633.011	5.09
633.342	5.18
633.674	5.59
634.005	5.36
634.336	5.65
634.668	5.43
634.999	4.87
635.33	5.21
635.661	5.3
635.992	5.59
636.323	5.32
636.654	5.64
636.985	5.44
637.316	4.96
637.647	5.24
637.977	5.45
638.308	5.21
638.639	4.83
638.969	5.5
639.3	4.97
639.63	5.36
639.961	5.34
640.291	5.3
640.622	5.16
640.952	5.27
641.282	5.64
641.612	5.3
641.943	5.29
642.273	5.62
642.603	5.46
642.933	5.27
643.263	5.05
643.592	5.4
643.922	5.33
644.252	5.62
644.582	5.57
644.911	5.17
645.241	5.34
645.571	5.69
645.9	5.3
646.23	5.82
646.559	5.36
646.888	5.18
647.218	5.8
647.547	4.92
647.876	5.05
648.205	5.13
648.534	5.26
648.863	5.02
649.192	5.74
649.521	5.27
649.85	5.19
650.179	4.42
650.508	5.52
650.837	5.26
651.165	5.58
651.494	5.09
651.822	5.55
652.151	5.08
652.479	5.14
652.808	5.33
653.136	5.18
653.465	5.27
653.793	5.59
654.121	5.2
654.449	5.25
654.777	5.44
655.105	5.15
655.433	5.58
655.761	5.48
656.089	5.5
656.417	5.25
656.745	5.29
657.073	4.96
657.4	5.29
657.728	5.21
658.056	5.62
658.383	5.38
658.711	4.99
659.038	5.26
659.365	5.38
659.693	5.71
660.02	5.49
660.347	4.97
660.674	4.97
661.001	5.56
661.329	5.01
661.656	5.49
661.982	5.27
662.309	5.36
662.636	5.4
662.963	5.87
663.29	5.39
663.616	5.51
663.943	5.57
664.27	5.08
664.596	5.16
664.923	6
665.249	5.42
665.576	5.53
665.902	5.07
666.228	5.67
666.554	5.2
666.881	5.2
667.207	5.81
667.533	5.69
667.859	5.29
668.185	6.05
668.511	5.07
668.837	5.07
669.162	5.1
669.488	4.39
669.814	5.68
670.139	5.43
670.465	5.14
670.791	5.01
671.116	4.67
671.442	5.8
671.767	4.89
672.092	5.18
672.418	5
672.743	5.48
673.068	4.78
673.393	5.23
673.718	4.73
674.043	5.95
674.368	5.21
674.693	5.13
675.018	5.88
675.343	6.07
675.667	5.61
675.992	5.59
676.317	5.67
676.641	5.02
676.966	5.28
677.29	5.56
677.615	5.58
677.939	5.66
678.264	4.56
678.588	4.95
678.912	5.84
679.236	4.82
679.56	5.19
679.885	5.56
680.209	5.23
680.532	5.06
680.856	5.4
681.18	5.35
681.504	5.37
681.828	5.65
682.152	5.52
682.475	5.36
682.799	5.52
683.122	5.36
683.446	5.36
683.769	5.22
684.093	5.7
684.416	5.64
684.739	5.48
685.062	5.33
685.386	5.52
685.709	5.29
686.032	5.21
686.355	5.81
686.678	5.38
687.001	5.81
687.324	5.38
687.646	5.73
687.969	5.18
688.292	5.03
688.614	5.7
688.937	5.37
689.26	5.52
689.582	5.13
689.904	5.33
690.227	5.31
690.549	4.78
690.871	6.09
691.194	4.96
691.516	5.44
691.838	6.09
692.16	5.37
692.482	5.89
692.804	5.36
693.126	5.88
693.448	5.08
693.769	5.5
694.091	4.93
694.413	5.61
694.735	6.1
695.056	5.59
695.378	5.66
695.699	5.5
696.021	6.3
696.342	6.02
696.663	5.65
696.984	6.09
697.306	5.58
697.627	5.6
697.948	4.87
698.269	5.04
698.59	5.4
698.911	5.9
699.232	5.63
699.553	5.18
699.873	6.08
700.194	5.41
700.515	4.84
700.835	5.22
701.156	5.5
701.477	6.33
701.797	5.79
702.117	5.45
702.438	5.66
702.758	4.75
703.078	5.39
703.398	6.21
703.719	6.2
704.039	5.14
704.359	5.86
704.679	6.03
704.999	4.85
705.319	5.44
705.638	5.8
705.958	6.56
706.278	5.97
706.597	5.85
706.917	5.92
707.237	6
707.556	4.6
707.876	6.06
708.195	5.97
708.514	5.83
708.834	4.57
709.153	5.64
709.472	5.77
709.791	5.57
710.11	5.7
710.429	6.03
710.748	5.98
711.067	5.82
711.386	5.65
711.705	5.18
712.023	5.79
712.342	5.97
712.661	4.83
712.979	4.71
713.298	4.91
713.616	6.05
713.935	5.31
714.253	5.98
714.572	6.2
714.89	5.78
715.208	5.05
715.526	5.71
715.844	4.94
716.162	5
716.48	6.1
716.798	5.05
717.116	5.78
717.434	5.6
717.752	5.09
718.069	6.4
718.387	5.65
718.705	5.03
719.022	5.4
719.34	4.79
719.657	6.34
719.975	5.44
720.292	6.62
720.609	4.2
720.927	5.89
721.244	6.71
721.561	6.41
721.878	5.35
722.195	5.31
722.512	4.81
722.829	4.36
723.146	6.5
723.463	5.27
723.779	5.95
724.096	5.87
724.413	6.58
724.729	5.72
725.046	6.68
725.362	6.85
725.679	6.03
725.995	5.99
726.311	5.63
726.628	6.35
726.944	5.8
727.26	6.23
727.576	6.38
727.892	4.92
728.208	5.69
728.524	6.14
728.84	5.1
729.156	5.41
729.472	6.2
729.787	7.05
730.103	5.46
730.419	6.26
730.734	7.52
731.05	5.6
731.365	7.09
731.681	6.54
731.996	6.06
732.311	5.95
732.626	5.42
732.942	6
733.257	6.88
733.572	6.09
733.887	7.06
734.202	6.1
734.517	5.32
734.832	7.26
735.146	5.87
735.461	6.6
735.776	5.66
736.091	5.95
736.405	5.23
736.72	6.93
737.034	5.48
737.349	6
737.663	6.58
737.977	7.01
738.292	6.77
738.606	7.81
738.92	4.62
739.234	5.9
739.548	5.55
739.862	6.53
740.176	4.72
740.49	5.66
740.804	5.93
741.117	6.68
741.431	7.47
741.745	7.05
742.058	5.49
742.372	6.45
742.685	7.36
742.999	7.6
743.312	4.72
743.626	6.35
743.939	7.65
744.252	7.21
744.565	4.44
744.878	5.44
745.191	6.2
745.505	8.04
745.817	6.45
746.13	7.44
746.443	5.47
746.756	7.83
747.069	7.04
747.381	5.86
747.694	6.45
748.007	7.35
748.319	7.09
748.632	5.68
748.944	5.29
749.256	7.56
749.569	4.84
749.881	4.74
750.193	5.64
750.505	6.38
750.817	6.97
751.129	5.78
751.441	5.92
751.753	6.34
752.065	6.1
752.377	5.29
752.689	7.55
753	6.16
753.312	5.59
753.624	4.6
753.935	6.35
754.247	5.9
754.558	7.8
754.869	6.14
755.181	6.4
755.492	7.57
755.803	5.11
756.114	6.04
756.425	7.41
756.736	7.84
757.047	7.46
757.358	7.05
757.669	5.15
757.98	6.88
758.291	7.3
758.601	7.01
758.912	5.5
759.223	6.9
759.533	6.51
759.844	5.84
760.154	7.35
760.464	6.1
760.775	7.14
761.085	4.74
761.395	4.26
761.705	7.07
762.016	6.76
762.326	7.48
762.636	6
762.945	6.72
763.255	5.32
763.565	7.21
763.875	7.01
764.185	6.44
764.494	6.39
764.804	5.85
765.113	8.24
765.423	7.46
765.732	7.08
766.042	7.68
766.351	6.14
766.66	5.04
766.97	7.06
767.279	6.88
767.588	6.53
767.897	6.29
768.206	6.77
768.515	5.74
768.824	7.07
769.133	7.75
769.441	7.66
769.75	7.26
770.059	5.73
770.367	7.92
770.676	6.73
770.984	5.74
771.293	5.56
771.601	8.78
771.91	4.9
772.218	7.25
772.526	6.44
772.834	9.41
773.142	7.65
773.45	7.43
773.758	10.07
774.066	6.58
774.374	3.88
774.682	7.76
774.99	6.6
775.298	7.05
775.605	6.72
775.913	3.96
776.22	3.98
776.528	9.58
776.835	5.87
777.143	2.51
777.45	7.81
777.757	5.01
778.065	7.8
778.372	4.72
778.679	7.74
778.986	7.69
779.293	4.58
779.6	8.57
779.907	8.15
780.214	6.44
780.52	7.6
780.827	5.38
781.134	7.07
781.44	6.41
781.747	8.71
782.053	5.07
782.36	6.37
782.666	6.17
782.973	8.98
783.279	4.8
783.585	6.09
783.891	8.74
784.197	6.29
784.503	8.61
784.809	5.84
785.115	7.87
785.421	6.31
785.727	7.52
786.033	11.04
786.339	5.63
786.644	8.25
786.95	6.8
787.255	4.36
787.561	9.44
787.866	5.87
788.172	12.02
788.477	9.76
788.782	1.27
789.088	4.66
789.393	4.83
789.698	7.51
790.003	6.73
790.308	9.29
790.613	4.17
790.918	4.79
791.223	5.76
791.527	6.7
791.832	5.12
792.137	6.06
792.441	7.24
792.746	8.67
793.05	5.71
793.355	10.55
793.659	6.72
793.963	6.62
794.268	11.47
794.572	5.49
794.876	12.86
795.18	8.25
795.484	10.76
795.788	8.63
796.092	7.35
796.396	8.53
796.7	3.54
797.004	4.25
797.307	1.51
797.611	12.64
797.915	9.75
798.218	3.86
798.522	9.31
798.825	6.27
799.128	11.05
799.432	6.08
799.735	8.35
800.038	9.7
800.341	2.05
800.644	7.97
800.947	7.87
801.25	10.16
801.553	9.41
801.856	3.63
802.159	8.24
802.462	9.5
802.764	9.05
803.067	6.76
803.37	10.88
803.672	8.06
803.975	4.11
804.277	5.43
804.579	10.23
804.882	5.49
805.184	5.25
805.486	7.23
805.788	5.25
806.09	7.98
806.392	8.23
806.694	7.59
806.996	5.17
807.298	8.71
807.6	5.99
807.902	8.31
808.203	3.31
808.505	5.28
808.807	8.76
809.108	6.37
809.409	10.95
809.711	5.6
810.012	8.2
810.313	6.67
810.615	4.59
810.916	5.59
811.217	11.75
811.518	5.62
811.819	14.01
812.12	7.29
812.421	5.84
812.722	12.3
813.023	11.12
813.323	2.72
813.624	9.92
813.925	9.08
814.225	6.61
814.526	6
814.826	9.3
815.126	10.52
815.427	4.17
815.727	10.88
816.027	2.57
816.327	9.37
816.627	8.76
816.927	14.47
817.227	1.17
817.527	14.58
817.827	14.4
818.127	9.71
818.427	9.57
818.727	7.21
819.026	8.49
819.326	11.82
819.625	7.28
819.925	10.23
820.224	14.74
820.524	9.78
820.823	6.31
821.122	5.23
821.421	2.74
821.72	8.02
822.019	8.35
822.318	14.46
822.617	10.74
822.916	10
823.215	9.22
823.514	2.73
823.813	6.98
824.111	6.77
824.41	7.9
824.709	7.58
825.007	8.12
825.306	7.55
825.604	8.71
825.902	7.93
826.201	9.03
826.499	8.47
826.797	8.96
827.095	7.69
827.393	9.33
827.691	8.24
827.989	9.37
828.287	7.58
828.585	9.2
828.882	8.83
829.18	8.9
829.478	7.99
829.775	7.07
830.073	9.83
830.37	9.22
830.668	7.83
830.965	8.37
831.263	9.86
831.56	8.13
831.857	11.65
832.154	7.76
832.451	10.25
832.748	3.64
833.045	8.22
833.342	10.57
833.639	7.01
833.936	8.01
834.232	8.71
834.529	1.8
834.826	13.75
835.122	5.64
835.419	12.29
835.715	7.46
836.012	6.69
836.308	7.81
836.604	9.71
836.901	8.83
837.197	7.38
837.493	8.5
837.789	8.19
838.085	2.59
838.381	5.67
838.677	8.98
838.972	12.84
839.268	8.62
839.564	5.99
839.86	7.88
840.155	7.3
840.451	18.39
840.746	11.38
841.042	4.71
841.337	9.18
841.632	5.01
841.928	11.39
842.223	8.94
842.518	8.84
842.813	15.89
843.108	15.29
843.403	3.18
843.698	11.05
843.993	12.32
844.287	10.42
844.582	5.95
844.877	-8.72
845.171	8.43
845.466	6.17
845.761	8.57
846.055	5.53
846.349	6.88
846.644	3.18
846.938	-2.35
847.232	1.33
847.526	8.27
847.82	9.75
848.114	7.99
848.408	2.99
848.702	12.53
848.996	9.65
849.29	10.26
849.584	-6.22
849.877	14.93
850.171	5.99
850.465	25.62
850.758	0.33
851.052	14.56
851.345	9.77
851.638	29.56
851.932	15.3
852.225	-15.91
852.518	5.74
852.811	-1.04
853.104	11.14
853.397	25.04
853.69	12.72
853.983	-0.26
854.276	5.89
854.569	15.26
854.861	14.13
855.154	18.52
855.447	21.28
855.739	17.75
856.032	13.05
856.324	19.46
856.616	4.24
856.909	-11.14
857.201	2.76
857.493	3.62
857.785	8.92
858.077	6.58
858.369	15.1
858.661	25.78
858.953	-0.84
859.245	6.6
859.537	16.85
859.829	-39.51
860.12	-5.95
860.412	-4.2
860.703	-0.4
860.995	18.64
861.286	10.45
861.578	13.51
861.869	25.39
862.16	12.08
862.452	20.9
862.743	-0.12
863.034	-2.23
863.325	14.82
863.616	8.31
863.907	9.46
864.198	16.43
864.488	6.67
864.779	-5.88
865.07	-1.61
865.36	12.49
865.651	11.07
865.941	26.16
866.232	0.65
866.522	5.26
866.813	22.73
867.103	25.91
867.393	4.31
867.683	15.3
867.973	12.8
868.263	15.73
868.553	1.35
868.843	5.22
869.133	-18.27
869.423	5.09
869.713	1.63
870.002	-14.53
870.292	-0.08
870.582	12.96
870.871	5.61
871.161	12.88
871.45	0.65
871.739	18.86
872.029	12.1
872.318	37.04
872.607	26.13
872.896	16.02
873.185	4.22
873.474	14.83
873.763	22.1
874.052	-19.65
874.341	13.05
874.63	49.52
874.918	23.92
875.207	39.62
875.496	-1.67
875.784	6.33
876.073	8.51
876.361	13.95
876.649	-0.33
876.938	23.05
877.226	-15.04
877.514	-19.78
877.802	-5.6
878.09	-0.64
878.378	18.17
878.666	8.06
878.954	-7.37
879.242	19.24
879.53	7.85
879.817	53.55
880.105	-16.17
880.392	16.97
880.68	15.37
880.967	-4.77
881.255	36.44
881.542	20.71
881.83	16.72
882.117	8.42
882.404	-16.89
882.691	18.18
882.978	-5.15
883.265	-27.72
883.552	-4.35
883.839	-6.09
884.126	3.66
884.413	15.74
884.699	9.09
884.986	10.55
885.273	13.76
885.559	13.76
885.846	13.76
