Data from 97282_forehead_Reflection__0__96.txt Node

Date: Fri Sep 23 20:27:26 CDT 2022
User: ToomeyLab
Spectrometer: FLMS14357
Trigger mode: 0
Integration Time (sec): 1.000000E-2
Scans to average: 100
Electric dark correction enabled: true
Nonlinearity correction enabled: false
Boxcar width: 0
XAxis mode: Wavelengths
Number of Pixels in Spectrum: 2048
>>>>>Begin Spectral Data<<<<<
189.047	-364.38
189.435	-364.38
189.823	-364.38
190.211	117.68
190.599	-3.78
190.987	-46.65
191.375	342.72
191.763	103.89
192.151	37.2
192.538	-158.24
192.926	124.23
193.314	-21.28
193.702	116.91
194.089	11.06
194.477	62.94
194.864	-168.01
195.252	-10.92
195.639	-19.59
196.027	181.82
196.414	35120
196.801	96.98
197.189	-2941.18
197.576	-574.55
197.963	4067.33
198.351	45.61
198.738	15.11
199.125	40.38
199.512	47.91
199.899	1.82
200.286	55.29
200.673	22.07
201.06	29.1
201.447	45.17
201.833	25.37
202.22	10.11
202.607	29.84
202.994	1.97
203.38	-27.97
203.767	-12.74
204.154	42.72
204.54	46.03
204.927	16
205.313	9.5
205.699	-33.58
206.086	12.62
206.472	25.9
206.858	27.03
207.245	-1.55
207.631	5.03
208.017	29.4
208.403	31.79
208.789	32.09
209.175	32.99
209.561	32.69
209.947	51.47
210.333	70.58
210.719	20.8
211.105	2.88
211.491	28.54
211.876	41.99
212.262	8.03
212.648	-17.49
213.034	-28.59
213.419	14.48
213.805	24.33
214.19	20.25
214.576	30.31
214.961	25.17
215.346	14.01
215.732	24.02
216.117	-1.27
216.502	-8.77
216.888	12.48
217.273	8.4
217.658	1.01
218.043	29.01
218.428	11.65
218.813	32.97
219.198	-0.92
219.583	17.16
219.968	12.21
220.353	5.78
220.738	27.21
221.122	6.44
221.507	17.59
221.892	19.63
222.276	5.06
222.661	16.04
223.046	9.78
223.43	4.83
223.815	6.64
224.199	5.04
224.583	13.82
224.968	11.52
225.352	8.2
225.736	3.24
226.121	11.05
226.505	5.12
226.889	7.82
227.273	2.19
227.657	3.23
228.041	9.14
228.425	8.53
228.809	1.17
229.193	3.15
229.577	4.49
229.961	2.6
230.344	2.82
230.728	1.54
231.112	1.59
231.495	1.45
231.879	-0.1
232.263	2.39
232.646	3.11
233.03	3.54
233.413	3.1
233.797	2.18
234.18	4.17
234.563	3.83
234.946	5.93
235.33	1.3
235.713	2.94
236.096	0.84
236.479	1.92
236.862	2.87
237.245	3.57
237.628	3.46
238.011	4.36
238.394	1.28
238.777	2.71
239.16	2.53
239.543	4.27
239.925	2.21
240.308	3.36
240.691	4.51
241.073	1.1
241.456	2.16
241.838	3.63
242.221	2.78
242.603	3.58
242.986	2.24
243.368	2.68
243.75	2.35
244.133	2.56
244.515	2.34
244.897	2.94
245.279	3.5
245.661	3.22
246.043	3.53
246.425	3.59
246.807	1.97
247.189	2.96
247.571	2.71
247.953	2.93
248.335	2.66
248.717	2.86
249.098	2.72
249.48	2.62
249.862	2.84
250.243	2.67
250.625	3.22
251.006	3.38
251.388	2.81
251.769	2.56
252.151	2
252.532	3.27
252.913	3.85
253.295	3.21
253.676	3.1
254.057	3.05
254.438	2.94
254.819	3.5
255.2	2.67
255.581	4.29
255.962	3.31
256.343	3.54
256.724	2.81
257.105	3.08
257.486	2.5
257.867	4.28
258.247	3.48
258.628	2.35
259.009	2.62
259.389	3.21
259.77	1.93
260.15	3.09
260.531	2.5
260.911	2.88
261.292	2.92
261.672	2.63
262.052	2.66
262.432	2.55
262.813	2.89
263.193	2.63
263.573	3.16
263.953	2.93
264.333	2.92
264.713	3.38
265.093	2.94
265.473	3.12
265.853	2.39
266.233	2.92
266.612	2.86
266.992	3.39
267.372	2.57
267.752	2.61
268.131	3.08
268.511	2.91
268.89	2.6
269.27	2.89
269.649	2.49
270.029	2.68
270.408	3.41
270.787	2.77
271.167	2.43
271.546	2.83
271.925	2.16
272.304	2.49
272.683	2.39
273.062	2.4
273.441	2.67
273.82	2.31
274.199	2.26
274.578	2.46
274.957	2.78
275.336	2.7
275.715	2.51
276.093	2.95
276.472	3.12
276.851	2.92
277.229	2.02
277.608	2.12
277.986	2.81
278.365	2.83
278.743	3.07
279.122	2.21
279.5	2.65
279.878	2.36
280.257	2.46
280.635	2.43
281.013	2.03
281.391	2.64
281.769	2.31
282.147	2.52
282.525	2.21
282.903	2.35
283.281	2.37
283.659	2.15
284.037	2.79
284.415	2.54
284.792	2.5
285.17	2.14
285.548	2.43
285.925	2.47
286.303	3.25
286.68	2.74
287.058	2.74
287.435	2.43
287.813	2.82
288.19	2.8
288.567	2.84
288.945	2.81
289.322	3.04
289.699	2.64
290.076	2.42
290.453	3
290.83	2.75
291.207	2.78
291.584	3.42
291.961	2.76
292.338	2.87
292.715	2.8
293.092	2.81
293.469	3.09
293.845	3.48
294.222	3.2
294.599	2.73
294.975	3.41
295.352	3.03
295.728	3.36
296.105	3.15
296.481	3.38
296.858	3.27
297.234	3.03
297.61	2.76
297.986	3.44
298.363	3.26
298.739	3.25
299.115	3.29
299.491	3.21
299.867	3.29
300.243	3.8
300.619	3.98
300.995	3.69
301.371	3.33
301.746	4.03
302.122	3.75
302.498	4.04
302.874	3.72
303.249	3.74
303.625	3.68
304	3.94
304.376	4.02
304.751	3.75
305.127	4.23
305.502	4.03
305.878	4.06
306.253	4.48
306.628	3.9
307.003	4.01
307.378	4.61
307.754	5.39
308.129	4.1
308.504	4.82
308.879	4.75
309.254	4.64
309.629	4.93
310.003	5.01
310.378	5.06
310.753	4.85
311.128	4.88
311.502	4.97
311.877	4.91
312.252	5.04
312.626	5.13
313.001	5.19
313.375	5.18
313.75	4.92
314.124	5.39
314.498	5.86
314.873	5.39
315.247	6.02
315.621	5.75
315.995	6.16
316.369	5.61
316.743	5.37
317.117	5.23
317.491	5.63
317.865	6.63
318.239	6.9
318.613	5.84
318.987	5.99
319.361	6.21
319.734	6.48
320.108	5.91
320.482	6.99
320.855	6.03
321.229	7.16
321.602	6.39
321.976	7.32
322.349	7.02
322.723	7.96
323.096	7.38
323.469	7.14
323.843	6.99
324.216	7.53
324.589	7.28
324.962	7.6
325.335	6.83
325.708	7.42
326.081	7.4
326.454	7.54
326.827	7.36
327.2	7.39
327.573	7.77
327.945	8.01
328.318	7.35
328.691	7.95
329.063	8.22
329.436	7.93
329.809	8.81
330.181	8.26
330.553	8.18
330.926	8.01
331.298	8.77
331.671	9.12
332.043	8.28
332.415	8.49
332.787	9.1
333.159	8.63
333.532	8.54
333.904	8.65
334.276	8.07
334.648	9.08
335.02	8.64
335.391	8.5
335.763	8.89
336.135	9.41
336.507	9.07
336.879	9.27
337.25	9.5
337.622	9.36
337.993	9.51
338.365	9.34
338.736	9.84
339.108	9.95
339.479	9.83
339.851	9.7
340.222	9.97
340.593	9.64
340.964	9.77
341.336	9.92
341.707	10.68
342.078	9.64
342.449	9.78
342.82	10.36
343.191	10.2
343.562	10.23
343.933	10.68
344.303	10.2
344.674	10.53
345.045	10.75
345.416	10.67
345.786	10.82
346.157	10.34
346.527	10.64
346.898	10.76
347.268	10.52
347.639	10.66
348.009	10.63
348.38	10.4
348.75	11.17
349.12	10.92
349.49	11.35
349.861	11.5
350.231	10.93
350.601	10.99
350.971	11.59
351.341	11.26
351.711	11.37
352.081	11.04
352.45	11.21
352.82	11.6
353.19	11.83
353.56	11.7
353.929	11.27
354.299	11.9
354.669	11.9
355.038	12.29
355.408	11.43
355.777	11.59
356.147	11.79
356.516	12.2
356.885	11.71
357.254	11.74
357.624	11.65
357.993	12.24
358.362	11.78
358.731	11.95
359.1	12.19
359.469	12.18
359.838	12.05
360.207	12.4
360.576	12.35
360.945	12.49
361.314	12.24
361.682	12.34
362.051	12.66
362.42	12.42
362.788	12.6
363.157	12.66
363.525	12.79
363.894	12.73
364.262	12.56
364.631	13.06
364.999	12.96
365.367	12.92
365.735	12.93
366.104	13.13
366.472	13.2
366.84	13.07
367.208	13.51
367.576	13.48
367.944	13.46
368.312	13.57
368.68	13.24
369.048	13.4
369.416	13.56
369.783	13.62
370.151	13.76
370.519	13.76
370.886	13.96
371.254	14.15
371.621	13.9
371.989	13.57
372.356	14.54
372.724	13.78
373.091	14.01
373.458	13.96
373.826	13.85
374.193	14.59
374.56	14.39
374.927	14.63
375.294	14.69
375.661	14.39
376.028	14.67
376.395	14.67
376.762	14.31
377.129	14.74
377.496	14.9
377.863	14.72
378.229	14.85
378.596	14.63
378.963	15.06
379.329	15.18
379.696	14.96
380.062	15.1
380.429	15.07
380.795	15.13
381.161	15.22
381.528	15.36
381.894	15.32
382.26	15.46
382.626	15.44
382.993	15.72
383.359	15.63
383.725	15.7
384.091	15.89
384.457	15.93
384.823	15.75
385.188	15.78
385.554	15.83
385.92	15.86
386.286	16.35
386.651	16.25
387.017	16.31
387.383	15.99
387.748	16.1
388.114	16.25
388.479	16.28
388.845	16.5
389.21	15.96
389.575	16.13
389.94	16.19
390.306	16.26
390.671	16.31
391.036	16.58
391.401	16.63
391.766	16.91
392.131	16.65
392.496	16.68
392.861	16.87
393.226	16.67
393.591	16.75
393.956	17.13
394.32	16.92
394.685	17.06
395.05	17.16
395.414	17.03
395.779	17.15
396.143	17.17
396.508	17.38
396.872	17.23
397.236	17.36
397.601	17.22
397.965	17.76
398.329	17.78
398.694	17.47
399.058	17.63
399.422	17.78
399.786	17.76
400.15	17.66
400.514	17.8
400.878	18.11
401.242	17.71
401.605	17.97
401.969	18.08
402.333	18.17
402.697	18.09
403.06	18.31
403.424	18.3
403.787	18.29
404.151	18.45
404.514	18.31
404.878	18.39
405.241	18.22
405.604	18.31
405.968	18.35
406.331	18.27
406.694	18.39
407.057	18.51
407.42	18.63
407.783	18.81
408.146	18.63
408.509	18.97
408.872	18.73
409.235	18.87
409.598	19.03
409.961	19.22
410.323	19.12
410.686	19.21
411.049	19.25
411.411	19.04
411.774	19.13
412.136	19.09
412.499	19.37
412.861	19.37
413.223	19.46
413.586	19.55
413.948	19.46
414.31	19.54
414.672	19.65
415.035	19.65
415.397	19.9
415.759	19.97
416.121	20.02
416.483	19.79
416.845	19.71
417.206	19.86
417.568	19.65
417.93	19.68
418.292	19.86
418.653	20
419.015	19.86
419.377	19.83
419.738	20.11
420.1	19.94
420.461	19.84
420.822	20.05
421.184	20.02
421.545	20.05
421.906	20.03
422.267	19.98
422.629	20
422.99	19.89
423.351	20
423.712	20.07
424.073	20.17
424.434	20.23
424.795	20.28
425.155	20.45
425.516	20.3
425.877	20.26
426.238	20.4
426.598	20.46
426.959	20.46
427.32	20.68
427.68	20.61
428.041	20.79
428.401	20.81
428.761	21.07
429.122	21.1
429.482	21.21
429.842	21.62
430.202	21.37
430.563	21.28
430.923	21.59
431.283	21.57
431.643	21.48
432.003	21.5
432.363	21.85
432.722	21.83
433.082	21.71
433.442	21.72
433.802	21.68
434.161	21.68
434.521	21.77
434.881	21.74
435.24	21.62
435.6	21.72
435.959	21.82
436.319	22.02
436.678	21.98
437.037	22.23
437.396	22.29
437.756	22.37
438.115	22.1
438.474	22.41
438.833	22.3
439.192	22.57
439.551	22.61
439.91	22.46
440.269	22.35
440.628	22.37
440.987	22.3
441.345	22.23
441.704	22.37
442.063	22.38
442.421	22.34
442.78	22.37
443.138	22.47
443.497	22.77
443.855	22.72
444.214	22.85
444.572	22.88
444.93	22.78
445.288	22.98
445.647	23
446.005	23.14
446.363	23.2
446.721	22.72
447.079	22.89
447.437	22.93
447.795	22.74
448.153	22.78
448.51	22.69
448.868	22.84
449.226	23.06
449.584	23.19
449.941	23.36
450.299	23.36
450.656	23.62
451.014	23.59
451.371	23.57
451.729	23.74
452.086	23.93
452.443	23.77
452.801	23.92
453.158	24.01
453.515	23.89
453.872	24.06
454.229	24.06
454.586	24.13
454.943	24.09
455.3	24.14
455.657	24.18
456.014	24.43
456.371	24.32
456.727	24.45
457.084	24.44
457.441	24.58
457.797	24.46
458.154	24.43
458.51	24.8
458.867	24.99
459.223	24.77
459.58	24.7
459.936	24.77
460.292	24.6
460.648	24.49
461.005	24.52
461.361	24.47
461.717	24.24
462.073	24.51
462.429	24.58
462.785	24.94
463.141	24.93
463.496	24.99
463.852	25.31
464.208	25.29
464.564	25.38
464.919	25.58
465.275	25.37
465.631	25.64
465.986	25.23
466.342	25.49
466.697	25.77
467.052	25.67
467.408	25.75
467.763	25.71
468.118	25.58
468.473	25.62
468.829	25.66
469.184	26.08
469.539	25.86
469.894	26.03
470.249	25.87
470.603	26.21
470.958	25.99
471.313	26.15
471.668	26.18
472.023	26.24
472.377	26.31
472.732	26.38
473.086	26.38
473.441	26.54
473.795	26.41
474.15	26.64
474.504	26.4
474.859	26.68
475.213	26.81
475.567	26.57
475.921	26.7
476.275	26.71
476.63	26.67
476.984	27.11
477.338	26.94
477.692	26.94
478.045	26.84
478.399	27.04
478.753	26.91
479.107	26.92
479.461	26.95
479.814	26.99
480.168	26.99
480.521	27.1
480.875	27.25
481.228	27.36
481.582	27.4
481.935	27.23
482.289	27.23
482.642	26.96
482.995	27.45
483.348	27.1
483.701	27.11
484.055	26.92
484.408	26.8
484.761	26.69
485.114	26.28
485.466	26.18
485.819	26.12
486.172	26.32
486.525	26.7
486.878	26.95
487.23	27.08
487.583	27.04
487.936	27.28
488.288	27.14
488.641	26.92
488.993	26.85
489.345	26.75
489.698	26.85
490.05	27.07
490.402	27.12
490.754	27.44
491.107	27.53
491.459	27.8
491.811	27.81
492.163	28.11
492.515	27.97
492.866	27.64
493.218	27.23
493.57	27.26
493.922	27.46
494.274	27.83
494.625	28.03
494.977	28.16
495.328	28.57
495.68	28.64
496.031	28.75
496.383	28.88
496.734	29
497.086	29.06
497.437	29.06
497.788	29.03
498.139	29.08
498.49	28.71
498.842	28.73
499.193	28.86
499.544	28.92
499.894	29.06
500.245	29.13
500.596	29.15
500.947	29.4
501.298	29.3
501.648	29.53
501.999	29.56
502.35	29.48
502.7	29.81
503.051	29.73
503.401	29.81
503.752	29.78
504.102	29.99
504.452	29.98
504.803	29.86
505.153	29.9
505.503	29.82
505.853	29.94
506.203	29.96
506.553	30.14
506.903	30.21
507.253	30.39
507.603	30.11
507.953	30.35
508.303	30.31
508.652	30.27
509.002	30.4
509.352	30.41
509.701	30.41
510.051	30.36
510.4	30.5
510.75	30.34
511.099	30.2
511.449	30.29
511.798	30.43
512.147	30.58
512.496	30.49
512.846	30.71
513.195	30.72
513.544	30.8
513.893	30.62
514.242	30.65
514.591	30.78
514.939	31.05
515.288	30.9
515.637	30.92
515.986	31.13
516.334	31.12
516.683	31.31
517.032	31.25
517.38	31.36
517.729	31.45
518.077	31.35
518.426	31.43
518.774	31.37
519.122	31.38
519.47	31.22
519.819	31.2
520.167	30.82
520.515	31.04
520.863	31.23
521.211	31.18
521.559	31.41
521.907	31.54
522.255	31.58
522.602	31.62
522.95	31.76
523.298	31.86
523.645	31.9
523.993	31.91
524.341	32.1
524.688	32.08
525.036	32.1
525.383	32.03
525.73	32.24
526.078	32.07
526.425	32.11
526.772	32.01
527.119	31.76
527.466	31.53
527.814	31.65
528.161	31.78
528.508	31.92
528.854	31.89
529.201	31.89
529.548	31.93
529.895	31.52
530.242	31.15
530.588	31.28
530.935	31.5
531.282	31.7
531.628	31.89
531.975	32.07
532.321	32.16
532.667	32.38
533.014	32.45
533.36	32.51
533.706	32.49
534.052	32.54
534.399	32.46
534.745	32.17
535.091	32.11
535.437	32.17
535.783	32.48
536.129	32.7
536.474	32.81
536.82	32.97
537.166	33.14
537.512	33.02
537.857	33.22
538.203	32.87
538.549	32.78
538.894	32.98
539.239	33.11
539.585	33.29
539.93	33.56
540.276	33.74
540.621	33.71
540.966	33.79
541.311	33.97
541.656	33.79
542.001	33.84
542.346	33.32
542.691	32.98
543.036	32.75
543.381	32.77
543.726	33.13
544.071	33.26
544.415	33.4
544.76	33.55
545.105	33.62
545.449	33.71
545.794	33.86
546.138	34.15
546.483	33.96
546.827	34.36
547.171	34.27
547.516	34.35
547.86	34.26
548.204	34.29
548.548	34.11
548.892	33.92
549.236	34.48
549.58	34.69
549.924	34.61
550.268	35.18
550.612	35.16
550.956	35.27
551.3	35.04
551.643	35.17
551.987	35.25
552.33	35.28
552.674	35.26
553.017	35.39
553.361	35.44
553.704	35.37
554.048	35.29
554.391	35.21
554.734	35.47
555.077	35.28
555.42	35.35
555.764	35.69
556.107	35.72
556.45	35.78
556.793	35.82
557.135	36
557.478	35.98
557.821	35.76
558.164	36.04
558.507	35.99
558.849	36.43
559.192	36.22
559.534	36.35
559.877	36.33
560.219	36.54
560.562	36.45
560.904	36.3
561.246	36.32
561.589	36.31
561.931	36.48
562.273	36.56
562.615	36.62
562.957	36.53
563.299	36.47
563.641	36.62
563.983	36.63
564.325	36.68
564.667	37.13
565.008	36.72
565.35	36.79
565.692	36.9
566.033	36.81
566.375	36.81
566.716	36.82
567.058	36.71
567.399	36.67
567.741	36.75
568.082	36.53
568.423	36.56
568.764	36.81
569.105	37.1
569.447	37.05
569.788	37.28
570.129	36.98
570.47	37.11
570.811	37.19
571.151	37.28
571.492	37.44
571.833	37.24
572.174	37.27
572.514	37.24
572.855	37.32
573.195	37.2
573.536	37.58
573.876	37.37
574.217	37.39
574.557	37.29
574.898	37.36
575.238	37.52
575.578	37.57
575.918	37.36
576.258	37.84
576.598	37.64
576.938	37.55
577.278	37.78
577.618	37.64
577.958	38
578.298	37.9
578.638	38.31
578.977	38.2
579.317	38.28
579.657	38.05
579.996	38.18
580.336	38.38
580.675	38.24
581.014	38.19
581.354	38.8
581.693	38.28
582.032	38.93
582.372	38.93
582.711	38.69
583.05	38.43
583.389	38.82
583.728	38.8
584.067	38.61
584.406	38.78
584.745	38.98
585.083	38.84
585.422	39.03
585.761	38.95
586.1	39.12
586.438	38.97
586.777	39.49
587.115	39.22
587.454	39.13
587.792	39.3
588.13	39.19
588.469	39.31
588.807	39.38
589.145	39.36
589.483	39.19
589.821	39.37
590.159	39.58
590.497	39.42
590.835	39.36
591.173	39.57
591.511	39.56
591.849	39.17
592.187	39.65
592.524	39.98
592.862	39.84
593.2	39.68
593.537	40.17
593.875	39.74
594.212	39.73
594.55	40.04
594.887	40.08
595.224	39.63
595.561	39.9
595.899	40
596.236	39.93
596.573	39.83
596.91	39.95
597.247	40.02
597.584	40.02
597.921	39.92
598.258	39.81
598.594	39.64
598.931	39.51
599.268	39.53
599.604	40.06
599.941	40.23
600.277	40.23
600.614	40.37
600.95	40.56
601.287	40.43
601.623	40.5
601.959	40.79
602.296	40.45
602.632	40.45
602.968	40.66
603.304	40.93
603.64	40.66
603.976	40.75
604.312	40.91
604.648	40.76
604.984	40.35
605.319	40.6
605.655	40.29
605.991	40.62
606.326	40.35
606.662	40.26
606.998	40.36
607.333	40.36
607.668	40.63
608.004	40.89
608.339	40.67
608.674	40.93
609.01	41.3
609.345	41.09
609.68	41.08
610.015	41.23
610.35	41.3
610.685	41.06
611.02	41.06
611.355	40.86
611.689	40.8
612.024	41.05
612.359	41.28
612.694	41.51
613.028	41.45
613.363	41.5
613.697	41.63
614.032	41.56
614.366	41.88
614.7	41.41
615.035	41.68
615.369	42.14
615.703	41.96
616.037	41.84
616.371	41.86
616.705	42.01
617.039	42.29
617.373	42.04
617.707	42.09
618.041	41.89
618.375	42.43
618.709	41.97
619.042	41.79
619.376	42.61
619.71	42.21
620.043	42.06
620.377	42.05
620.71	42.25
621.043	42.69
621.377	41.87
621.71	42.57
622.043	42.35
622.376	42.07
622.709	42.33
623.043	42.59
623.376	42.65
623.709	42.27
624.041	42.66
624.374	42.7
624.707	42.91
625.04	43.05
625.373	42.82
625.705	42.61
626.038	42.91
626.37	42.9
626.703	43
627.035	43.05
627.368	43.15
627.7	42.8
628.032	42.27
628.365	42.68
628.697	42.88
629.029	42.91
629.361	42.8
629.693	42.8
630.025	43.11
630.357	43.14
630.689	43.04
631.021	43.2
631.353	43.23
631.684	43.58
632.016	43.16
632.348	43.1
632.679	43.26
633.011	43.43
633.342	43.4
633.674	43.73
634.005	43.2
634.336	43.79
634.668	43.58
634.999	44.09
635.33	43.42
635.661	43.39
635.992	43.66
636.323	44.02
636.654	43.91
636.985	43.62
637.316	43.46
637.647	43.73
637.977	43.85
638.308	43.27
638.639	43.65
638.969	43.77
639.3	43.73
639.63	44.01
639.961	44.41
640.291	44.15
640.622	44.25
640.952	44.11
641.282	43.84
641.612	44.29
641.943	44.91
642.273	44.38
642.603	43.84
642.933	44.55
643.263	44.12
643.592	44.23
643.922	44.45
644.252	44.62
644.582	44.59
644.911	44.06
645.241	44.58
645.571	44.7
645.9	44
646.23	44.75
646.559	44.25
646.888	44.65
647.218	44.88
647.547	44.55
647.876	44.5
648.205	44.43
648.534	44.36
648.863	45.03
649.192	44.64
649.521	44.99
649.85	44.41
650.179	44.78
650.508	44.63
650.837	44.76
651.165	44.97
651.494	44.82
651.822	44.87
652.151	44.92
652.479	44.95
652.808	45.2
653.136	44.96
653.465	45.03
653.793	44.83
654.121	45.04
654.449	44.95
654.777	45.07
655.105	45.12
655.433	44.9
655.761	45.02
656.089	45.07
656.417	45.26
656.745	45.23
657.073	44.89
657.4	45.54
657.728	45.18
658.056	45.53
658.383	44.98
658.711	45.07
659.038	44.92
659.365	45.63
659.693	45.48
660.02	45.11
660.347	45.17
660.674	44.98
661.001	45.07
661.329	44.97
661.656	45.63
661.982	45.53
662.309	45.92
662.636	45.26
662.963	46.04
663.29	45.81
663.616	45.47
663.943	45.5
664.27	45.96
664.596	45.91
664.923	46.14
665.249	46.22
665.576	45.84
665.902	46.01
666.228	45.57
666.554	45.99
666.881	45.77
667.207	46.43
667.533	46.09
667.859	46.15
668.185	46.12
668.511	45.61
668.837	46.21
669.162	45.86
669.488	46.54
669.814	46.67
670.139	45.89
670.465	46.38
670.791	46.44
671.116	46.32
671.442	46.41
671.767	46.53
672.092	46.07
672.418	46.97
672.743	46.69
673.068	46.06
673.393	46.49
673.718	46.77
674.043	46.64
674.368	46.94
674.693	46.43
675.018	46.41
675.343	47.05
675.667	47
675.992	46.63
676.317	47
676.641	47.16
676.966	47.03
677.29	46.6
677.615	47.01
677.939	46.86
678.264	46.92
678.588	46.57
678.912	46.82
679.236	47.14
679.56	47.72
679.885	47.58
680.209	47.63
680.532	46.3
680.856	46.64
681.18	47.26
681.504	46.48
681.828	47.29
682.152	46.64
682.475	47.34
682.799	47.56
683.122	47.33
683.446	47.3
683.769	47.28
684.093	47.33
684.416	47.76
684.739	47.16
685.062	47.73
685.386	47.5
685.709	47.33
686.032	47.16
686.355	46.9
686.678	46.65
687.001	48.12
687.324	47.59
687.646	47.56
687.969	47.82
688.292	47.19
688.614	47.77
688.937	47.69
689.26	47.44
689.582	46.71
689.904	47.96
690.227	48.19
690.549	47.24
690.871	47.28
691.194	47.72
691.516	47.99
691.838	47.12
692.16	47.49
692.482	47.68
692.804	48.24
693.126	49.11
693.448	47.57
693.769	48.63
694.091	48.15
694.413	48.33
694.735	48.45
695.056	47.74
695.378	48.18
695.699	47.83
696.021	48.03
696.342	48.73
696.663	47.79
696.984	48.78
697.306	48.4
697.627	47.94
697.948	47.94
698.269	47.77
698.59	48.08
698.911	48.2
699.232	48.42
699.553	48.11
699.873	48.22
700.194	48.42
700.515	47.65
700.835	48.19
701.156	47.78
701.477	48.58
701.797	48.29
702.117	48.48
702.438	48.67
702.758	47.88
703.078	48.46
703.398	49.02
703.719	48.84
704.039	47.94
704.359	49.34
704.679	48.74
704.999	48.67
705.319	48.31
705.638	49.86
705.958	49.03
706.278	48.81
706.597	49.48
706.917	48.79
707.237	48.63
707.556	49.27
707.876	49.05
708.195	49.31
708.514	48.93
708.834	49.07
709.153	48.98
709.472	48.73
709.791	49.51
710.11	50.07
710.429	48.09
710.748	49.44
711.067	48.79
711.386	48.08
711.705	49.38
712.023	49.17
712.342	49.83
712.661	48.24
712.979	48.95
713.298	49.01
713.616	48.24
713.935	49.73
714.253	50.02
714.572	49.52
714.89	49.92
715.208	49.85
715.526	48.75
715.844	49.45
716.162	48.64
716.48	48.91
716.798	49.39
717.116	49.56
717.434	48.41
717.752	50.14
718.069	49.76
718.387	49.36
718.705	49.32
719.022	49.48
719.34	49.38
719.657	49.62
719.975	49.81
720.292	50.4
720.609	49.53
720.927	48.37
721.244	51.24
721.561	49.65
721.878	48.32
722.195	50
722.512	49.25
722.829	49.23
723.146	51.35
723.463	50.4
723.779	50.18
724.096	50.16
724.413	50.28
724.729	50.58
725.046	50.64
725.362	50.03
725.679	50.42
725.995	50.15
726.311	48.36
726.628	49.34
726.944	50.57
727.26	50.42
727.576	51.48
727.892	51.05
728.208	49.88
728.524	50.84
728.84	50.14
729.156	50.02
729.472	49.96
729.787	51.08
730.103	49.99
730.419	51.08
730.734	48.91
731.05	50.83
731.365	51.6
731.681	50.54
731.996	51.55
732.311	50.77
732.626	51.16
732.942	49.7
733.257	50.32
733.572	50.44
733.887	51.32
734.202	51.15
734.517	51.73
734.832	50.4
735.146	50.35
735.461	51.01
735.776	49.68
736.091	50.11
736.405	51.17
736.72	51.32
737.034	49.88
737.349	50.6
737.663	50.9
737.977	51.55
738.292	50.65
738.606	50.91
738.92	50.96
739.234	51.31
739.548	50.53
739.862	50.07
740.176	50.45
740.49	49.76
740.804	52.13
741.117	50.67
741.431	52.36
741.745	51.67
742.058	51.14
742.372	51.53
742.685	50.48
742.999	50.43
743.312	49.88
743.626	52.22
743.939	52.44
744.252	52.79
744.565	49.59
744.878	50.06
745.191	49.64
745.505	51.75
745.817	51.98
746.13	51.15
746.443	51.23
746.756	51.91
747.069	53.26
747.381	50.68
747.694	49.92
748.007	52.69
748.319	51.88
748.632	51.06
748.944	51.77
749.256	50.03
749.569	50.63
749.881	50.58
750.193	52.14
750.505	51.88
750.817	52.07
751.129	51.83
751.441	51.25
751.753	53.03
752.065	51.88
752.377	51.93
752.689	52.28
753	51.8
753.312	50.77
753.624	50.95
753.935	53.85
754.247	52.48
754.558	53.13
754.869	52
755.181	51.77
755.492	50.35
755.803	50.54
756.114	51.43
756.425	52.08
756.736	52.21
757.047	51.43
757.358	53.14
757.669	50.36
757.98	53.45
758.291	53.99
758.601	54.96
758.912	50.29
759.223	53.23
759.533	51.8
759.844	51.3
760.154	52.52
760.464	51.4
760.775	52.55
761.085	51.94
761.395	50.81
761.705	54.1
762.016	52.67
762.326	53.29
762.636	54.44
762.945	52.77
763.255	50.76
763.565	51.12
763.875	51.4
764.185	51.95
764.494	52.71
764.804	53.47
765.113	53.28
765.423	53.03
765.732	52.36
766.042	53.18
766.351	52.88
766.66	52.15
766.97	52.99
767.279	51.84
767.588	53.62
767.897	53.55
768.206	53.81
768.515	52.65
768.824	54.15
769.133	53.4
769.441	54.11
769.75	54.54
770.059	52.78
770.367	52.11
770.676	50
770.984	56.08
771.293	53.66
771.601	54.59
771.91	52.53
772.218	49.95
772.526	52.19
772.834	54.2
773.142	53.22
773.45	52.23
773.758	51.07
774.066	51.03
774.374	51.29
774.682	52.63
774.99	52.37
775.298	52.85
775.605	53.65
775.913	51.78
776.22	50.17
776.528	52.75
776.835	54.43
777.143	53.66
777.45	51.92
777.757	54.32
778.065	52.38
778.372	56.01
778.679	51.95
778.986	54.92
779.293	52.2
779.6	54.69
779.907	48.54
780.214	54.07
780.52	56.16
780.827	54.4
781.134	52.62
781.44	50.77
781.747	56.88
782.053	53.45
782.36	54
782.666	52.86
782.973	52.88
783.279	50.5
783.585	55.2
783.891	54.32
784.197	52.42
784.503	55.37
784.809	55.68
785.115	54.14
785.421	56.06
785.727	57.01
786.033	58.48
786.339	51.02
786.644	54.6
786.95	53.37
787.255	53.74
787.561	53.43
787.866	54.76
788.172	59.02
788.477	57
788.782	54.26
789.088	53.62
789.393	54.44
789.698	56.15
790.003	53.47
790.308	56.55
790.613	52.37
790.918	50.65
791.223	55.35
791.527	52.84
791.832	55.07
792.137	51.27
792.441	54.61
792.746	57.01
793.05	52.36
793.355	53.56
793.659	55.36
793.963	53.15
794.268	58.51
794.572	56.39
794.876	57.4
795.18	54.93
795.484	59.02
795.788	55.96
796.092	51.96
796.396	51.61
796.7	52.22
797.004	52.88
797.307	52.18
797.611	56.98
797.915	59.49
798.218	50.36
798.522	55.23
798.825	52.58
799.128	54.08
799.432	53.32
799.735	58.73
800.038	56.91
800.341	50.9
800.644	52.32
800.947	51.78
801.25	51.71
801.553	56.72
801.856	52.58
802.159	56.29
802.462	53.76
802.764	54.99
803.067	58.92
803.37	52.61
803.672	54.07
803.975	54.76
804.277	54.3
804.579	52.14
804.882	53.83
805.184	56.6
805.486	55.89
805.788	58.28
806.09	60.18
806.392	57.55
806.694	53.88
806.996	58.75
807.298	57.77
807.6	57.52
807.902	54.3
808.203	56.8
808.505	53.32
808.807	54.32
809.108	52.75
809.409	56.49
809.711	56.45
810.012	55.4
810.313	54.23
810.615	51.01
810.916	55.21
811.217	58.48
811.518	54.06
811.819	53.97
812.12	56.21
812.421	57.31
812.722	50.3
813.023	54.68
813.323	58.13
813.624	55.8
813.925	53.9
814.225	51.99
814.526	54.16
814.826	54.46
815.126	51.06
815.427	59.4
815.727	56.67
816.027	50.75
816.327	57.7
816.627	57.39
816.927	57.99
817.227	54.44
817.527	56.39
817.827	57.72
818.127	59.1
818.427	59.84
818.727	51.65
819.026	57.93
819.326	50.12
819.625	55.86
819.925	54.3
820.224	51.91
820.524	59.91
820.823	53.65
821.122	51.14
821.421	51.7
821.72	54.53
822.019	53.53
822.318	55.92
822.617	53.62
822.916	57.22
823.215	55.79
823.514	56.34
823.813	55.31
824.111	53.92
824.41	54.2
824.709	56.87
825.007	56.28
825.306	55.93
825.604	57.1
825.902	56.41
826.201	56.24
826.499	58.09
826.797	55.52
827.095	56.86
827.393	57.56
827.691	58.27
827.989	55.89
828.287	56.64
828.585	57.86
828.882	56.03
829.18	57.63
829.478	58.02
829.775	54.18
830.073	57.07
830.37	58.04
830.668	59.41
830.965	59.69
831.263	60.38
831.56	58.59
831.857	59.01
832.154	56.74
832.451	56.85
832.748	56.79
833.045	59.36
833.342	58.61
833.639	58.75
833.936	56.04
834.232	63.62
834.529	53.44
834.826	56.5
835.122	54.95
835.419	56.48
835.715	55.91
836.012	55.33
836.308	62.03
836.604	58.26
836.901	55.97
837.197	58.47
837.493	56.92
837.789	57.2
838.085	57.62
838.381	55.85
838.677	58.44
838.972	57.5
839.268	52.63
839.564	55.95
839.86	54.67
840.155	58.7
840.451	60.33
840.746	56.06
841.042	54.41
841.337	50.34
841.632	47.03
841.928	67.32
842.223	67.29
842.518	57.81
842.813	54.97
843.108	63.7
843.403	55.8
843.698	59.29
843.993	57.88
844.287	58.2
844.582	54.83
844.877	50.5
845.171	54.73
845.466	55.74
845.761	61.01
846.055	56.25
846.349	60.13
846.644	51.27
846.938	56.98
847.232	60.19
847.526	35.58
847.82	57.16
848.114	54.24
848.408	58.95
848.702	74.85
848.996	65.11
849.29	51.74
849.584	45.86
849.877	57.43
850.171	45.04
850.465	59.74
850.758	66.09
851.052	50.22
851.345	62.52
851.638	67.72
851.932	57.29
852.225	66.37
852.518	65.08
852.811	64.75
853.104	54.35
853.397	54.87
853.69	73.57
853.983	46.12
854.276	64.53
854.569	43.54
854.861	59.19
855.154	81.37
855.447	43.07
855.739	41.01
856.032	64.27
856.324	62.08
856.616	51.78
856.909	52.19
857.201	32.25
857.493	48.36
857.785	70.15
858.077	51.66
858.369	50.32
858.661	63.63
858.953	48.87
859.245	50.69
859.537	77.63
859.829	62.24
860.12	73.72
860.412	70.59
860.703	74.89
860.995	63.04
861.286	65.12
861.578	47.38
861.869	71.97
862.16	52.72
862.452	69.22
862.743	80.55
863.034	58.4
863.325	63.94
863.616	64.07
863.907	75.3
864.198	62.14
864.488	72.95
864.779	44
865.07	61.6
865.36	44.71
865.651	62.95
865.941	68.41
866.232	49.3
866.522	55.97
866.813	54.16
867.103	57.26
867.393	37.68
867.683	61.97
867.973	38.03
868.263	42.55
868.553	40.49
868.843	59.42
869.133	55.06
869.423	64.82
869.713	61.63
870.002	68.23
870.292	51.55
870.582	70.79
870.871	51.38
871.161	52.29
871.45	51.1
871.739	72.24
872.029	64.93
872.318	62.34
872.607	80.84
872.896	41.68
873.185	64.07
873.474	55.55
873.763	72.49
874.052	39.57
874.341	47.29
874.63	59.91
874.918	91.88
875.207	69.09
875.496	75.07
875.784	67.45
876.073	61.23
876.361	56.92
876.649	41.86
876.938	60.61
877.226	53.76
877.514	64.64
877.802	52.8
878.09	40.3
878.378	64.54
878.666	58.58
878.954	30.59
879.242	88.94
879.53	90.84
879.817	65.47
880.105	31.26
880.392	64.26
880.68	53.74
880.967	44.63
881.255	62.5
881.542	75.17
881.83	57.22
882.117	61
882.404	42.1
882.691	70.27
882.978	51.58
883.265	55.89
883.552	63.8
883.839	64.3
884.126	53.78
884.413	68.88
884.699	56.09
884.986	60.77
885.273	57.43
885.559	57.43
885.846	57.43
