Data from 97279_chest_Reflection__2__03.txt Node

Date: Fri Sep 23 19:27:26 CDT 2022
User: ToomeyLab
Spectrometer: FLMS14357
Trigger mode: 0
Integration Time (sec): 1.000000E-2
Scans to average: 100
Electric dark correction enabled: true
Nonlinearity correction enabled: false
Boxcar width: 0
XAxis mode: Wavelengths
Number of Pixels in Spectrum: 2048
>>>>>Begin Spectral Data<<<<<
189.047	229.26
189.435	229.26
189.823	229.26
190.211	1890.7
190.599	-18.72
190.987	42.87
191.375	-279.29
191.763	115.26
192.151	102.44
192.538	169.64
192.926	139.33
193.314	311.12
193.702	10714.81
194.089	-77.08
194.477	25.43
194.864	-108.3
195.252	-171.87
195.639	52.12
196.027	50.02
196.414	404.11
196.801	215.48
197.189	42.18
197.576	20.91
197.963	83.81
198.351	23.28
198.738	-58.45
199.125	29.38
199.512	52.74
199.899	-7
200.286	29.66
200.673	19.49
201.06	34.07
201.447	43.22
201.833	25.42
202.22	-3.71
202.607	-1.11
202.994	-19.36
203.38	-33.53
203.767	22.24
204.154	28.96
204.54	35.21
204.927	3.16
205.313	12.87
205.699	-23.11
206.086	-16.58
206.472	6.59
206.858	24.98
207.245	10.02
207.631	-4.01
208.017	4.44
208.403	13.68
208.789	3.75
209.175	27.47
209.561	3.45
209.947	-6.06
210.333	13.34
210.719	2.65
211.105	23.32
211.491	43.66
211.876	22.92
212.262	-8.56
212.648	-8.91
213.034	-12.35
213.419	-2.2
213.805	33.08
214.19	-14.76
214.576	5.06
214.961	2.64
215.346	-4.24
215.732	28.77
216.117	-1.51
216.502	25.15
216.888	12.92
217.273	-1.17
217.658	8.71
218.043	8.27
218.428	27.04
218.813	17.94
219.198	18.74
219.583	12.81
219.968	19.11
220.353	1.29
220.738	4.91
221.122	33.12
221.507	13.5
221.892	0.43
222.276	8.02
222.661	7.48
223.046	9.94
223.43	-6.44
223.815	9.5
224.199	0.58
224.583	5.51
224.968	-1.43
225.352	6.02
225.736	-1.46
226.121	3.37
226.505	1.69
226.889	7.05
227.273	4.8
227.657	-1.37
228.041	1.01
228.425	3.04
228.809	2.3
229.193	2.83
229.577	3.74
229.961	2.71
230.344	2.37
230.728	1.69
231.112	1.73
231.495	1.75
231.879	0.28
232.263	2.28
232.646	2.17
233.03	2.43
233.413	2.42
233.797	3.13
234.18	3.39
234.563	0.69
234.946	4.58
235.33	2.12
235.713	2.3
236.096	1.37
236.479	2.25
236.862	2.33
237.245	3.26
237.628	3.26
238.011	3.04
238.394	2.01
238.777	2.49
239.16	3.12
239.543	2.93
239.925	1.7
240.308	4.13
240.691	2.67
241.073	1.8
241.456	1.43
241.838	2.61
242.221	2.8
242.603	2.96
242.986	1.46
243.368	1.74
243.75	2.39
244.133	2.19
244.515	2.26
244.897	2.37
245.279	3.24
245.661	3.37
246.043	3.69
246.425	2.1
246.807	2.25
247.189	2.86
247.571	2.67
247.953	2.36
248.335	2.34
248.717	2.67
249.098	2.41
249.48	2.61
249.862	2.55
250.243	2.81
250.625	3.02
251.006	3.21
251.388	2.44
251.769	3.21
252.151	1.33
252.532	2.99
252.913	3.6
253.295	2.72
253.676	2.47
254.057	2.39
254.438	2.45
254.819	2.74
255.2	3.05
255.581	4.1
255.962	2.8
256.343	2.66
256.724	3.16
257.105	3.81
257.486	2.35
257.867	2.06
258.247	2.8
258.628	2.65
259.009	2.67
259.389	2.79
259.77	2.26
260.15	2.68
260.531	2.34
260.911	2.57
261.292	2.17
261.672	2.15
262.052	2.53
262.432	2.65
262.813	2.95
263.193	2.6
263.573	3.17
263.953	1.77
264.333	2.58
264.713	2.48
265.093	2.3
265.473	2.45
265.853	1.93
266.233	2.34
266.612	2.43
266.992	3.36
267.372	2.15
267.752	2.1
268.131	2.6
268.511	2.39
268.89	2.17
269.27	2.58
269.649	2.28
270.029	2.18
270.408	2.65
270.787	2.1
271.167	2.41
271.546	2.53
271.925	2.6
272.304	1.72
272.683	2.37
273.062	2.18
273.441	2.18
273.82	2.1
274.199	2.04
274.578	2.08
274.957	1.83
275.336	2.31
275.715	2.32
276.093	2.8
276.472	3.05
276.851	2.58
277.229	2.3
277.608	2.13
277.986	2.31
278.365	2.1
278.743	2.34
279.122	1.84
279.5	2.35
279.878	1.39
280.257	2.14
280.635	2.61
281.013	2.05
281.391	2.11
281.769	2.43
282.147	2.25
282.525	2.55
282.903	1.91
283.281	2.29
283.659	2.32
284.037	2.03
284.415	2.23
284.792	2.14
285.17	2.58
285.548	2.25
285.925	2.4
286.303	2.71
286.68	2.35
287.058	2.3
287.435	2.02
287.813	2.55
288.19	2.35
288.567	2.4
288.945	2.55
289.322	2.43
289.699	2.97
290.076	2.44
290.453	2.51
290.83	2.66
291.207	2.7
291.584	2.77
291.961	2.57
292.338	2.46
292.715	2.49
293.092	2.53
293.469	2.93
293.845	3
294.222	3.03
294.599	2.89
294.975	3.34
295.352	2.73
295.728	2.91
296.105	2.43
296.481	3.1
296.858	2.82
297.234	2.98
297.61	2.39
297.986	2.66
298.363	2.68
298.739	2.89
299.115	2.86
299.491	2.95
299.867	2.99
300.243	3.09
300.619	3.26
300.995	3.31
301.371	2.97
301.746	3.38
302.122	3.42
302.498	3.32
302.874	2.94
303.249	3.14
303.625	3.39
304	3.09
304.376	2.8
304.751	3.07
305.127	3.23
305.502	3.09
305.878	3.46
306.253	3.41
306.628	3.33
307.003	3.02
307.378	3.44
307.754	3.8
308.129	3.34
308.504	3.78
308.879	3.3
309.254	3.55
309.629	3.65
310.003	3.37
310.378	3.33
310.753	3.2
311.128	3.26
311.502	3.03
311.877	3.34
312.252	3.15
312.626	3.63
313.001	3.54
313.375	3.31
313.75	3.33
314.124	3.18
314.498	3.57
314.873	3.86
315.247	3.58
315.621	3.14
315.995	3.82
316.369	3.46
316.743	3.28
317.117	2.97
317.491	3.28
317.865	3.75
318.239	4.21
318.613	2.75
318.987	3.2
319.361	2.94
319.734	3.27
320.108	3.84
320.482	3.72
320.855	3.45
321.229	3.95
321.602	3.73
321.976	3.31
322.349	3.88
322.723	3.64
323.096	3.48
323.469	3.67
323.843	3.32
324.216	3.91
324.589	4.05
324.962	4.05
325.335	3.53
325.708	3.79
326.081	3.74
326.454	3.74
326.827	3.37
327.2	3.71
327.573	3.85
327.945	3.82
328.318	3.1
328.691	3.9
329.063	3.75
329.436	4.01
329.809	4.11
330.181	3.32
330.553	3.68
330.926	3.96
331.298	3.64
331.671	3.72
332.043	3.99
332.415	4.06
332.787	3.51
333.159	4.06
333.532	3.23
333.904	3.36
334.276	3.65
334.648	3.7
335.02	3.58
335.391	4.04
335.763	3.8
336.135	4.28
336.507	3.85
336.879	3.69
337.25	3.94
337.622	3.64
337.993	3.9
338.365	3.74
338.736	4.15
339.108	4.24
339.479	3.69
339.851	4.15
340.222	4.14
340.593	3.7
340.964	4.12
341.336	3.57
341.707	4.13
342.078	3.65
342.449	3.45
342.82	3.83
343.191	3.65
343.562	3.68
343.933	4.28
344.303	3.87
344.674	4.09
345.045	4.28
345.416	3.86
345.786	4.03
346.157	3.76
346.527	3.7
346.898	3.92
347.268	3.52
347.639	3.95
348.009	3.94
348.38	3.64
348.75	3.96
349.12	3.99
349.49	3.8
349.861	3.67
350.231	3.85
350.601	3.9
350.971	4.09
351.341	3.8
351.711	3.95
352.081	3.61
352.45	3.55
352.82	3.8
353.19	4.21
353.56	4.01
353.929	3.83
354.299	3.87
354.669	3.86
355.038	4.29
355.408	3.45
355.777	3.86
356.147	3.53
356.516	3.93
356.885	3.72
357.254	3.61
357.624	3.51
357.993	3.89
358.362	3.81
358.731	3.75
359.1	3.78
359.469	3.55
359.838	3.58
360.207	4.11
360.576	4.02
360.945	3.6
361.314	3.94
361.682	3.59
362.051	3.89
362.42	3.9
362.788	3.79
363.157	3.99
363.525	3.82
363.894	3.88
364.262	3.68
364.631	4.03
364.999	3.84
365.367	3.94
365.735	3.85
366.104	3.8
366.472	3.77
366.84	3.93
367.208	3.92
367.576	3.96
367.944	3.88
368.312	4.04
368.68	3.82
369.048	3.72
369.416	3.91
369.783	3.84
370.151	3.97
370.519	3.89
370.886	4.14
371.254	4.08
371.621	3.67
371.989	3.81
372.356	4.14
372.724	3.54
373.091	4.03
373.458	3.63
373.826	3.71
374.193	4.16
374.56	4.05
374.927	3.89
375.294	3.88
375.661	3.98
376.028	3.9
376.395	3.81
376.762	3.9
377.129	4.04
377.496	3.91
377.863	3.99
378.229	3.87
378.596	3.73
378.963	3.94
379.329	4.08
379.696	3.89
380.062	3.82
380.429	3.85
380.795	3.91
381.161	4.06
381.528	4.05
381.894	4.14
382.26	3.95
382.626	4
382.993	4.15
383.359	3.88
383.725	4.02
384.091	4
384.457	3.8
384.823	3.72
385.188	4.2
385.554	3.87
385.92	4.06
386.286	3.94
386.651	3.99
387.017	4.35
387.383	4.15
387.748	4.18
388.114	3.94
388.479	3.94
388.845	4.08
389.21	3.81
389.575	4
389.94	3.86
390.306	4.02
390.671	3.96
391.036	4.03
391.401	4.29
391.766	4.06
392.131	4.11
392.496	3.92
392.861	4
393.226	3.93
393.591	3.77
393.956	4.21
394.32	4.12
394.685	4.1
395.05	4.19
395.414	4.07
395.779	4.02
396.143	4.07
396.508	4.09
396.872	4.07
397.236	4.18
397.601	4
397.965	4.28
398.329	4.29
398.694	4.32
399.058	4.2
399.422	4.13
399.786	4.31
400.15	4.28
400.514	4.26
400.878	4.07
401.242	4.15
401.605	4.34
401.969	4.34
402.333	4.1
402.697	4.02
403.06	4.22
403.424	4.06
403.787	4.13
404.151	4.08
404.514	4.07
404.878	4.02
405.241	4.33
405.604	4.13
405.968	3.91
406.331	3.98
406.694	4.26
407.057	4.06
407.42	4.26
407.783	4.17
408.146	4.05
408.509	3.99
408.872	4.12
409.235	4.22
409.598	4.6
409.961	4.39
410.323	4.39
410.686	4.3
411.049	4.25
411.411	4.26
411.774	4.21
412.136	4.3
412.499	4.25
412.861	4.11
413.223	4.09
413.586	4.43
413.948	4.24
414.31	4.12
414.672	4.28
415.035	4.09
415.397	4.37
415.759	4.38
416.121	4.34
416.483	4.12
416.845	3.92
417.206	4.19
417.568	4.18
417.93	4.36
418.292	4.26
418.653	4.18
419.015	4.21
419.377	4.13
419.738	4.16
420.1	4.14
420.461	4.16
420.822	4.09
421.184	4.22
421.545	4.18
421.906	4.2
422.267	4.07
422.629	4.02
422.99	4.16
423.351	4.08
423.712	4.1
424.073	4.22
424.434	4.22
424.795	4.3
425.155	4.15
425.516	4.1
425.877	4.08
426.238	4.2
426.598	4.22
426.959	4.24
427.32	4.38
427.68	4.22
428.041	4.36
428.401	4.32
428.761	4.36
429.122	4.43
429.482	4.47
429.842	4.52
430.202	4.43
430.563	4.25
430.923	4.32
431.283	4.46
431.643	4.25
432.003	4.36
432.363	4.52
432.722	4.47
433.082	4.18
433.442	4.29
433.802	4.3
434.161	4.34
434.521	4.32
434.881	4.13
435.24	4.28
435.6	4.29
435.959	4.33
436.319	4.47
436.678	4.42
437.037	4.56
437.396	4.4
437.756	4.49
438.115	4.36
438.474	4.47
438.833	4.53
439.192	4.41
439.551	4.41
439.91	4.47
440.269	4.41
440.628	4.2
440.987	4.2
441.345	4.31
441.704	4.35
442.063	4.4
442.421	4.22
442.78	4.26
443.138	4.26
443.497	4.43
443.855	4.56
444.214	4.6
444.572	4.52
444.93	4.59
445.288	4.48
445.647	4.67
446.005	4.39
446.363	4.41
446.721	4.29
447.079	4.31
447.437	4.36
447.795	4.35
448.153	4.18
448.51	4.33
448.868	4.4
449.226	4.54
449.584	4.5
449.941	4.59
450.299	4.57
450.656	4.51
451.014	4.64
451.371	4.48
451.729	4.51
452.086	4.61
452.443	4.59
452.801	4.5
453.158	4.71
453.515	4.66
453.872	4.49
454.229	4.5
454.586	4.51
454.943	4.54
455.3	4.56
455.657	4.67
456.014	4.79
456.371	4.51
456.727	4.61
457.084	4.53
457.441	4.75
457.797	4.42
458.154	4.68
458.51	4.52
458.867	4.71
459.223	4.66
459.58	4.58
459.936	4.6
460.292	4.45
460.648	4.57
461.005	4.52
461.361	4.4
461.717	4.42
462.073	4.48
462.429	4.52
462.785	4.67
463.141	4.64
463.496	4.78
463.852	4.72
464.208	4.71
464.564	4.77
464.919	4.73
465.275	4.56
465.631	4.56
465.986	4.52
466.342	4.7
466.697	4.66
467.052	4.79
467.408	4.76
467.763	4.75
468.118	4.71
468.473	4.73
468.829	4.61
469.184	4.74
469.539	4.6
469.894	4.66
470.249	4.71
470.603	4.84
470.958	4.86
471.313	4.83
471.668	4.78
472.023	4.68
472.377	4.73
472.732	4.72
473.086	4.73
473.441	4.89
473.795	4.88
474.15	4.68
474.504	4.75
474.859	4.64
475.213	4.82
475.567	4.66
475.921	4.8
476.275	4.79
476.63	4.91
476.984	4.92
477.338	4.74
477.692	4.68
478.045	4.66
478.399	4.82
478.753	4.76
479.107	4.73
479.461	4.72
479.814	4.8
480.168	4.78
480.521	4.92
480.875	4.83
481.228	4.97
481.582	4.79
481.935	4.84
482.289	4.86
482.642	4.75
482.995	4.88
483.348	4.6
483.701	4.76
484.055	4.73
484.408	4.6
484.761	4.52
485.114	4.31
485.466	4.19
485.819	4.3
486.172	4.54
486.525	4.76
486.878	4.87
487.23	4.93
487.583	4.93
487.936	4.9
488.288	4.74
488.641	4.55
488.993	4.52
489.345	4.54
489.698	4.57
490.05	4.73
490.402	4.78
490.754	4.95
491.107	4.98
491.459	4.93
491.811	5.03
492.163	4.97
492.515	4.81
492.866	4.62
493.218	4.45
493.57	4.56
493.922	4.78
494.274	4.98
494.625	5.06
494.977	5.12
495.328	5.21
495.68	5.21
496.031	5.12
496.383	5.11
496.734	5.2
497.086	5.04
497.437	5.22
497.788	5.08
498.139	4.99
498.49	4.87
498.842	4.92
499.193	5.05
499.544	5.03
499.894	5.09
500.245	5.07
500.596	5.12
500.947	5.06
501.298	5.13
501.648	5.26
501.999	5.06
502.35	5.19
502.7	5.16
503.051	5.1
503.401	5.15
503.752	5.04
504.102	5.27
504.452	5.16
504.803	5.14
505.153	5.2
505.503	5.03
505.853	5.28
506.203	5.03
506.553	5.16
506.903	5.23
507.253	5.16
507.603	5.19
507.953	5.13
508.303	5.31
508.652	5.22
509.002	5.29
509.352	5.25
509.701	5.1
510.051	5.12
510.4	5.12
510.75	5.17
511.099	5.18
511.449	5.2
511.798	5.22
512.147	5.31
512.496	5.22
512.846	5.23
513.195	5.19
513.544	5.35
513.893	5.24
514.242	5.27
514.591	5.23
514.939	5.28
515.288	5.4
515.637	5.38
515.986	5.33
516.334	5.38
516.683	5.4
517.032	5.46
517.38	5.39
517.729	5.43
518.077	5.29
518.426	5.52
518.774	5.32
519.122	5.36
519.47	5.22
519.819	5.29
520.167	5.12
520.515	5.18
520.863	5.35
521.211	5.4
521.559	5.44
521.907	5.5
522.255	5.48
522.602	5.48
522.95	5.61
523.298	5.58
523.645	5.53
523.993	5.55
524.341	5.62
524.688	5.51
525.036	5.5
525.383	5.46
525.73	5.58
526.078	5.53
526.425	5.51
526.772	5.42
527.119	5.41
527.466	5.28
527.814	5.38
528.161	5.49
528.508	5.61
528.854	5.57
529.201	5.5
529.548	5.44
529.895	5.17
530.242	5.02
530.588	5.11
530.935	5.32
531.282	5.5
531.628	5.61
531.975	5.64
532.321	5.64
532.667	5.71
533.014	5.68
533.36	5.75
533.706	5.64
534.052	5.62
534.399	5.49
534.745	5.43
535.091	5.3
535.437	5.46
535.783	5.68
536.129	5.8
536.474	5.84
536.82	5.87
537.166	5.88
537.512	5.76
537.857	5.66
538.203	5.61
538.549	5.55
538.894	5.75
539.239	5.82
539.585	5.98
539.93	6.02
540.276	6.06
540.621	6.01
540.966	6.05
541.311	5.97
541.656	5.81
542.001	5.9
542.346	5.67
542.691	5.5
543.036	5.47
543.381	5.59
543.726	5.77
544.071	5.84
544.415	5.98
544.76	5.91
545.105	5.98
545.449	6
545.794	6.07
546.138	6.12
546.483	6.07
546.827	6.05
547.171	6.03
547.516	6.06
547.86	6.01
548.204	5.99
548.548	5.91
548.892	5.96
549.236	6.18
549.58	6.17
549.924	6.3
550.268	6.44
550.612	6.27
550.956	6.38
551.3	6.22
551.643	6.28
551.987	6.43
552.33	6.42
552.674	6.2
553.017	6.42
553.361	6.4
553.704	6.14
554.048	6.27
554.391	6.31
554.734	6.28
555.077	6.33
555.42	6.23
555.764	6.39
556.107	6.39
556.45	6.65
556.793	6.37
557.135	6.58
557.478	6.65
557.821	6.57
558.164	6.44
558.507	6.53
558.849	6.68
559.192	6.56
559.534	6.69
559.877	6.81
560.219	6.48
560.562	6.72
560.904	6.7
561.246	6.55
561.589	6.68
561.931	6.65
562.273	6.62
562.615	6.58
562.957	6.51
563.299	6.76
563.641	6.72
563.983	6.7
564.325	6.73
564.667	6.9
565.008	6.87
565.35	6.96
565.692	6.8
566.033	6.79
566.375	6.93
566.716	6.77
567.058	6.72
567.399	6.65
567.741	6.59
568.082	6.63
568.423	6.56
568.764	6.74
569.105	6.95
569.447	6.81
569.788	7
570.129	6.88
570.47	7
570.811	6.97
571.151	7.14
571.492	7.12
571.833	6.96
572.174	7.06
572.514	7.13
572.855	6.92
573.195	6.94
573.536	6.99
573.876	6.87
574.217	7.03
574.557	7.14
574.898	7.14
575.238	7.15
575.578	7.15
575.918	6.99
576.258	7.12
576.598	7.17
576.938	7.18
577.278	7.19
577.618	7.17
577.958	7.39
578.298	7.3
578.638	7.21
578.977	7.32
579.317	7.32
579.657	7.63
579.996	7.17
580.336	7.39
580.675	7.19
581.014	7.47
581.354	7.51
581.693	7.42
582.032	7.49
582.372	7.57
582.711	7.5
583.05	7.4
583.389	7.58
583.728	7.68
584.067	7.59
584.406	7.57
584.745	7.64
585.083	7.57
585.422	7.51
585.761	7.69
586.1	7.63
586.438	7.59
586.777	7.5
587.115	7.49
587.454	7.72
587.792	7.84
588.13	7.63
588.469	7.58
588.807	7.77
589.145	7.73
589.483	7.86
589.821	7.87
590.159	7.74
590.497	7.82
590.835	7.53
591.173	7.82
591.511	7.82
591.849	7.53
592.187	7.93
592.524	8.23
592.862	8.11
593.2	8.03
593.537	8.04
593.875	8.04
594.212	8.06
594.55	7.83
594.887	7.94
595.224	7.95
595.561	7.86
595.899	7.89
596.236	7.76
596.573	7.98
596.91	8.05
597.247	8.33
597.584	8.09
597.921	7.81
598.258	7.89
598.594	7.77
598.931	7.74
599.268	8.06
599.604	8.13
599.941	8.31
600.277	8.22
600.614	8.12
600.95	8.28
601.287	8.29
601.623	8.06
601.959	8.13
602.296	8.4
602.632	8.49
602.968	8.09
603.304	8.3
603.64	8.26
603.976	8.27
604.312	8.71
604.648	8.37
604.984	8.28
605.319	8.22
605.655	8.38
605.991	8.29
606.326	8.13
606.662	8.28
606.998	8.41
607.333	8.41
607.668	8.51
608.004	8.72
608.339	8.49
608.674	8.76
609.01	8.74
609.345	8.6
609.68	8.68
610.015	8.95
610.35	8.42
610.685	8.34
611.02	8.41
611.355	8.46
611.689	8.54
612.024	8.6
612.359	8.78
612.694	8.69
613.028	8.66
613.363	9.16
613.697	8.94
614.032	8.67
614.366	8.8
614.7	8.99
615.035	9.03
615.369	9.06
615.703	9.05
616.037	8.78
616.371	9.21
616.705	8.9
617.039	9.02
617.373	8.88
617.707	9.25
618.041	8.82
618.375	9.05
618.709	8.96
619.042	9.23
619.376	9.23
619.71	9.09
620.043	8.84
620.377	9.04
620.71	8.97
621.043	9.08
621.377	8.97
621.71	9.31
622.043	9.2
622.376	9.1
622.709	9.14
623.043	8.95
623.376	9.63
623.709	9.22
624.041	9.63
624.374	9.2
624.707	9.36
625.04	9.78
625.373	9.33
625.705	9.54
626.038	9.04
626.37	9.35
626.703	9.26
627.035	9.67
627.368	9.32
627.7	9.53
628.032	9.16
628.365	9.3
628.697	9.38
629.029	9.45
629.361	9.43
629.693	9.47
630.025	9.53
630.357	9.63
630.689	9.66
631.021	9.55
631.353	9.76
631.684	9.58
632.016	9.55
632.348	9.65
632.679	9.97
633.011	9.72
633.342	9.65
633.674	9.95
634.005	9.71
634.336	10.05
634.668	10.01
634.999	9.74
635.33	10.03
635.661	9.67
635.992	9.78
636.323	10.02
636.654	9.98
636.985	10.09
637.316	10.06
637.647	9.92
637.977	9.82
638.308	9.65
638.639	9.64
638.969	10.07
639.3	10.1
639.63	9.83
639.961	10.18
640.291	10.05
640.622	10.2
640.952	10.14
641.282	9.92
641.612	10.4
641.943	10.12
642.273	10.12
642.603	10.33
642.933	10.24
643.263	9.89
643.592	10.2
643.922	10.26
644.252	10.75
644.582	10.32
644.911	9.91
645.241	9.88
645.571	10.56
645.9	10.29
646.23	10.41
646.559	10.11
646.888	10.31
647.218	10.35
647.547	10.65
647.876	10.17
648.205	10.46
648.534	10.32
648.863	10.78
649.192	10.66
649.521	10.26
649.85	10.42
650.179	10.13
650.508	10.69
650.837	10.79
651.165	10.49
651.494	10.43
651.822	10.53
652.151	10.29
652.479	10.55
652.808	10.82
653.136	10.63
653.465	10.5
653.793	10.64
654.121	10.43
654.449	10.26
654.777	10.49
655.105	10.86
655.433	10.48
655.761	10.84
656.089	10.84
656.417	10.88
656.745	10.61
657.073	10.21
657.4	10.95
657.728	10.51
658.056	11.14
658.383	10.81
658.711	10.89
659.038	10.91
659.365	10.98
659.693	11.18
660.02	11.1
660.347	10.99
660.674	10.51
661.001	10.97
661.329	10.7
661.656	11.07
661.982	10.76
662.309	10.85
662.636	11.07
662.963	11.47
663.29	11.52
663.616	11.04
663.943	10.93
664.27	11.14
664.596	10.76
664.923	11.52
665.249	11.22
665.576	11.6
665.902	11.12
666.228	11.68
666.554	10.94
666.881	11.15
667.207	10.85
667.533	11.65
667.859	11.59
668.185	11.24
668.511	10.97
668.837	11.37
669.162	11.11
669.488	11.19
669.814	11.46
670.139	10.83
670.465	11.13
670.791	11.53
671.116	11.07
671.442	11.97
671.767	10.95
672.092	11.58
672.418	12
672.743	11.57
673.068	11.1
673.393	11.51
673.718	11.74
674.043	11.8
674.368	11.79
674.693	11.74
675.018	12.01
675.343	11.87
675.667	11.61
675.992	12
676.317	12.05
676.641	11.52
676.966	12.41
677.29	11.53
677.615	12.05
677.939	11.25
678.264	11.59
678.588	11.65
678.912	11.81
679.236	11.42
679.56	11.65
679.885	12.02
680.209	11.87
680.532	11.63
680.856	12.24
681.18	12.06
681.504	11.79
681.828	12.46
682.152	11.79
682.475	11.53
682.799	11.89
683.122	12.06
683.446	12.37
683.769	12.36
684.093	12.81
684.416	12.21
684.739	12.33
685.062	11.64
685.386	11.9
685.709	12.76
686.032	11.77
686.355	12.74
686.678	11.99
687.001	11.9
687.324	12.56
687.646	12.15
687.969	12.37
688.292	12.02
688.614	12.17
688.937	12.19
689.26	12.25
689.582	12.44
689.904	12.61
690.227	12.53
690.549	11.92
690.871	12.98
691.194	12.18
691.516	12.44
691.838	12.7
692.16	12.38
692.482	12.87
692.804	12.47
693.126	13.02
693.448	12.01
693.769	13.27
694.091	12.52
694.413	11.88
694.735	12.73
695.056	12.86
695.378	12.81
695.699	12.77
696.021	13.11
696.342	13.18
696.663	12.59
696.984	13.76
697.306	12.95
697.627	12.26
697.948	12.21
698.269	12.68
698.59	12.5
698.911	12.52
699.232	12.67
699.553	12.42
699.873	12.34
700.194	13
700.515	12.01
700.835	12.37
701.156	12.28
701.477	13.23
701.797	13.06
702.117	13.6
702.438	12.6
702.758	12.64
703.078	12.55
703.398	13.42
703.719	13.53
704.039	13.17
704.359	13.37
704.679	13.28
704.999	12.8
705.319	13.13
705.638	13.62
705.958	12.8
706.278	13.15
706.597	13.48
706.917	12.61
707.237	12.65
707.556	13.53
707.876	13.07
708.195	13.22
708.514	13
708.834	11.54
709.153	13.12
709.472	12.28
709.791	13.29
710.11	13.95
710.429	13.48
710.748	12.97
711.067	12.87
711.386	13.44
711.705	12.86
712.023	13.59
712.342	13.48
712.661	13.33
712.979	12.68
713.298	13.41
713.616	13.78
713.935	13.88
714.253	13.94
714.572	13.68
714.89	13.4
715.208	13.35
715.526	13.06
715.844	13.59
716.162	13.64
716.48	14.09
716.798	13.06
717.116	14.12
717.434	12.28
717.752	14.21
718.069	13.99
718.387	13.18
718.705	13.35
719.022	13.42
719.34	13
719.657	13.6
719.975	14.18
720.292	14.1
720.609	14.17
720.927	14.03
721.244	14.43
721.561	14.63
721.878	13.6
722.195	14.85
722.512	14.24
722.829	13.93
723.146	14.49
723.463	14.08
723.779	13.65
724.096	15.08
724.413	14.42
724.729	14.25
725.046	14.18
725.362	14.57
725.679	13.63
725.995	13.84
726.311	13.68
726.628	13.77
726.944	14.58
727.26	14.45
727.576	14.59
727.892	13.27
728.208	12.7
728.524	13.84
728.84	14.19
729.156	13.17
729.472	14.44
729.787	15.65
730.103	14.15
730.419	15.07
730.734	14.57
731.05	14.12
731.365	14.09
731.681	14.96
731.996	14.79
732.311	15.77
732.626	13.8
732.942	13.81
733.257	15.31
733.572	14.96
733.887	15.12
734.202	14.02
734.517	14.7
734.832	15.2
735.146	14.48
735.461	14.94
735.776	14.4
736.091	14.71
736.405	14.18
736.72	15.67
737.034	14.14
737.349	15.45
737.663	15.05
737.977	15.42
738.292	15.08
738.606	15.28
738.92	14.7
739.234	13.57
739.548	13.59
739.862	13.52
740.176	14.6
740.49	15.26
740.804	15.77
741.117	15.36
741.431	14.8
741.745	15.03
742.058	14.39
742.372	13.75
742.685	15.14
742.999	14.39
743.312	15.08
743.626	12.9
743.939	14.64
744.252	16.97
744.565	13.88
744.878	15.18
745.191	14.25
745.505	16.77
745.817	14.01
746.13	16.78
746.443	15.25
746.756	16.63
747.069	13.97
747.381	14.94
747.694	15.92
748.007	16.25
748.319	15.16
748.632	13.35
748.944	16.65
749.256	15.74
749.569	15.9
749.881	15.34
750.193	13.09
750.505	15.04
750.817	14.59
751.129	14.61
751.441	14.86
751.753	16.79
752.065	15.21
752.377	14.98
752.689	15.87
753	16.63
753.312	13.55
753.624	15.6
753.935	16.77
754.247	15.13
754.558	16.43
754.869	14.34
755.181	16.2
755.492	15.97
755.803	14.48
756.114	17.07
756.425	16.16
756.736	15.51
757.047	16.55
757.358	16.82
757.669	13.75
757.98	14.49
758.291	15.36
758.601	16.89
758.912	16.7
759.223	17.16
759.533	15.36
759.844	16.77
760.154	16.73
760.464	14.29
760.775	16.27
761.085	14.9
761.395	15.9
761.705	15.91
762.016	15.83
762.326	16.15
762.636	15.13
762.945	16.91
763.255	15.73
763.565	16.2
763.875	16.83
764.185	15.92
764.494	15.45
764.804	15.32
765.113	16.57
765.423	16.66
765.732	16.3
766.042	16.26
766.351	16.21
766.66	15.93
766.97	15.51
767.279	15.69
767.588	17.48
767.897	16.8
768.206	15.98
768.515	15.88
768.824	16.74
769.133	17.27
769.441	16.01
769.75	17.31
770.059	17.02
770.367	17.22
770.676	17.44
770.984	17.53
771.293	16.56
771.601	18.89
771.91	15.77
772.218	15.13
772.526	15.02
772.834	18.1
773.142	17.48
773.45	16.47
773.758	17.84
774.066	15.34
774.374	15.54
774.682	18.04
774.99	15.31
775.298	16.58
775.605	15.15
775.913	15.67
776.22	14.35
776.528	15.95
776.835	17.34
777.143	17.5
777.45	18.73
777.757	16.18
778.065	15.73
778.372	15.13
778.679	20.55
778.986	19
779.293	15.97
779.6	17.33
779.907	16.75
780.214	17.81
780.52	15.01
780.827	17.67
781.134	14.69
781.44	15.3
781.747	19.08
782.053	18.07
782.36	17.34
782.666	13.36
782.973	20.54
783.279	15.95
783.585	17.85
783.891	17.47
784.197	16.07
784.503	20.05
784.809	14.72
785.115	19.4
785.421	18.77
785.727	17.75
786.033	18.71
786.339	13.54
786.644	16.78
786.95	18.43
787.255	12.39
787.561	17.63
787.866	15.85
788.172	19.17
788.477	17.69
788.782	15.17
789.088	17.08
789.393	19.6
789.698	18.02
790.003	18.48
790.308	16.28
790.613	14.95
790.918	17.63
791.223	18.25
791.527	19.62
791.832	19.05
792.137	17.61
792.441	17.64
792.746	20.72
793.05	15.83
793.355	18.37
793.659	17.73
793.963	16.28
794.268	21.5
794.572	15.95
794.876	19.25
795.18	17.85
795.484	21.39
795.788	18.25
796.092	17.43
796.396	13.63
796.7	17.24
797.004	19.48
797.307	14.98
797.611	18.8
797.915	21.38
798.218	17.15
798.522	21.62
798.825	18.24
799.128	20.08
799.432	18.74
799.735	17.89
800.038	19.45
800.341	18.31
800.644	15.24
800.947	18.34
801.25	21.4
801.553	17.04
801.856	20.16
802.159	14.97
802.462	17.99
802.764	16.87
803.067	19.94
803.37	19.99
803.672	20.35
803.975	17.65
804.277	14.85
804.579	22.39
804.882	16.79
805.184	18.72
805.486	20.85
805.788	19.24
806.09	22.72
806.392	22.02
806.694	19.19
806.996	15.78
807.298	22.21
807.6	20.92
807.902	19.35
808.203	17.87
808.505	16.63
808.807	18.68
809.108	17.23
809.409	21.66
809.711	19.44
810.012	18.1
810.313	14.61
810.615	18.62
810.916	18.72
811.217	18.8
811.518	18.5
811.819	21.88
812.12	19.83
812.421	17.41
812.722	21.09
813.023	18.29
813.323	19.37
813.624	26.15
813.925	20.59
814.225	18.73
814.526	18.66
814.826	17.21
815.126	20.14
815.427	15.23
815.727	25.92
816.027	12.45
816.327	18.04
816.627	20.92
816.927	20.53
817.227	16.35
817.527	23.77
817.827	22.33
818.127	28.27
818.427	24.23
818.727	20.17
819.026	20.09
819.326	20.21
819.625	17.48
819.925	22.78
820.224	16.82
820.524	19.37
820.823	16.91
821.122	20.72
821.421	15.8
821.72	18.69
822.019	16.55
822.318	19.49
822.617	20.9
822.916	20.05
823.215	18.93
823.514	18.46
823.813	16.51
824.111	19.15
824.41	18.46
824.709	18.77
825.007	19.17
825.306	19.2
825.604	19.05
825.902	19.46
826.201	20.42
826.499	21.22
826.797	21.04
827.095	19.85
827.393	21.08
827.691	21.6
827.989	21.36
828.287	20.82
828.585	21.81
828.882	20.25
829.18	22.07
829.478	19.73
829.775	19.66
830.073	20.89
830.37	21.31
830.668	22.31
830.965	19.98
831.263	19.95
831.56	21.46
831.857	24.39
832.154	21
832.451	25.04
832.748	20.61
833.045	20.65
833.342	23.18
833.639	21.06
833.936	25.09
834.232	21.29
834.529	22.11
834.826	22.25
835.122	22.13
835.419	18.53
835.715	18.28
836.012	18.45
836.308	17.48
836.604	19.83
836.901	18.91
837.197	18.54
837.493	21.09
837.789	19.41
838.085	17.44
838.381	17.8
838.677	22.63
838.972	23.84
839.268	22.2
839.564	21.73
839.86	18.56
840.155	20.73
840.451	25.13
840.746	24.4
841.042	25.66
841.337	20.17
841.632	21.94
841.928	19.54
842.223	23.68
842.518	26.79
842.813	22.38
843.108	19.54
843.403	24.58
843.698	23.45
843.993	22.55
844.287	27.69
844.582	21.68
844.877	17.03
845.171	14.55
845.466	26.95
845.761	23.96
846.055	27.82
846.349	17.86
846.644	24.3
846.938	15.46
847.232	34.64
847.526	15.83
847.82	25.87
848.114	21.16
848.408	14.76
848.702	33.06
848.996	27.57
849.29	14.86
849.584	19.37
849.877	22.01
850.171	27.54
850.465	22.83
850.758	5.26
851.052	23.64
851.345	26.22
851.638	37.76
851.932	21.1
852.225	9.79
852.518	18.85
852.811	1.16
853.104	9.45
853.397	19.04
853.69	28.71
853.983	4.55
854.276	22.69
854.569	25.84
854.861	40.36
855.154	37.41
855.447	40.74
855.739	27.96
856.032	36.68
856.324	36.05
856.616	14.74
856.909	36.3
857.201	15.82
857.493	26.4
857.785	35.27
858.077	37.4
858.369	22.69
858.661	43.11
858.953	-2.38
859.245	14.43
859.537	25.33
859.829	-14.99
860.12	18.88
860.412	18.13
860.703	17.28
860.995	27.35
861.286	21.06
861.578	44.89
861.869	33.55
862.16	4.52
862.452	28.25
862.743	19.81
863.034	13.29
863.325	22.48
863.616	27.83
863.907	38.06
864.198	26.02
864.488	18.32
864.779	23.34
865.07	20.63
865.36	23.77
865.651	31.38
865.941	47.95
866.232	25.26
866.522	42.64
866.813	33.75
867.103	25.98
867.393	23.15
867.683	27.67
867.973	35.74
868.263	15.26
868.553	-14.61
868.843	18.02
869.133	15.65
869.423	3.54
869.713	12.42
870.002	18.05
870.292	36.68
870.582	37.12
870.871	32.96
871.161	15.78
871.45	27.33
871.739	47.06
872.029	43.7
872.318	28.41
872.607	5.74
872.896	50.52
873.185	38.73
873.474	30.92
873.763	33.45
874.052	40.4
874.341	25.41
874.63	42.38
874.918	37.98
875.207	43.79
875.496	-1.93
875.784	16.35
876.073	14.12
876.361	30.2
876.649	20.06
876.938	13.75
877.226	21.56
877.514	26.93
877.802	9.96
878.09	44.64
878.378	41.76
878.666	32.4
878.954	17.49
879.242	22.96
879.53	33.43
879.817	35.37
880.105	11.41
880.392	20.58
880.68	15.73
880.967	34.09
881.255	33.82
881.542	24.09
881.83	37.47
882.117	23.67
882.404	16.27
882.691	17.04
882.978	5.3
883.265	8.13
883.552	18.85
883.839	23.52
884.126	30.31
884.413	22.28
884.699	26.5
884.986	30.28
885.273	25.58
885.559	25.58
885.846	25.58
