Data from 0040_crown_Reflection__0__65.txt Node

Date: Fri Nov 04 15:18:08 CDT 2022
User: ToomeyLab
Spectrometer: FLMS14357
Trigger mode: 0
Integration Time (sec): 1.000000E-2
Scans to average: 100
Electric dark correction enabled: true
Nonlinearity correction enabled: false
Boxcar width: 0
XAxis mode: Wavelengths
Number of Pixels in Spectrum: 2048
>>>>>Begin Spectral Data<<<<<
189.047	159
189.435	159
189.823	159
190.211	-49.05
190.599	-61.61
190.987	-191.84
191.375	642.43
191.763	95.44
192.151	-1.39
192.538	4.44
192.926	-1137.28
193.314	-32.95
193.702	88.2
194.089	-37.97
194.477	275.09
194.864	3183.98
195.252	92.8
195.639	-63.48
196.027	1700.91
196.414	-34.26
196.801	107.09
197.189	1.19
197.576	145.76
197.963	-316.58
198.351	-12.95
198.738	11.77
199.125	21.78
199.512	-72.64
199.899	-4.92
200.286	-31.82
200.673	-33.85
201.06	-51.56
201.447	-69.04
201.833	3.02
202.22	20.13
202.607	45.08
202.994	41.26
203.38	23.3
203.767	17.33
204.154	32.41
204.54	-12.95
204.927	22.15
205.313	5.3
205.699	-4.56
206.086	0.8
206.472	-23.31
206.858	-6.71
207.245	2.98
207.631	12.34
208.017	16.6
208.403	35.86
208.789	20.39
209.175	0.09
209.561	-102.26
209.947	-47.17
210.333	23.3
210.719	-12.34
211.105	-83.52
211.491	22.76
211.876	27.09
212.262	-0.96
212.648	-12.13
213.034	31.89
213.419	18.8
213.805	4.3
214.19	-12.08
214.576	-19.51
214.961	20.2
215.346	-10.24
215.732	13.27
216.117	-18.33
216.502	21.64
216.888	-20.72
217.273	-7.06
217.658	17.67
218.043	-19.49
218.428	21.87
218.813	-9.65
219.198	10.25
219.583	-9.9
219.968	12.41
220.353	16.84
220.738	-20.87
221.122	4.62
221.507	3.3
221.892	-26.23
222.276	-6.91
222.661	20.61
223.046	-5.11
223.43	-3.71
223.815	6.54
224.199	13.97
224.583	10.07
224.968	-4.15
225.352	13.6
225.736	0.06
226.121	-2.48
226.505	8.16
226.889	11.25
227.273	11.39
227.657	5.95
228.041	8.68
228.425	9.76
228.809	9.79
229.193	9.7
229.577	4.32
229.961	9.87
230.344	8.93
230.728	8.7
231.112	8.59
231.495	9.07
231.879	8.77
232.263	8.2
232.646	8.56
233.03	7.22
233.413	6.99
233.797	8.15
234.18	6.32
234.563	9.06
234.946	8.24
235.33	8.8
235.713	8.34
236.096	8.27
236.479	7.55
236.862	6.24
237.245	8
237.628	8.7
238.011	5.2
238.394	11.2
238.777	7.58
239.16	7.68
239.543	7.37
239.925	8.56
240.308	9.95
240.691	8.21
241.073	9.32
241.456	9.19
241.838	8.05
242.221	8.97
242.603	7.92
242.986	7.82
243.368	8.12
243.75	7.95
244.133	8.1
244.515	8.17
244.897	7.88
245.279	8.46
245.661	8.71
246.043	8.95
246.425	6.76
246.807	8.59
247.189	7.53
247.571	8.24
247.953	7.79
248.335	7.43
248.717	7.79
249.098	7.7
249.48	7.61
249.862	8.04
250.243	7.51
250.625	7.51
251.006	7.79
251.388	7.23
251.769	7.9
252.151	7.44
252.532	7.51
252.913	6.77
253.295	7.92
253.676	7.17
254.057	7.23
254.438	7.26
254.819	7.12
255.2	6.48
255.581	7.63
255.962	7.66
256.343	7.2
256.724	7.55
257.105	7.04
257.486	7.41
257.867	8.56
258.247	6.91
258.628	6.58
259.009	6.49
259.389	7.33
259.77	7.22
260.15	6.96
260.531	6.69
260.911	6.62
261.292	7.01
261.672	6.76
262.052	7.01
262.432	7.06
262.813	6.5
263.193	6.19
263.573	6.67
263.953	6.32
264.333	7.11
264.713	7.03
265.093	6.85
265.473	6.97
265.853	6.16
266.233	6.83
266.612	7.25
266.992	7.15
267.372	6.02
267.752	6.55
268.131	6.96
268.511	7.33
268.89	7.42
269.27	6.55
269.649	6.87
270.029	6.43
270.408	6.38
270.787	6.72
271.167	6.85
271.546	6.99
271.925	6.34
272.304	5.93
272.683	6.46
273.062	6.38
273.441	6.7
273.82	6.36
274.199	6.39
274.578	6.23
274.957	6.55
275.336	5.83
275.715	6.16
276.093	6.61
276.472	6.01
276.851	5.89
277.229	6
277.608	5.75
277.986	6.34
278.365	6.44
278.743	6.36
279.122	6.11
279.5	5.8
279.878	6.23
280.257	5.84
280.635	5.64
281.013	5.95
281.391	6.05
281.769	5.99
282.147	6.36
282.525	5.91
282.903	6.11
283.281	6.24
283.659	6.01
284.037	5.76
284.415	5.63
284.792	6.24
285.17	5.86
285.548	6.2
285.925	5.82
286.303	6.01
286.68	6.36
287.058	5.78
287.435	5.83
287.813	5.51
288.19	5.8
288.567	5.65
288.945	6.17
289.322	5.71
289.699	5.62
290.076	5.69
290.453	5.42
290.83	5.65
291.207	5.71
291.584	5.74
291.961	5.81
292.338	6.08
292.715	5.53
293.092	5.51
293.469	5.52
293.845	5.76
294.222	5.42
294.599	5.02
294.975	5.3
295.352	5.69
295.728	5.97
296.105	5.74
296.481	4.97
296.858	5.64
297.234	5.9
297.61	5.61
297.986	5.34
298.363	5.09
298.739	5.35
299.115	5.34
299.491	5.23
299.867	5.24
300.243	5.5
300.619	5.82
300.995	5.6
301.371	5.23
301.746	5.43
302.122	5.28
302.498	5.04
302.874	5.5
303.249	4.99
303.625	5.19
304	5.33
304.376	4.58
304.751	4.62
305.127	4.62
305.502	5.23
305.878	5.37
306.253	5.43
306.628	4.97
307.003	5.03
307.378	5.31
307.754	5.05
308.129	4.58
308.504	5.04
308.879	5.14
309.254	5.15
309.629	4.99
310.003	5.32
310.378	5.55
310.753	4.82
311.128	4.59
311.502	4.48
311.877	4.92
312.252	4.49
312.626	4.84
313.001	5.04
313.375	4.83
313.75	4.64
314.124	4.56
314.498	4.9
314.873	5.49
315.247	4.47
315.621	5.38
315.995	5
316.369	4.82
316.743	5.07
317.117	4.93
317.491	4.85
317.865	4.68
318.239	4.05
318.613	4.92
318.987	4.9
319.361	5.05
319.734	4.86
320.108	4.9
320.482	3.85
320.855	4.37
321.229	4.61
321.602	4.55
321.976	4.73
322.349	5.32
322.723	4.96
323.096	5.28
323.469	4.34
323.843	4.32
324.216	4.78
324.589	4.42
324.962	4.57
325.335	4.95
325.708	4.45
326.081	4.8
326.454	4.59
326.827	4.4
327.2	4.16
327.573	4.62
327.945	4.77
328.318	4.29
328.691	4.39
329.063	3.97
329.436	4.59
329.809	4.8
330.181	4.46
330.553	4.7
330.926	4.31
331.298	4.32
331.671	4.18
332.043	4.93
332.415	4.71
332.787	4.63
333.159	4.28
333.532	4.24
333.904	4.91
334.276	5.24
334.648	4.86
335.02	4.21
335.391	5.01
335.763	4.59
336.135	4.56
336.507	4.71
336.879	4.7
337.25	5.2
337.622	4.76
337.993	4.74
338.365	4.7
338.736	5.01
339.108	4.8
339.479	4.64
339.851	4.53
340.222	4.53
340.593	4.87
340.964	5.13
341.336	4.8
341.707	4.54
342.078	4.56
342.449	4.56
342.82	4.9
343.191	4.68
343.562	4.76
343.933	4.54
344.303	4.92
344.674	4.8
345.045	4.3
345.416	4.5
345.786	5.1
346.157	4.92
346.527	4.62
346.898	4.9
347.268	4.65
347.639	4.65
348.009	5.15
348.38	4.78
348.75	4.91
349.12	4.25
349.49	4.72
349.861	4.38
350.231	5.3
350.601	4.81
350.971	4.37
351.341	4.73
351.711	4.53
352.081	4.92
352.45	5.05
352.82	4.44
353.19	5.07
353.56	4.77
353.929	4.88
354.299	5.22
354.669	5.11
355.038	5.06
355.408	4.55
355.777	4.49
356.147	4.71
356.516	4.91
356.885	4.59
357.254	4.74
357.624	5
357.993	4.86
358.362	4.72
358.731	4.8
359.1	4.76
359.469	4.64
359.838	5.03
360.207	4.73
360.576	4.91
360.945	5.04
361.314	4.84
361.682	5.04
362.051	4.95
362.42	5.28
362.788	4.9
363.157	5.09
363.525	5.1
363.894	4.97
364.262	5.21
364.631	4.96
364.999	4.85
365.367	4.93
365.735	5.47
366.104	5
366.472	5.22
366.84	4.72
367.208	5.09
367.576	4.88
367.944	5.52
368.312	4.96
368.68	5
369.048	4.96
369.416	4.73
369.783	4.81
370.151	4.77
370.519	5.26
370.886	5.1
371.254	5.31
371.621	5.09
371.989	5.19
372.356	5.02
372.724	5.26
373.091	5.08
373.458	5.32
373.826	5.34
374.193	5.22
374.56	5.06
374.927	5.74
375.294	4.93
375.661	5.23
376.028	5.09
376.395	5.41
376.762	5.19
377.129	5.28
377.496	5.41
377.863	5.15
378.229	5.13
378.596	5.26
378.963	5.3
379.329	4.97
379.696	5.29
380.062	5.44
380.429	5.25
380.795	5.22
381.161	5.17
381.528	5.58
381.894	5.17
382.26	5.35
382.626	5.24
382.993	5.45
383.359	5.6
383.725	5.23
384.091	5.07
384.457	5.46
384.823	5.27
385.188	5.24
385.554	5.54
385.92	5.35
386.286	5.32
386.651	5.48
387.017	5.24
387.383	5.6
387.748	5.22
388.114	5.33
388.479	6.27
388.845	5.73
389.21	5.77
389.575	5.67
389.94	5.58
390.306	5.52
390.671	5.49
391.036	5.37
391.401	5.67
391.766	5.18
392.131	5.3
392.496	5.61
392.861	5.63
393.226	5.33
393.591	5.43
393.956	5.67
394.32	5.55
394.685	5.61
395.05	5.6
395.414	5.52
395.779	5.66
396.143	5.61
396.508	5.65
396.872	5.56
397.236	5.8
397.601	5.35
397.965	5.62
398.329	5.67
398.694	5.75
399.058	5.59
399.422	5.44
399.786	5.61
400.15	5.65
400.514	5.54
400.878	5.62
401.242	5.74
401.605	5.65
401.969	5.82
402.333	5.58
402.697	5.74
403.06	5.65
403.424	5.68
403.787	5.44
404.151	5.73
404.514	5.92
404.878	5.93
405.241	5.84
405.604	5.72
405.968	5.68
406.331	5.71
406.694	5.72
407.057	5.75
407.42	5.69
407.783	5.59
408.146	5.71
408.509	5.68
408.872	5.87
409.235	5.7
409.598	5.78
409.961	5.67
410.323	5.79
410.686	5.84
411.049	5.7
411.411	5.83
411.774	5.85
412.136	5.94
412.499	5.75
412.861	5.75
413.223	5.84
413.586	5.7
413.948	5.84
414.31	5.7
414.672	5.94
415.035	5.95
415.397	5.6
415.759	6.08
416.121	5.81
416.483	5.89
416.845	5.93
417.206	5.75
417.568	5.91
417.93	5.69
418.292	5.83
418.653	5.78
419.015	5.7
419.377	5.71
419.738	5.79
420.1	5.91
420.461	5.71
420.822	5.8
421.184	5.82
421.545	5.7
421.906	5.8
422.267	5.78
422.629	5.79
422.99	5.69
423.351	5.67
423.712	5.65
424.073	5.82
424.434	5.76
424.795	5.79
425.155	5.82
425.516	5.79
425.877	5.73
426.238	5.74
426.598	5.68
426.959	5.69
427.32	5.81
427.68	5.83
428.041	5.77
428.401	6.01
428.761	5.81
429.122	5.84
429.482	5.92
429.842	5.53
430.202	6.07
430.563	5.96
430.923	6.02
431.283	5.76
431.643	6.01
432.003	6.18
432.363	6.01
432.722	6
433.082	6.15
433.442	5.9
433.802	6.04
434.161	6.01
434.521	5.84
434.881	5.98
435.24	5.94
435.6	6
435.959	5.93
436.319	5.93
436.678	5.81
437.037	5.95
437.396	6.07
437.756	6.03
438.115	5.89
438.474	5.94
438.833	6.12
439.192	5.96
439.551	5.92
439.91	6.1
440.269	5.96
440.628	6
440.987	6.04
441.345	6.04
441.704	5.95
442.063	5.98
442.421	5.92
442.78	6.07
443.138	5.97
443.497	5.9
443.855	5.95
444.214	6.11
444.572	5.96
444.93	6.06
445.288	6.03
445.647	5.97
446.005	6.06
446.363	5.93
446.721	5.88
447.079	6
447.437	5.99
447.795	5.98
448.153	5.87
448.51	5.99
448.868	5.94
449.226	5.9
449.584	5.99
449.941	5.89
450.299	5.96
450.656	5.96
451.014	6.1
451.371	6.04
451.729	6.13
452.086	6.02
452.443	5.94
452.801	6
453.158	6.07
453.515	6.19
453.872	5.97
454.229	6.23
454.586	6.09
454.943	6.21
455.3	6.07
455.657	6.01
456.014	6.06
456.371	5.95
456.727	6.32
457.084	6.15
457.441	6
457.797	6.14
458.154	6.09
458.51	6
458.867	6.08
459.223	6.13
459.58	6.2
459.936	6.01
460.292	6
460.648	6.04
461.005	5.97
461.361	6.09
461.717	5.95
462.073	5.98
462.429	6.06
462.785	6.06
463.141	5.96
463.496	5.95
463.852	6.13
464.208	5.98
464.564	5.94
464.919	6.4
465.275	6.11
465.631	6.23
465.986	6.1
466.342	6.09
466.697	6.16
467.052	6.16
467.408	6.2
467.763	6.08
468.118	6.34
468.473	6.3
468.829	5.9
469.184	6.13
469.539	6.05
469.894	6.1
470.249	6.02
470.603	6.13
470.958	6.16
471.313	6.11
471.668	5.94
472.023	5.9
472.377	6.24
472.732	6.08
473.086	6.17
473.441	6.11
473.795	6.14
474.15	6.25
474.504	6.01
474.859	6.03
475.213	6.23
475.567	5.96
475.921	6.03
476.275	6.07
476.63	6.09
476.984	6.16
477.338	6.05
477.692	6.31
478.045	6.22
478.399	6.06
478.753	6.16
479.107	6.15
479.461	6.27
479.814	6.15
480.168	6.18
480.521	5.99
480.875	6.15
481.228	6.19
481.582	6.16
481.935	6.14
482.289	6.02
482.642	6.22
482.995	6.12
483.348	6.02
483.701	6.12
484.055	5.97
484.408	6.09
484.761	5.96
485.114	5.82
485.466	5.79
485.819	5.74
486.172	5.79
486.525	5.81
486.878	5.81
487.23	5.82
487.583	5.81
487.936	5.94
488.288	5.9
488.641	5.89
488.993	5.85
489.345	5.87
489.698	5.86
490.05	5.89
490.402	5.83
490.754	5.9
491.107	5.96
491.459	5.97
491.811	5.97
492.163	6
492.515	6.07
492.866	6.04
493.218	5.9
493.57	5.82
493.922	5.88
494.274	5.88
494.625	5.93
494.977	5.94
495.328	5.91
495.68	5.95
496.031	5.97
496.383	6.14
496.734	6.05
497.086	6.24
497.437	6.12
497.788	6.01
498.139	6.06
498.49	6.08
498.842	6.11
499.193	5.96
499.544	6.1
499.894	6.03
500.245	6.04
500.596	6
500.947	6.03
501.298	6.04
501.648	6.11
501.999	6.13
502.35	6.11
502.7	6.08
503.051	6.17
503.401	6.11
503.752	6.2
504.102	6.07
504.452	6.18
504.803	6.12
505.153	6.19
505.503	6.08
505.853	6.22
506.203	6.17
506.553	6.1
506.903	6.22
507.253	6.23
507.603	6.06
507.953	6.11
508.303	6.19
508.652	6.08
509.002	6.19
509.352	6.15
509.701	6.14
510.051	6.05
510.4	6.08
510.75	6.01
511.099	6.15
511.449	6.04
511.798	6.05
512.147	6.1
512.496	6.03
512.846	5.9
513.195	6.09
513.544	5.96
513.893	6.09
514.242	5.98
514.591	6.02
514.939	6.17
515.288	6.12
515.637	6.14
515.986	6.14
516.334	6.19
516.683	6.09
517.032	6.11
517.38	6.05
517.729	6.13
518.077	6.13
518.426	6.03
518.774	6.11
519.122	6.11
519.47	6.04
519.819	6.06
520.167	6.09
520.515	6.02
520.863	5.97
521.211	5.93
521.559	5.98
521.907	6
522.255	6.09
522.602	6.03
522.95	6.01
523.298	6.03
523.645	6.09
523.993	5.99
524.341	6.07
524.688	6.1
525.036	6
525.383	6.22
525.73	6.07
526.078	6.14
526.425	6.18
526.772	6.06
527.119	5.97
527.466	5.98
527.814	5.92
528.161	5.95
528.508	5.92
528.854	5.91
529.201	5.89
529.548	5.92
529.895	5.86
530.242	5.79
530.588	5.79
530.935	5.76
531.282	5.79
531.628	5.67
531.975	5.81
532.321	5.87
532.667	5.91
533.014	5.92
533.36	5.97
533.706	5.97
534.052	5.98
534.399	5.89
534.745	5.87
535.091	5.82
535.437	5.83
535.783	5.83
536.129	5.86
536.474	5.92
536.82	5.84
537.166	5.89
537.512	6.04
537.857	5.88
538.203	5.92
538.549	5.85
538.894	5.99
539.239	6
539.585	5.85
539.93	5.9
540.276	5.89
540.621	5.88
540.966	6.09
541.311	5.83
541.656	6.03
542.001	5.98
542.346	5.82
542.691	5.87
543.036	5.79
543.381	5.81
543.726	5.81
544.071	5.75
544.415	5.79
544.76	5.78
545.105	5.75
545.449	5.85
545.794	5.86
546.138	5.82
546.483	5.93
546.827	5.77
547.171	5.92
547.516	5.93
547.86	5.9
548.204	5.99
548.548	5.88
548.892	5.91
549.236	5.9
549.58	5.93
549.924	5.99
550.268	6.03
550.612	5.75
550.956	6.02
551.3	5.89
551.643	6
551.987	5.89
552.33	6.04
552.674	5.97
553.017	6.1
553.361	6.1
553.704	5.89
554.048	6.05
554.391	5.86
554.734	5.98
555.077	6.01
555.42	5.95
555.764	6.1
556.107	5.92
556.45	6
556.793	6.1
557.135	5.98
557.478	5.86
557.821	6
558.164	6
558.507	5.92
558.849	6.09
559.192	5.97
559.534	5.81
559.877	6
560.219	6.03
560.562	6.07
560.904	6.03
561.246	5.91
561.589	5.95
561.931	5.95
562.273	5.88
562.615	5.59
562.957	5.97
563.299	5.91
563.641	5.98
563.983	6.02
564.325	5.92
564.667	5.81
565.008	5.78
565.35	5.9
565.692	6.04
566.033	5.81
566.375	5.95
566.716	5.88
567.058	5.94
567.399	5.87
567.741	5.91
568.082	5.9
568.423	5.83
568.764	5.87
569.105	5.86
569.447	5.9
569.788	5.81
570.129	5.89
570.47	5.84
570.811	5.71
571.151	5.84
571.492	5.96
571.833	5.86
572.174	5.96
572.514	5.7
572.855	5.67
573.195	5.73
573.536	5.79
573.876	5.82
574.217	5.88
574.557	5.77
574.898	5.8
575.238	5.65
575.578	5.88
575.918	5.89
576.258	5.87
576.598	5.78
576.938	5.93
577.278	5.75
577.618	5.68
577.958	5.73
578.298	5.77
578.638	5.82
578.977	5.85
579.317	5.89
579.657	5.68
579.996	5.77
580.336	5.78
580.675	5.59
581.014	5.67
581.354	5.73
581.693	6.04
582.032	5.8
582.372	6
582.711	5.88
583.05	5.84
583.389	5.61
583.728	5.72
584.067	5.68
584.406	5.77
584.745	6.02
585.083	5.74
585.422	5.81
585.761	5.76
586.1	5.67
586.438	5.58
586.777	5.88
587.115	5.64
587.454	5.81
587.792	6
588.13	5.76
588.469	5.92
588.807	5.73
589.145	5.86
589.483	5.5
589.821	5.87
590.159	5.66
590.497	5.76
590.835	5.67
591.173	5.48
591.511	5.98
591.849	5.84
592.187	5.55
592.524	5.65
592.862	5.58
593.2	5.7
593.537	5.7
593.875	5.77
594.212	5.63
594.55	5.65
594.887	5.76
595.224	5.82
595.561	5.62
595.899	5.71
596.236	5.81
596.573	5.73
596.91	5.65
597.247	5.76
597.584	5.56
597.921	5.85
598.258	5.68
598.594	5.41
598.931	5.58
599.268	5.62
599.604	5.63
599.941	5.59
600.277	5.53
600.614	5.62
600.95	5.71
601.287	5.4
601.623	5.67
601.959	5.75
602.296	5.75
602.632	5.82
602.968	5.48
603.304	5.58
603.64	5.65
603.976	5.21
604.312	5.45
604.648	5.4
604.984	5.66
605.319	5.54
605.655	5.44
605.991	5.58
606.326	5.4
606.662	5.62
606.998	5.45
607.333	5.34
607.668	5.72
608.004	5.41
608.339	5.48
608.674	5.54
609.01	5.5
609.345	5.57
609.68	5.67
610.015	5.62
610.35	5.31
610.685	5.63
611.02	5.48
611.355	5.53
611.689	5.64
612.024	5.45
612.359	5.46
612.694	5.36
613.028	5.57
613.363	5.59
613.697	5.36
614.032	5.63
614.366	5.47
614.7	5.34
615.035	5.78
615.369	5.31
615.703	5.85
616.037	5.43
616.371	5.73
616.705	5.3
617.039	5.7
617.373	5.31
617.707	5.39
618.041	5.27
618.375	5.51
618.709	5.71
619.042	5.83
619.376	5.57
619.71	5.51
620.043	5.54
620.377	5.77
620.71	5.88
621.043	5.21
621.377	5.45
621.71	5.57
622.043	5.47
622.376	5.59
622.709	5.55
623.043	5.51
623.376	5.81
623.709	5.26
624.041	5.34
624.374	5.24
624.707	5.19
625.04	5.87
625.373	5.6
625.705	5.38
626.038	5.36
626.37	5.36
626.703	5.61
627.035	5.43
627.368	5.66
627.7	5.41
628.032	5.3
628.365	5.52
628.697	5.36
629.029	5.25
629.361	5.37
629.693	5.46
630.025	5.59
630.357	5.28
630.689	5.37
631.021	5.21
631.353	5.39
631.684	5.3
632.016	5.68
632.348	5.44
632.679	5.12
633.011	5.56
633.342	5.49
633.674	5.18
634.005	5.45
634.336	5.38
634.668	5.18
634.999	5.54
635.33	5.04
635.661	5.46
635.992	5.14
636.323	5.2
636.654	4.97
636.985	5.08
637.316	5.25
637.647	4.95
637.977	5.34
638.308	5.72
638.639	5.43
638.969	5.11
639.3	5.57
639.63	5.53
639.961	5.41
640.291	5.71
640.622	5.78
640.952	5.19
641.282	5.26
641.612	5.07
641.943	4.98
642.273	4.87
642.603	5.34
642.933	5.2
643.263	5.2
643.592	5.13
643.922	5.82
644.252	5.55
644.582	5.34
644.911	5.66
645.241	4.83
645.571	5.09
645.9	5.2
646.23	5.26
646.559	5.72
646.888	5.32
647.218	5.45
647.547	5.26
647.876	5.57
648.205	4.93
648.534	5.76
648.863	4.98
649.192	5.21
649.521	4.75
649.85	5.45
650.179	5.45
650.508	5.36
650.837	5.18
651.165	5.18
651.494	5.24
651.822	5.06
652.151	5.6
652.479	5
652.808	5.13
653.136	5.13
653.465	5.17
653.793	5.5
654.121	4.94
654.449	5.03
654.777	5.15
655.105	5.38
655.433	5.17
655.761	5.1
656.089	5.03
656.417	4.8
656.745	4.89
657.073	4.92
657.4	4.77
657.728	5.42
658.056	4.82
658.383	5.65
658.711	4.86
659.038	5.26
659.365	5.58
659.693	5.51
660.02	5.45
660.347	4.88
660.674	5.26
661.001	5.43
661.329	5.44
661.656	5.55
661.982	4.82
662.309	5.03
662.636	5.25
662.963	5.09
663.29	5.17
663.616	5.73
663.943	5.48
664.27	5.45
664.596	5.08
664.923	5.09
665.249	5.25
665.576	5.11
665.902	4.28
666.228	4.61
666.554	5.76
666.881	5.19
667.207	5.23
667.533	5.3
667.859	5.42
668.185	5.19
668.511	5.3
668.837	5.12
669.162	6.04
669.488	4.96
669.814	4.87
670.139	5.06
670.465	4.76
670.791	5.19
671.116	4.92
671.442	4.92
671.767	5.23
672.092	5.06
672.418	4.96
672.743	5.71
673.068	5.69
673.393	5.75
673.718	5.12
674.043	4.71
674.368	5.16
674.693	5.1
675.018	5.2
675.343	5.08
675.667	5.2
675.992	5.32
676.317	5.1
676.641	4.87
676.966	5.34
677.29	5.38
677.615	5.06
677.939	4.92
678.264	5.77
678.588	4.86
678.912	5.93
679.236	5.58
679.56	5.5
679.885	4.91
680.209	5.37
680.532	5.22
680.856	4.8
681.18	5.22
681.504	5.51
681.828	4.93
682.152	5.65
682.475	4.96
682.799	5.46
683.122	5.09
683.446	4.9
683.769	5.25
684.093	4.87
684.416	4.75
684.739	5.17
685.062	5.81
685.386	5.55
685.709	5.54
686.032	5.7
686.355	6.48
686.678	4.9
687.001	6.03
687.324	5.4
687.646	5.32
687.969	4.99
688.292	4.97
688.614	5.39
688.937	4.89
689.26	5.5
689.582	5.62
689.904	5.25
690.227	4.54
690.549	5.33
690.871	5.45
691.194	5.07
691.516	4.72
691.838	4.78
692.16	5.82
692.482	4.4
692.804	5.69
693.126	5.6
693.448	5.29
693.769	4.97
694.091	5.61
694.413	4.48
694.735	5.16
695.056	4.93
695.378	6.01
695.699	6.26
696.021	5.76
696.342	5.72
696.663	5.42
696.984	5.2
697.306	4.28
697.627	5.36
697.948	4.38
698.269	5.15
698.59	5.3
698.911	5.52
699.232	5.41
699.553	5.47
699.873	5.11
700.194	5.66
700.515	5.04
700.835	5.18
701.156	4.77
701.477	5.2
701.797	5.52
702.117	5.26
702.438	5.51
702.758	5.27
703.078	5.4
703.398	5.23
703.719	5.54
704.039	4.98
704.359	5.96
704.679	4.6
704.999	5.94
705.319	5.41
705.638	5.58
705.958	5.3
706.278	5.01
706.597	5.66
706.917	5.41
707.237	5.43
707.556	5.92
707.876	4.05
708.195	5.12
708.514	5.36
708.834	6.32
709.153	6.2
709.472	5.65
709.791	5.46
710.11	5.55
710.429	6.85
710.748	5.18
711.067	5.93
711.386	5.75
711.705	3.99
712.023	6.02
712.342	5.33
712.661	4.71
712.979	5.43
713.298	5.85
713.616	4.19
713.935	5.06
714.253	5.54
714.572	4.86
714.89	5.23
715.208	5.79
715.526	5.6
715.844	5.7
716.162	4.58
716.48	5.12
716.798	6.27
717.116	4.97
717.434	4.58
717.752	5.62
718.069	5.16
718.387	4.62
718.705	5.34
719.022	6.24
719.34	5.42
719.657	5.45
719.975	5.48
720.292	6.47
720.609	5.44
720.927	4.6
721.244	5.8
721.561	6.3
721.878	5.29
722.195	4.99
722.512	6.03
722.829	6.1
723.146	4.51
723.463	6.01
723.779	7.07
724.096	5.57
724.413	5.38
724.729	6.07
725.046	4.68
725.362	4.89
725.679	4.86
725.995	6.11
726.311	5.09
726.628	5.84
726.944	6.36
727.26	5.27
727.576	6.47
727.892	7.45
728.208	6.62
728.524	5.31
728.84	4.7
729.156	5.68
729.472	6.06
729.787	5.74
730.103	5.21
730.419	5.47
730.734	5.1
731.05	5.97
731.365	4.76
731.681	4.91
731.996	6.96
732.311	4.83
732.626	5.33
732.942	4.83
733.257	5.92
733.572	5.81
733.887	6
734.202	5.38
734.517	4.83
734.832	8.02
735.146	5.53
735.461	6.09
735.776	4.75
736.091	5.72
736.405	6.6
736.72	4.1
737.034	4.99
737.349	5.38
737.663	5.87
737.977	6.57
738.292	6.49
738.606	6.16
738.92	5.71
739.234	5.42
739.548	5.81
739.862	6.01
740.176	5.16
740.49	6.59
740.804	6.17
741.117	4.56
741.431	5.88
741.745	5.52
742.058	6.27
742.372	3.83
742.685	5.6
742.999	6.15
743.312	6.03
743.626	6.51
743.939	7.72
744.252	5.73
744.565	2.48
744.878	5.25
745.191	5.01
745.505	5.01
745.817	5.12
746.13	4.45
746.443	5.03
746.756	4.28
747.069	5.7
747.381	6.56
747.694	5.52
748.007	6.21
748.319	5.34
748.632	4.96
748.944	6.38
749.256	3.93
749.569	6.86
749.881	4.24
750.193	7.25
750.505	4.7
750.817	7.08
751.129	6.96
751.441	4.66
751.753	5.64
752.065	4.56
752.377	3.96
752.689	5.11
753	5.4
753.312	6.65
753.624	6.12
753.935	7.71
754.247	6.38
754.558	5
754.869	5.74
755.181	7.39
755.492	7.08
755.803	6.1
756.114	6.98
756.425	6.37
756.736	7.64
757.047	5.74
757.358	5.6
757.669	5.41
757.98	5.5
758.291	5.6
758.601	5.85
758.912	4.93
759.223	6.6
759.533	4.94
759.844	4.65
760.154	5.81
760.464	4.73
760.775	5.89
761.085	4.36
761.395	5.04
761.705	5.58
762.016	7.91
762.326	5.81
762.636	6
762.945	5.86
763.255	4.73
763.565	7.05
763.875	5.95
764.185	5.59
764.494	5.85
764.804	8.13
765.113	7.77
765.423	6.21
765.732	7.15
766.042	5.89
766.351	5.94
766.66	5.79
766.97	6.03
767.279	5.41
767.588	5.25
767.897	5.34
768.206	7.48
768.515	5.52
768.824	4.83
769.133	7.25
769.441	5.37
769.75	6.33
770.059	4.88
770.367	4.42
770.676	6.7
770.984	7.21
771.293	7.42
771.601	6.09
771.91	8.43
772.218	5.94
772.526	6.62
772.834	7.93
773.142	7.04
773.45	6.14
773.758	5.46
774.066	2.58
774.374	6.42
774.682	5.92
774.99	5.53
775.298	3.14
775.605	6.72
775.913	3.24
776.22	6.28
776.528	10
776.835	7.92
777.143	2.49
777.45	6
777.757	4.06
778.065	4.48
778.372	6.57
778.679	7.93
778.986	4.34
779.293	5.42
779.6	6.4
779.907	4.63
780.214	7.61
780.52	7.13
780.827	5.01
781.134	5.71
781.44	2.95
781.747	6.39
782.053	8.22
782.36	5.41
782.666	2.77
782.973	3.68
783.279	6.07
783.585	4.46
783.891	5.54
784.197	4.18
784.503	3.18
784.809	8.73
785.115	7.95
785.421	2.79
785.727	6.15
786.033	4.28
786.339	6.16
786.644	6.27
786.95	2.67
787.255	5.47
787.561	6.14
787.866	7.98
788.172	7.52
788.477	7.12
788.782	7.55
789.088	8.39
789.393	6.61
789.698	5.62
790.003	5.35
790.308	9.79
790.613	2.58
790.918	8.35
791.223	7.02
791.527	5.66
791.832	7.63
792.137	6.27
792.441	6.58
792.746	6.62
793.05	8.68
793.355	8.67
793.659	5.45
793.963	5.16
794.268	8.2
794.572	8.23
794.876	4.93
795.18	6.05
795.484	4.97
795.788	6.74
796.092	10.64
796.396	6.72
796.7	6.27
797.004	6.15
797.307	7.37
797.611	7.17
797.915	12.55
798.218	6.62
798.522	4.74
798.825	4.31
799.128	1.49
799.432	3.04
799.735	7.28
800.038	5
800.341	5.81
800.644	3.92
800.947	7.8
801.25	6.21
801.553	7
801.856	12.24
802.159	11.59
802.462	6.97
802.764	3.1
803.067	-1.29
803.37	4.02
803.672	8.52
803.975	5.38
804.277	6
804.579	-1.65
804.882	0.78
805.184	1.13
805.486	6.59
805.788	11.09
806.09	1.73
806.392	2.24
806.694	2.59
806.996	0.74
807.298	3.22
807.6	6.71
807.902	8.7
808.203	2.58
808.505	4.69
808.807	8.17
809.108	11.85
809.409	11.91
809.711	2.65
810.012	8.99
810.313	9.93
810.615	1.71
810.916	4.13
811.217	8.81
811.518	2.42
811.819	4.96
812.12	3.24
812.421	8.9
812.722	12.62
813.023	6.44
813.323	4.92
813.624	16.11
813.925	10.47
814.225	13.61
814.526	7.56
814.826	2.26
815.126	2.96
815.427	6.34
815.727	3.29
816.027	-4.69
816.327	5.73
816.627	5.75
816.927	5.36
817.227	9.74
817.527	8.04
817.827	2
818.127	10.52
818.427	11.72
818.727	5.72
819.026	3.77
819.326	2.92
819.625	6.72
819.925	6.39
820.224	8.44
820.524	12.65
820.823	8.15
821.122	7.83
821.421	6.22
821.72	7.72
822.019	1.42
822.318	7.8
822.617	4.5
822.916	5.64
823.215	8.27
823.514	8.29
823.813	8.37
824.111	8.61
824.41	6.03
824.709	8.34
825.007	7.55
825.306	7.01
825.604	7.5
825.902	7.56
826.201	8.04
826.499	7.07
826.797	7.21
827.095	7.48
827.393	6.62
827.691	8.08
827.989	6.8
828.287	8.84
828.585	7.24
828.882	5.9
829.18	5.62
829.478	4.32
829.775	7.67
830.073	7.57
830.37	7.21
830.668	7.05
830.965	8
831.263	6.94
831.56	5.08
831.857	5.03
832.154	9.64
832.451	7.38
832.748	6.72
833.045	10.18
833.342	6.74
833.639	9.1
833.936	8.52
834.232	3.45
834.529	11.05
834.826	5.05
835.122	12.8
835.419	7.03
835.715	1.83
836.012	7.12
836.308	4.43
836.604	9.19
836.901	8.7
837.197	6.84
837.493	7.98
837.789	6.88
838.085	9.56
838.381	6.8
838.677	8.95
838.972	4.32
839.268	10.9
839.564	6.95
839.86	5.64
840.155	7.05
840.451	8.21
840.746	6.95
841.042	5.65
841.337	6.15
841.632	-1.35
841.928	7.48
842.223	0.5
842.518	4.11
842.813	10.85
843.108	7.39
843.403	5.07
843.698	4.24
843.993	7.97
844.287	9.76
844.582	0.37
844.877	5.66
845.171	-0.64
845.466	-0.14
845.761	7.2
846.055	16.73
846.349	7.38
846.644	7.28
846.938	7.78
847.232	-3.29
847.526	13.2
847.82	3.04
848.114	15.33
848.408	3.61
848.702	5.55
848.996	-2.91
849.29	14.05
849.584	14.66
849.877	-0.02
850.171	15.22
850.465	16.74
850.758	5.04
851.052	8.55
851.345	1.43
851.638	-8.68
851.932	20.66
852.225	8.47
852.518	3.16
852.811	-1.22
853.104	25.45
853.397	-19.12
853.69	25.79
853.983	-5.16
854.276	16.48
854.569	20.58
854.861	-12.79
855.154	10.92
855.447	-9.69
855.739	7.35
856.032	7.5
856.324	22.76
856.616	9.14
856.909	12.1
857.201	-1.88
857.493	1.59
857.785	18.74
858.077	-11.42
858.369	-14.61
858.661	0.94
858.953	10
859.245	4.36
859.537	10.34
859.829	23.52
860.12	6.05
860.412	1.69
860.703	-18.15
860.995	-6.86
861.286	-13.72
861.578	21.77
861.869	3.36
862.16	5.97
862.452	-7.11
862.743	5.66
863.034	7.65
863.325	7.18
863.616	15.82
863.907	-20.69
864.198	24.27
864.488	-20.47
864.779	24.05
865.07	15.23
865.36	10.45
865.651	27.84
865.941	5.05
866.232	-17.45
866.522	20.71
866.813	-0.63
867.103	0.88
867.393	-1.52
867.683	5.36
867.973	-7.76
868.263	26.08
868.553	-17.74
868.843	15.36
869.133	8.84
869.423	11.95
869.713	-19.12
870.002	30.21
870.292	-16.12
870.582	16.34
870.871	-17.45
871.161	12.76
871.45	27.22
871.739	15.81
872.029	-7.4
872.318	11.19
872.607	-20.96
872.896	-0.02
873.185	19.66
873.474	-3.83
873.763	-19.12
874.052	16.18
874.341	13.1
874.63	9.84
874.918	26.13
875.207	19.93
875.496	-10.26
875.784	23.47
876.073	17.98
876.361	24.76
876.649	-19.4
876.938	-7.58
877.226	20.9
877.514	24.74
877.802	2.31
878.09	-32.58
878.378	-8.68
878.666	20.33
878.954	-19.66
879.242	-6.28
879.53	-3.69
879.817	-4.85
880.105	-1.04
880.392	2.21
880.68	-45.39
880.967	-0.09
881.255	8.64
881.542	-10.38
881.83	-4.98
882.117	-2.2
882.404	1.92
882.691	6.02
882.978	16.19
883.265	0.3
883.552	5.53
883.839	19.6
884.126	3.55
884.413	0.96
884.699	11.89
884.986	9.34
885.273	-0.66
885.559	-0.66
885.846	-0.66
