Data from 0040_crown_Reflection__4__69.txt Node

Date: Fri Nov 04 15:18:51 CDT 2022
User: ToomeyLab
Spectrometer: FLMS14357
Trigger mode: 0
Integration Time (sec): 1.000000E-2
Scans to average: 100
Electric dark correction enabled: true
Nonlinearity correction enabled: false
Boxcar width: 0
XAxis mode: Wavelengths
Number of Pixels in Spectrum: 2048
>>>>>Begin Spectral Data<<<<<
189.047	647.49
189.435	647.49
189.823	647.49
190.211	-98.13
190.599	-174.63
190.987	-148.34
191.375	733.94
191.763	198.47
192.151	346.59
192.538	-251.37
192.926	-382.44
193.314	182.07
193.702	64.37
194.089	19.33
194.477	2196.09
194.864	632.47
195.252	149.87
195.639	-840.87
196.027	996.13
196.414	38.52
196.801	63.83
197.189	21.38
197.576	58.39
197.963	144.86
198.351	-19.74
198.738	9.78
199.125	-8.07
199.512	-0.92
199.899	-14
200.286	-48.68
200.673	40.22
201.06	-14.37
201.447	-25.64
201.833	19.7
202.22	-0.18
202.607	-0.89
202.994	20.88
203.38	-11.67
203.767	4.82
204.154	36.27
204.54	-29.45
204.927	1.4
205.313	15.34
205.699	27.81
206.086	8.05
206.472	6.33
206.858	20.28
207.245	-15.58
207.631	26.97
208.017	-19.5
208.403	11.64
208.789	19.71
209.175	23.39
209.561	-81.08
209.947	-42.22
210.333	11.51
210.719	0.29
211.105	-31.37
211.491	-9.1
211.876	-36.32
212.262	-28.34
212.648	-20.89
213.034	38.2
213.419	-8.89
213.805	-3.21
214.19	-36.86
214.576	6.49
214.961	13.24
215.346	-2.24
215.732	16.18
216.117	6.82
216.502	38.99
216.888	-41.91
217.273	16.06
217.658	-0.25
218.043	-20.97
218.428	13.28
218.813	17.54
219.198	7.34
219.583	2.74
219.968	3.9
220.353	-25.34
220.738	-22.07
221.122	3.84
221.507	23.98
221.892	-29.77
222.276	-8.72
222.661	10.3
223.046	3.03
223.43	4.75
223.815	-11.51
224.199	14.36
224.583	9.68
224.968	4.69
225.352	9.62
225.736	1.58
226.121	-2.89
226.505	6.47
226.889	4.86
227.273	12.19
227.657	2.33
228.041	11.64
228.425	11
228.809	12.04
229.193	10.31
229.577	8.21
229.961	11.31
230.344	10.71
230.728	10.31
231.112	9.82
231.495	10.47
231.879	10.2
232.263	8.29
232.646	9.78
233.03	9.56
233.413	9.4
233.797	7.04
234.18	7.58
234.563	10.94
234.946	9.95
235.33	12.59
235.713	10.23
236.096	12.09
236.479	8.52
236.862	8.97
237.245	7.33
237.628	9.71
238.011	7.94
238.394	9.62
238.777	9.98
239.16	7.73
239.543	8.94
239.925	10.42
240.308	9.82
240.691	9.98
241.073	9.9
241.456	9.59
241.838	8.71
242.221	9.47
242.603	8.9
242.986	8.65
243.368	9.43
243.75	9.25
244.133	9.66
244.515	9.77
244.897	9.2
245.279	9.53
245.661	10.15
246.043	8.19
246.425	9.48
246.807	9.6
247.189	8.68
247.571	9.85
247.953	9.07
248.335	8.91
248.717	9.2
249.098	8.95
249.48	9.25
249.862	9.22
250.243	8.88
250.625	8.8
251.006	9.18
251.388	9.06
251.769	9.42
252.151	9.14
252.532	8.49
252.913	8.38
253.295	8.88
253.676	8.37
254.057	8.27
254.438	8.75
254.819	8.96
255.2	8
255.581	9.44
255.962	9.55
256.343	7.56
256.724	8.48
257.105	7.43
257.486	7.78
257.867	9.89
258.247	9.64
258.628	8.05
259.009	7.2
259.389	8.09
259.77	7.93
260.15	8.2
260.531	7.84
260.911	7.79
261.292	7.82
261.672	8.01
262.052	7.97
262.432	7.99
262.813	7.81
263.193	7.34
263.573	8.04
263.953	8.22
264.333	7.56
264.713	8.39
265.093	8.17
265.473	8.5
265.853	7.19
266.233	8.43
266.612	7.63
266.992	7.68
267.372	6.71
267.752	7.27
268.131	7.73
268.511	7.58
268.89	7.71
269.27	7.69
269.649	8.03
270.029	7.67
270.408	7.07
270.787	7.99
271.167	7.56
271.546	8.15
271.925	7.29
272.304	6.74
272.683	6.77
273.062	7.25
273.441	7.54
273.82	7.15
274.199	7.16
274.578	7.07
274.957	6.98
275.336	6.67
275.715	7.34
276.093	7.01
276.472	7.17
276.851	6.58
277.229	7.38
277.608	6.62
277.986	7.59
278.365	7.23
278.743	6.99
279.122	7.36
279.5	7.19
279.878	7.13
280.257	6.15
280.635	6.98
281.013	6.66
281.391	6.98
281.769	6.86
282.147	6.73
282.525	6.76
282.903	7.03
283.281	6.95
283.659	6.33
284.037	6.9
284.415	6.64
284.792	7.02
285.17	6.35
285.548	6.76
285.925	6.57
286.303	6.77
286.68	6.91
287.058	6.65
287.435	6.63
287.813	6.4
288.19	6.71
288.567	6.52
288.945	6.53
289.322	6.94
289.699	6.85
290.076	6.74
290.453	6.24
290.83	6.13
291.207	6.18
291.584	6.43
291.961	6.58
292.338	6.7
292.715	6.25
293.092	6.55
293.469	6.31
293.845	6.02
294.222	6.22
294.599	6.69
294.975	5.88
295.352	5.8
295.728	6.25
296.105	6.29
296.481	6.12
296.858	5.87
297.234	6.3
297.61	6.32
297.986	5.63
298.363	6.03
298.739	5.83
299.115	6.08
299.491	5.97
299.867	6
300.243	6.01
300.619	6.36
300.995	6.42
301.371	6.46
301.746	5.75
302.122	5.86
302.498	5.87
302.874	6.26
303.249	5.85
303.625	5.72
304	6.12
304.376	5.69
304.751	6.15
305.127	5.35
305.502	6.2
305.878	5.6
306.253	5.83
306.628	5.61
307.003	5.47
307.378	6.02
307.754	6.09
308.129	5.37
308.504	5.72
308.879	5.86
309.254	5.97
309.629	5.73
310.003	6.08
310.378	5.17
310.753	5.96
311.128	5.26
311.502	5.07
311.877	5.91
312.252	5.06
312.626	5.69
313.001	5.49
313.375	5.4
313.75	5.46
314.124	5.43
314.498	5.34
314.873	5.6
315.247	5.77
315.621	5.29
315.995	6.3
316.369	5.43
316.743	6.13
317.117	5.38
317.491	5.79
317.865	5.53
318.239	5.78
318.613	6.19
318.987	5.7
319.361	5.51
319.734	5.42
320.108	5.63
320.482	4.83
320.855	5.53
321.229	5.41
321.602	5.28
321.976	5.26
322.349	5.57
322.723	5.54
323.096	5.58
323.469	5.2
323.843	4.97
324.216	5.28
324.589	5.47
324.962	5.23
325.335	5.33
325.708	5.08
326.081	5.46
326.454	5.41
326.827	5.28
327.2	5.06
327.573	4.78
327.945	5.68
328.318	4.8
328.691	5.33
329.063	4.99
329.436	5.56
329.809	5.51
330.181	5.36
330.553	5.26
330.926	5.89
331.298	5.58
331.671	5.31
332.043	5.33
332.415	5.41
332.787	4.82
333.159	4.93
333.532	5.09
333.904	5.53
334.276	4.81
334.648	5.72
335.02	4.76
335.391	5.62
335.763	5.27
336.135	5.29
336.507	5.29
336.879	5.4
337.25	5.3
337.622	5.55
337.993	5.49
338.365	5.15
338.736	5.46
339.108	6.1
339.479	5.41
339.851	4.84
340.222	5.3
340.593	5.46
340.964	5.3
341.336	5.38
341.707	5.35
342.078	5.58
342.449	5.6
342.82	5.37
343.191	5.33
343.562	5.56
343.933	5.87
344.303	5.98
344.674	5.49
345.045	5.03
345.416	5.13
345.786	5.63
346.157	5.53
346.527	5.67
346.898	5.53
347.268	5.07
347.639	5.44
348.009	5.72
348.38	5.76
348.75	5.33
349.12	5.18
349.49	5.59
349.861	5.38
350.231	6.06
350.601	5.8
350.971	5.69
351.341	5.53
351.711	5.48
352.081	5.83
352.45	5.56
352.82	5.65
353.19	5.42
353.56	5.48
353.929	5.39
354.299	5.73
354.669	5.69
355.038	5.99
355.408	5.45
355.777	5.62
356.147	5.72
356.516	5.45
356.885	5.68
357.254	5.94
357.624	5.74
357.993	5.6
358.362	5.3
358.731	5.63
359.1	5.75
359.469	5.81
359.838	6.01
360.207	5.67
360.576	5.91
360.945	5.97
361.314	5.94
361.682	5.71
362.051	5.97
362.42	6.18
362.788	5.88
363.157	5.78
363.525	6.04
363.894	5.84
364.262	6.08
364.631	5.91
364.999	5.88
365.367	5.47
365.735	6.24
366.104	5.93
366.472	6.11
366.84	5.77
367.208	6.27
367.576	5.89
367.944	6.11
368.312	6.22
368.68	5.79
369.048	6.11
369.416	5.97
369.783	6.02
370.151	5.85
370.519	6.43
370.886	6.17
371.254	6.19
371.621	6.28
371.989	6.03
372.356	6.26
372.724	6.21
373.091	5.96
373.458	6.2
373.826	6.37
374.193	6
374.56	5.96
374.927	6.53
375.294	6.01
375.661	6.16
376.028	6.06
376.395	6.31
376.762	6.52
377.129	6.32
377.496	6.6
377.863	6.2
378.229	5.92
378.596	6.09
378.963	6.28
379.329	5.9
379.696	6.29
380.062	6.51
380.429	6.4
380.795	6.48
381.161	6.33
381.528	6.38
381.894	6.23
382.26	6.46
382.626	6.46
382.993	6.49
383.359	6.35
383.725	6.33
384.091	6.64
384.457	6.54
384.823	6.68
385.188	6.22
385.554	6.38
385.92	6.17
386.286	6.41
386.651	6.39
387.017	6.25
387.383	6.25
387.748	6.42
388.114	6.36
388.479	6.98
388.845	6.53
389.21	6.75
389.575	6.74
389.94	6.59
390.306	6.53
390.671	6.53
391.036	6.49
391.401	6.67
391.766	6.34
392.131	6.12
392.496	6.67
392.861	6.7
393.226	6.46
393.591	6.7
393.956	6.75
394.32	6.58
394.685	6.69
395.05	6.75
395.414	6.65
395.779	6.53
396.143	6.44
396.508	6.76
396.872	6.72
397.236	6.71
397.601	6.62
397.965	6.73
398.329	6.75
398.694	6.83
399.058	6.88
399.422	6.78
399.786	6.69
400.15	6.67
400.514	6.78
400.878	6.63
401.242	6.56
401.605	6.51
401.969	6.89
402.333	6.65
402.697	6.92
403.06	6.96
403.424	6.92
403.787	6.63
404.151	6.68
404.514	6.86
404.878	6.84
405.241	6.95
405.604	6.69
405.968	6.76
406.331	6.74
406.694	6.74
407.057	6.58
407.42	6.77
407.783	6.75
408.146	6.77
408.509	6.82
408.872	6.88
409.235	6.8
409.598	6.74
409.961	7.02
410.323	6.85
410.686	6.89
411.049	6.82
411.411	6.74
411.774	7.06
412.136	6.99
412.499	6.99
412.861	6.92
413.223	7
413.586	6.82
413.948	6.92
414.31	6.92
414.672	7.1
415.035	7.07
415.397	6.8
415.759	7.03
416.121	6.94
416.483	7.06
416.845	6.97
417.206	6.82
417.568	7.01
417.93	6.99
418.292	6.81
418.653	7.04
419.015	6.95
419.377	6.97
419.738	6.83
420.1	6.93
420.461	6.96
420.822	6.86
421.184	6.85
421.545	6.79
421.906	6.91
422.267	6.79
422.629	6.9
422.99	6.73
423.351	6.68
423.712	6.71
424.073	6.87
424.434	6.7
424.795	6.85
425.155	6.9
425.516	6.84
425.877	6.83
426.238	6.8
426.598	6.85
426.959	6.77
427.32	6.83
427.68	6.78
428.041	6.86
428.401	7.06
428.761	7.13
429.122	6.97
429.482	6.96
429.842	6.87
430.202	7.19
430.563	6.97
430.923	7.12
431.283	6.99
431.643	7.18
432.003	7.21
432.363	7.09
432.722	7
433.082	7.04
433.442	7.04
433.802	6.86
434.161	6.91
434.521	6.91
434.881	7.07
435.24	7.04
435.6	7.07
435.959	6.92
436.319	7.03
436.678	7.02
437.037	7.14
437.396	7.16
437.756	7.14
438.115	7.02
438.474	7.16
438.833	7.26
439.192	7.03
439.551	7.16
439.91	7.1
440.269	7.14
440.628	7.11
440.987	7.06
441.345	6.98
441.704	7.02
442.063	6.98
442.421	7.06
442.78	7.1
443.138	7.04
443.497	7.07
443.855	7.04
444.214	7.14
444.572	7.09
444.93	7.16
445.288	7.06
445.647	6.92
446.005	6.95
446.363	7.04
446.721	6.96
447.079	7.1
447.437	7.05
447.795	7.04
448.153	6.97
448.51	7.03
448.868	7.04
449.226	7.01
449.584	6.9
449.941	6.93
450.299	7.05
450.656	6.97
451.014	7.08
451.371	7.18
451.729	7.14
452.086	7.12
452.443	7.03
452.801	7.3
453.158	7.29
453.515	7.23
453.872	7.23
454.229	7.24
454.586	7.17
454.943	7.16
455.3	7.18
455.657	6.93
456.014	7.04
456.371	7.07
456.727	7.22
457.084	7.11
457.441	7.17
457.797	6.97
458.154	7.2
458.51	7.13
458.867	7.1
459.223	7.28
459.58	7.3
459.936	7.04
460.292	7.17
460.648	7.13
461.005	7.06
461.361	7.08
461.717	6.96
462.073	7.01
462.429	7.13
462.785	7.13
463.141	7.1
463.496	7.09
463.852	7.2
464.208	7.11
464.564	7.1
464.919	7.33
465.275	7.24
465.631	7.31
465.986	7.29
466.342	7.16
466.697	7.15
467.052	7.26
467.408	7.14
467.763	7.23
468.118	7.25
468.473	7.14
468.829	6.97
469.184	7.16
469.539	7.07
469.894	7.29
470.249	7.16
470.603	7.11
470.958	7.1
471.313	7.14
471.668	7.22
472.023	7.01
472.377	7.12
472.732	7.3
473.086	7.23
473.441	7.17
473.795	7.17
474.15	7.12
474.504	7.15
474.859	7.21
475.213	7.17
475.567	7.07
475.921	7.15
476.275	7.22
476.63	7.2
476.984	7.05
477.338	7.12
477.692	7.18
478.045	7.26
478.399	6.99
478.753	7.2
479.107	7.18
479.461	7.33
479.814	7.37
480.168	7.1
480.521	7.03
480.875	7.09
481.228	7.11
481.582	7.14
481.935	7.17
482.289	7
482.642	7.14
482.995	7.1
483.348	7.1
483.701	7.06
484.055	7.05
484.408	7.08
484.761	6.92
485.114	6.79
485.466	6.71
485.819	6.6
486.172	6.65
486.525	6.72
486.878	6.8
487.23	6.84
487.583	6.92
487.936	6.93
488.288	6.98
488.641	6.94
488.993	6.85
489.345	6.75
489.698	6.8
490.05	6.83
490.402	6.81
490.754	6.89
491.107	6.9
491.459	6.98
491.811	6.96
492.163	6.99
492.515	7.04
492.866	6.95
493.218	6.85
493.57	6.74
493.922	6.81
494.274	6.75
494.625	6.93
494.977	6.98
495.328	7.09
495.68	7.05
496.031	7.08
496.383	7.09
496.734	7.09
497.086	7.23
497.437	7.21
497.788	7.22
498.139	7.02
498.49	7.07
498.842	7.15
499.193	7.04
499.544	7.05
499.894	6.93
500.245	7.18
500.596	7.1
500.947	7.15
501.298	7.01
501.648	7.22
501.999	7.27
502.35	7.03
502.7	7.12
503.051	7.17
503.401	7.14
503.752	7.2
504.102	7.1
504.452	7.19
504.803	7.25
505.153	7.11
505.503	7.02
505.853	7.15
506.203	7.08
506.553	7.18
506.903	7.05
507.253	7.21
507.603	7.02
507.953	7.03
508.303	7.13
508.652	7.09
509.002	7.21
509.352	7.17
509.701	7.19
510.051	7.09
510.4	7.1
510.75	7.07
511.099	7.06
511.449	6.93
511.798	6.97
512.147	7.07
512.496	7
512.846	6.76
513.195	7.16
513.544	7.06
513.893	7.04
514.242	6.88
514.591	6.91
514.939	7.08
515.288	7.19
515.637	7.05
515.986	7.02
516.334	7.17
516.683	7.06
517.032	6.99
517.38	7.02
517.729	7.03
518.077	7.07
518.426	7.05
518.774	7.06
519.122	7.09
519.47	6.91
519.819	6.97
520.167	6.95
520.515	6.84
520.863	6.84
521.211	6.93
521.559	6.88
521.907	6.93
522.255	6.96
522.602	6.97
522.95	6.97
523.298	7.02
523.645	7.08
523.993	7.06
524.341	6.98
524.688	7
525.036	7.1
525.383	6.98
525.73	7.03
526.078	7.04
526.425	7.09
526.772	6.92
527.119	6.96
527.466	6.86
527.814	6.84
528.161	6.8
528.508	6.84
528.854	6.84
529.201	6.82
529.548	6.75
529.895	6.72
530.242	6.62
530.588	6.58
530.935	6.6
531.282	6.63
531.628	6.58
531.975	6.76
532.321	6.86
532.667	6.77
533.014	6.83
533.36	6.86
533.706	6.94
534.052	6.96
534.399	6.85
534.745	6.73
535.091	6.66
535.437	6.69
535.783	6.67
536.129	6.81
536.474	6.83
536.82	6.88
537.166	6.83
537.512	6.93
537.857	6.87
538.203	6.71
538.549	6.72
538.894	6.79
539.239	6.89
539.585	6.77
539.93	6.79
540.276	6.85
540.621	6.82
540.966	6.98
541.311	6.78
541.656	6.95
542.001	6.99
542.346	6.83
542.691	6.82
543.036	6.57
543.381	6.6
543.726	6.65
544.071	6.61
544.415	6.73
544.76	6.72
545.105	6.67
545.449	6.77
545.794	6.8
546.138	6.86
546.483	6.83
546.827	6.84
547.171	6.92
547.516	6.92
547.86	6.76
548.204	6.8
548.548	6.77
548.892	6.8
549.236	6.71
549.58	6.77
549.924	6.83
550.268	6.91
550.612	6.72
550.956	6.96
551.3	6.87
551.643	6.93
551.987	6.74
552.33	6.83
552.674	6.81
553.017	6.89
553.361	6.93
553.704	6.85
554.048	6.8
554.391	6.8
554.734	6.88
555.077	6.81
555.42	6.8
555.764	6.93
556.107	6.86
556.45	6.91
556.793	6.97
557.135	6.81
557.478	6.84
557.821	6.99
558.164	6.87
558.507	6.8
558.849	7.01
559.192	6.89
559.534	6.83
559.877	6.82
560.219	6.77
560.562	6.92
560.904	6.87
561.246	6.82
561.589	6.95
561.931	6.59
562.273	6.93
562.615	6.71
562.957	6.79
563.299	6.72
563.641	6.67
563.983	6.57
564.325	6.75
564.667	6.88
565.008	6.68
565.35	6.68
565.692	6.82
566.033	6.84
566.375	6.67
566.716	6.69
567.058	6.73
567.399	6.86
567.741	6.66
568.082	6.56
568.423	6.64
568.764	6.67
569.105	6.61
569.447	6.76
569.788	6.74
570.129	6.7
570.47	6.72
570.811	6.72
571.151	6.66
571.492	6.83
571.833	6.63
572.174	6.77
572.514	6.64
572.855	6.6
573.195	6.62
573.536	6.53
573.876	6.58
574.217	6.55
574.557	6.46
574.898	6.69
575.238	6.47
575.578	6.79
575.918	6.59
576.258	6.52
576.598	6.53
576.938	6.63
577.278	6.44
577.618	6.46
577.958	6.26
578.298	6.6
578.638	6.68
578.977	6.62
579.317	6.65
579.657	6.5
579.996	6.57
580.336	6.45
580.675	6.16
581.014	6.83
581.354	6.54
581.693	6.83
582.032	6.56
582.372	6.66
582.711	6.62
583.05	6.36
583.389	6.66
583.728	6.44
584.067	6.79
584.406	6.54
584.745	6.76
585.083	6.54
585.422	6.59
585.761	6.65
586.1	6.39
586.438	6.32
586.777	6.39
587.115	6.55
587.454	6.68
587.792	6.73
588.13	6.5
588.469	6.52
588.807	6.66
589.145	6.56
589.483	6.19
589.821	6.4
590.159	6.23
590.497	6.51
590.835	6.4
591.173	6.33
591.511	6.6
591.849	6.47
592.187	6.45
592.524	6.42
592.862	6.42
593.2	6.43
593.537	6.39
593.875	6.45
594.212	6.3
594.55	6.27
594.887	6.39
595.224	6.45
595.561	6.18
595.899	6.38
596.236	6.41
596.573	6.25
596.91	6.3
597.247	6.3
597.584	6.07
597.921	6.31
598.258	6.27
598.594	6.03
598.931	6.22
599.268	6.26
599.604	6.29
599.941	6.39
600.277	6.24
600.614	6.34
600.95	6.47
601.287	5.99
601.623	6.33
601.959	6.27
602.296	6.27
602.632	6.49
602.968	6.41
603.304	6.35
603.64	6.44
603.976	6.13
604.312	6.27
604.648	6.18
604.984	6.12
605.319	6.31
605.655	5.98
605.991	6.08
606.326	6.14
606.662	6.15
606.998	6.03
607.333	6.08
607.668	6.19
608.004	6.22
608.339	6.02
608.674	6.21
609.01	6.16
609.345	6.28
609.68	6.4
610.015	6.1
610.35	5.98
610.685	6.28
611.02	6.08
611.355	5.95
611.689	6.28
612.024	6.02
612.359	5.93
612.694	6.06
613.028	6.34
613.363	6.31
613.697	5.99
614.032	6.09
614.366	6.25
614.7	6.07
615.035	6.03
615.369	6.26
615.703	6.17
616.037	5.97
616.371	6.37
616.705	6.05
617.039	6.21
617.373	6.31
617.707	6.33
618.041	6.14
618.375	6.31
618.709	6.14
619.042	6.31
619.376	6.05
619.71	6.22
620.043	6.63
620.377	6.29
620.71	6.57
621.043	6.11
621.377	6.04
621.71	6.2
622.043	6.41
622.376	5.96
622.709	6.19
623.043	5.93
623.376	6.35
623.709	5.96
624.041	6.1
624.374	6
624.707	5.73
625.04	6.32
625.373	6.3
625.705	5.99
626.038	5.84
626.37	6.32
626.703	6.27
627.035	6.02
627.368	5.98
627.7	6.17
628.032	5.86
628.365	6.03
628.697	6.11
629.029	5.85
629.361	5.94
629.693	6.09
630.025	6.13
630.357	5.81
630.689	6.13
631.021	5.74
631.353	5.96
631.684	6.25
632.016	5.95
632.348	5.6
632.679	5.87
633.011	5.78
633.342	5.95
633.674	5.67
634.005	6.2
634.336	6.17
634.668	6.12
634.999	6.01
635.33	5.65
635.661	6.23
635.992	6.08
636.323	5.56
636.654	5.68
636.985	5.78
637.316	5.66
637.647	5.82
637.977	5.98
638.308	6.03
638.639	5.88
638.969	5.62
639.3	6.04
639.63	5.75
639.961	6.17
640.291	6.2
640.622	6.13
640.952	5.91
641.282	5.8
641.612	5.95
641.943	5.82
642.273	5.74
642.603	5.89
642.933	5.99
643.263	5.48
643.592	5.58
643.922	6.48
644.252	5.83
644.582	5.72
644.911	5.87
645.241	5.74
645.571	5.7
645.9	5.94
646.23	5.82
646.559	6.07
646.888	5.88
647.218	6.27
647.547	5.65
647.876	6.26
648.205	5.31
648.534	5.96
648.863	5.94
649.192	5.46
649.521	5.54
649.85	6.37
650.179	5.54
650.508	5.66
650.837	5.83
651.165	5.79
651.494	5.38
651.822	5.4
652.151	6.01
652.479	5.59
652.808	5.53
653.136	5.78
653.465	5.57
653.793	5.94
654.121	5.69
654.449	5.32
654.777	5.16
655.105	5.6
655.433	5.9
655.761	5.67
656.089	5.87
656.417	5.77
656.745	5.06
657.073	5.67
657.4	5.69
657.728	5.97
658.056	5.56
658.383	5.85
658.711	5.16
659.038	5.81
659.365	6.68
659.693	5.95
660.02	5.8
660.347	5.57
660.674	5.83
661.001	5.57
661.329	5.65
661.656	5.57
661.982	5.19
662.309	5.77
662.636	5.98
662.963	5.63
663.29	5.34
663.616	5.7
663.943	6.11
664.27	5.99
664.596	5.45
664.923	5.82
665.249	6.32
665.576	5.72
665.902	5.35
666.228	5.27
666.554	5.86
666.881	5.77
667.207	6.08
667.533	5.68
667.859	6.1
668.185	5.9
668.511	5.77
668.837	5.78
669.162	5.85
669.488	5.29
669.814	5.86
670.139	5.77
670.465	5.97
670.791	5.6
671.116	5.38
671.442	5.51
671.767	5.73
672.092	5.64
672.418	5.48
672.743	6.24
673.068	5.43
673.393	5.95
673.718	5.83
674.043	5.35
674.368	4.7
674.693	5.5
675.018	5.62
675.343	6.15
675.667	5.65
675.992	5.62
676.317	5.78
676.641	5.82
676.966	5.29
677.29	5.38
677.615	5.95
677.939	5.86
678.264	5.82
678.588	5.43
678.912	6.37
679.236	5.88
679.56	5.95
679.885	5.85
680.209	5.68
680.532	6.05
680.856	5.65
681.18	5.02
681.504	5.54
681.828	5.87
682.152	6.02
682.475	5.54
682.799	6.09
683.122	6.22
683.446	5.75
683.769	4.83
684.093	5.82
684.416	4.91
684.739	5.28
685.062	6.11
685.386	5.5
685.709	5.81
686.032	5.82
686.355	6.81
686.678	6.17
687.001	5.88
687.324	6.26
687.646	6.34
687.969	5.19
688.292	5.41
688.614	6.7
688.937	5.72
689.26	5.46
689.582	6.51
689.904	6.51
690.227	5.62
690.549	5.52
690.871	5.75
691.194	5.62
691.516	5.46
691.838	5.06
692.16	6.11
692.482	5.49
692.804	5.69
693.126	5.59
693.448	5.68
693.769	6.27
694.091	6.04
694.413	5.22
694.735	5.73
695.056	5.36
695.378	6.07
695.699	6.31
696.021	6.73
696.342	6.07
696.663	5.39
696.984	6.4
697.306	5.5
697.627	5.08
697.948	5.09
698.269	6.21
698.59	5.8
698.911	5.95
699.232	5.84
699.553	6.1
699.873	5.21
700.194	5.82
700.515	5.51
700.835	5.71
701.156	5.45
701.477	5.44
701.797	5.94
702.117	5.52
702.438	6.03
702.758	5.65
703.078	6.06
703.398	5.16
703.719	6.2
704.039	5.92
704.359	6.9
704.679	5.71
704.999	5.46
705.319	5.86
705.638	5.56
705.958	4.72
706.278	5.3
706.597	4.99
706.917	5.41
707.237	4.98
707.556	5.77
707.876	4.36
708.195	4.89
708.514	5.3
708.834	6.14
709.153	5.82
709.472	5.48
709.791	5.71
710.11	4.88
710.429	6.42
710.748	5.66
711.067	6.39
711.386	5.6
711.705	5.38
712.023	5.91
712.342	5.47
712.661	5.62
712.979	5.54
713.298	5.79
713.616	5.2
713.935	5.58
714.253	5.74
714.572	5.45
714.89	5.64
715.208	5.83
715.526	6.89
715.844	5.14
716.162	5.53
716.48	5.75
716.798	5.97
717.116	5.77
717.434	4.94
717.752	5.46
718.069	5.3
718.387	4.38
718.705	5.46
719.022	6.51
719.34	6.64
719.657	5.28
719.975	6.34
720.292	6.67
720.609	5.7
720.927	5.42
721.244	5.8
721.561	5.46
721.878	5.48
722.195	6.22
722.512	5.34
722.829	5.67
723.146	6
723.463	5.95
723.779	6.73
724.096	7.04
724.413	5.3
724.729	5.96
725.046	5
725.362	6.27
725.679	6.53
725.995	5.85
726.311	6.65
726.628	5.54
726.944	5.54
727.26	5.67
727.576	5.49
727.892	5.85
728.208	6.43
728.524	6.26
728.84	5.91
729.156	5.55
729.472	6.96
729.787	5.84
730.103	4.27
730.419	6.47
730.734	4.97
731.05	5.59
731.365	4.76
731.681	4.35
731.996	6.29
732.311	6.21
732.626	6.11
732.942	5.52
733.257	5.54
733.572	5.28
733.887	7.05
734.202	5.72
734.517	5.36
734.832	7.32
735.146	5.54
735.461	6.01
735.776	3.99
736.091	5.99
736.405	5.56
736.72	5.68
737.034	6.08
737.349	5.29
737.663	5.25
737.977	6.06
738.292	7.02
738.606	6.45
738.92	4.87
739.234	5.25
739.548	6.55
739.862	6.88
740.176	5.4
740.49	4.19
740.804	5.97
741.117	6.15
741.431	4.78
741.745	6.89
742.058	5.8
742.372	4.14
742.685	5.53
742.999	6.3
743.312	5.78
743.626	5.54
743.939	6.69
744.252	6.86
744.565	3.19
744.878	5.85
745.191	6.44
745.505	4.05
745.817	6.9
746.13	4.35
746.443	7.34
746.756	6.1
747.069	5.35
747.381	6.79
747.694	6.37
748.007	5.86
748.319	4.38
748.632	5.44
748.944	6.82
749.256	6.18
749.569	5.93
749.881	3.7
750.193	5.02
750.505	6.55
750.817	6.46
751.129	6.44
751.441	6.71
751.753	4.61
752.065	6.77
752.377	3.4
752.689	7.59
753	4.04
753.312	7.44
753.624	6.07
753.935	7.36
754.247	8.32
754.558	6.4
754.869	5.89
755.181	6.72
755.492	8.04
755.803	6.86
756.114	6.89
756.425	5.9
756.736	7.34
757.047	8.98
757.358	7.26
757.669	5.9
757.98	4.78
758.291	5.68
758.601	5.76
758.912	4.57
759.223	7.4
759.533	6.39
759.844	4.91
760.154	6.62
760.464	5.84
760.775	7.23
761.085	5.1
761.395	5.72
761.705	6.3
762.016	7.35
762.326	7.05
762.636	7.3
762.945	5.43
763.255	7.11
763.565	6.16
763.875	6.71
764.185	7.08
764.494	6.09
764.804	6.69
765.113	8.19
765.423	6.24
765.732	6.26
766.042	6.32
766.351	5.57
766.66	6.17
766.97	6.88
767.279	5.32
767.588	6.28
767.897	5.68
768.206	7.05
768.515	5.77
768.824	6.5
769.133	5.08
769.441	6.42
769.75	8.5
770.059	5.41
770.367	6.38
770.676	6.32
770.984	7.14
771.293	7.67
771.601	6.94
771.91	7.52
772.218	6.46
772.526	5.23
772.834	7.64
773.142	4.17
773.45	4.33
773.758	5.8
774.066	7.05
774.374	9.57
774.682	3.85
774.99	4.78
775.298	5.91
775.605	3.44
775.913	5.66
776.22	5.8
776.528	8.13
776.835	6.65
777.143	4.04
777.45	3.19
777.757	4.81
778.065	7.47
778.372	4.68
778.679	5.75
778.986	6.23
779.293	6.09
779.6	7.52
779.907	6.01
780.214	6.98
780.52	8.85
780.827	7.51
781.134	5.87
781.44	2.76
781.747	3.08
782.053	6.46
782.36	4.55
782.666	4.18
782.973	6.19
783.279	9.54
783.585	6.48
783.891	5.52
784.197	4.43
784.503	7.12
784.809	7.22
785.115	8.98
785.421	6.32
785.727	8.31
786.033	3.5
786.339	7.41
786.644	6.51
786.95	6.41
787.255	5.32
787.561	5.6
787.866	6.24
788.172	5.74
788.477	5.24
788.782	6.86
789.088	9.21
789.393	9.42
789.698	1.51
790.003	6.47
790.308	8.58
790.613	3.85
790.918	5.72
791.223	9.87
791.527	5.78
791.832	7.59
792.137	1.82
792.441	9.07
792.746	5.96
793.05	5.89
793.355	8.67
793.659	8.58
793.963	6.05
794.268	4.67
794.572	9.98
794.876	5.55
795.18	4.85
795.484	3.09
795.788	8.54
796.092	8.52
796.396	8.51
796.7	6.85
797.004	7.62
797.307	5.07
797.611	6.62
797.915	5.34
798.218	4.64
798.522	8.07
798.825	5.88
799.128	4.95
799.432	8.03
799.735	6.9
800.038	7.96
800.341	6.05
800.644	3.28
800.947	5.23
801.25	5.12
801.553	9.23
801.856	10.73
802.159	9.22
802.462	9.28
802.764	4.83
803.067	4.74
803.37	-0.96
803.672	6.13
803.975	9.87
804.277	7.83
804.579	4.89
804.882	2.42
805.184	2.5
805.486	5.7
805.788	9.98
806.09	3.99
806.392	6.51
806.694	2.57
806.996	5.28
807.298	7.59
807.6	6.26
807.902	8.41
808.203	3.76
808.505	11.01
808.807	6.69
809.108	9.8
809.409	8.87
809.711	4.85
810.012	10.12
810.313	7.75
810.615	1.48
810.916	4.36
811.217	7.4
811.518	3.06
811.819	4.15
812.12	0.3
812.421	8.21
812.722	1.97
813.023	5.91
813.323	9.8
813.624	11.94
813.925	6.25
814.225	7.24
814.526	3.8
814.826	1.77
815.126	5.57
815.427	5.74
815.727	-1.72
816.027	1.17
816.327	5.04
816.627	6.99
816.927	3.15
817.227	11.37
817.527	7.07
817.827	5.21
818.127	9.42
818.427	5.9
818.727	10.13
819.026	4.96
819.326	1.95
819.625	5.7
819.925	7.32
820.224	9.65
820.524	11.08
820.823	7.46
821.122	10.88
821.421	5.25
821.72	11.38
822.019	6.15
822.318	5.82
822.617	5.88
822.916	5.46
823.215	6.86
823.514	8.64
823.813	5.97
824.111	7.84
824.41	4.85
824.709	8.53
825.007	9.03
825.306	7.43
825.604	8.27
825.902	8.09
826.201	8.02
826.499	7.86
826.797	8.31
827.095	9.19
827.393	7.95
827.691	7.93
827.989	8.86
828.287	9.29
828.585	9.31
828.882	6.63
829.18	8.12
829.478	8.25
829.775	11.88
830.073	6.46
830.37	9.35
830.668	7.53
830.965	6.7
831.263	8.03
831.56	6.51
831.857	7.03
832.154	9.72
832.451	7.31
832.748	10.56
833.045	12.38
833.342	10.75
833.639	10.4
833.936	6.99
834.232	4.57
834.529	12.47
834.826	7.83
835.122	13.59
835.419	7.74
835.715	4.47
836.012	7.47
836.308	6.71
836.604	7.68
836.901	9.65
837.197	5.65
837.493	5.72
837.789	7.65
838.085	5.98
838.381	10.71
838.677	9.56
838.972	7.37
839.268	6.76
839.564	6.19
839.86	7.11
840.155	11.05
840.451	10.57
840.746	8.27
841.042	7.12
841.337	9.55
841.632	9.11
841.928	7.55
842.223	0.22
842.518	-1.12
842.813	4.77
843.108	15.52
843.403	3.1
843.698	5.92
843.993	11.98
844.287	9.94
844.582	6.25
844.877	10.93
845.171	6.69
845.466	-0.22
845.761	0.79
846.055	6.24
846.349	-5.09
846.644	7
846.938	-12.17
847.232	-3.42
847.526	-1.08
847.82	8.59
848.114	20.64
848.408	-1.62
848.702	12.85
848.996	8.08
849.29	21.45
849.584	4.96
849.877	5
850.171	23.08
850.465	7.32
850.758	-0.73
851.052	15.32
851.345	8.56
851.638	-7.29
851.932	17.19
852.225	5.34
852.518	13.76
852.811	10.69
853.104	19.15
853.397	-22.26
853.69	19.84
853.983	7.88
854.276	7.79
854.569	11.47
854.861	-15.89
855.154	3.01
855.447	-8.44
855.739	8.37
856.032	22.06
856.324	19.74
856.616	11.79
856.909	17.9
857.201	25.75
857.493	19.48
857.785	20.15
858.077	11.67
858.369	8.37
858.661	4.02
858.953	-11.63
859.245	-10.27
859.537	-5.92
859.829	31.2
860.12	0.83
860.412	-5.18
860.703	-8.73
860.995	-16.5
861.286	7.15
861.578	21.52
861.869	18.04
862.16	23.7
862.452	19.12
862.743	10.14
863.034	15.55
863.325	-6.95
863.616	8.47
863.907	-25.86
864.198	22.12
864.488	-15.85
864.779	26.98
865.07	15.83
865.36	10.96
865.651	-16.51
865.941	5.75
866.232	1.43
866.522	21.56
866.813	1.71
867.103	-9.74
867.393	24.28
867.683	-2.46
867.973	-11.72
868.263	21.46
868.553	11.6
868.843	24.37
869.133	11.68
869.423	0.64
869.713	22.29
870.002	30.98
870.292	-2.62
870.582	14.58
870.871	-12.04
871.161	-5.66
871.45	23.78
871.739	15.55
872.029	-5.03
872.318	8.06
872.607	-22.62
872.896	10.95
873.185	13.31
873.474	17.17
873.763	-23.33
874.052	13.73
874.341	11.1
874.63	8.41
874.918	12.29
875.207	16.34
875.496	-9.68
875.784	28.78
876.073	20.67
876.361	16.11
876.649	-11.92
876.938	-7.14
877.226	19.02
877.514	15.44
877.802	1.41
878.09	-18.54
878.378	23.89
878.666	0.52
878.954	12.24
879.242	-14.54
879.53	3.84
879.817	6.71
880.105	-3.34
880.392	0.43
880.68	-71.71
880.967	-11.54
881.255	22.04
881.542	2.57
881.83	-14.75
882.117	-17.21
882.404	17.11
882.691	4.05
882.978	14.2
883.265	9.37
883.552	3.24
883.839	-2.65
884.126	-3.6
884.413	14.89
884.699	19.86
884.986	7.31
885.273	6.31
885.559	6.31
885.846	6.31
