Data from 433_crown_Reflection__3__115.txt Node

Date: Tue Dec 12 19:22:32 CST 2023
User: ToomeyLab
Spectrometer: FLMS14357
Trigger mode: 0
Integration Time (sec): 1.000000E-2
Scans to average: 100
Electric dark correction enabled: true
Nonlinearity correction enabled: false
Boxcar width: 0
XAxis mode: Wavelengths
Number of Pixels in Spectrum: 2048
>>>>>Begin Spectral Data<<<<<
189.047	56.52
189.435	56.52
189.823	56.52
190.211	193.25
190.599	150.44
190.987	67.86
191.375	194.91
191.763	424.13
192.151	140.1
192.538	-111.07
192.926	520.19
193.314	67.05
193.702	78.32
194.089	56.26
194.477	751.54
194.864	109.17
195.252	283.1
195.639	445.04
196.027	-69.85
196.414	-8.39
196.801	-6966.07
197.189	39.52
197.576	25.83
197.963	49.29
198.351	2.21
198.738	-22.26
199.125	0.03
199.512	-17.29
199.899	10.39
200.286	38.22
200.673	-50.15
201.06	-60.35
201.447	-156.22
201.833	-93.84
202.22	-37.8
202.607	-195.31
202.994	20.25
203.38	-10.88
203.767	-33.9
204.154	-9.87
204.54	-0.41
204.927	-60.64
205.313	12.37
205.699	1.64
206.086	-0.79
206.472	21.15
206.858	21.87
207.245	7.33
207.631	-0.43
208.017	28.09
208.403	-19.31
208.789	35.98
209.175	-44.81
209.561	19.94
209.947	-46.99
210.333	55.36
210.719	-5.53
211.105	-51.75
211.491	14.35
211.876	15.09
212.262	11.77
212.648	-74.98
213.034	-37.16
213.419	-32.27
213.805	-6.07
214.19	32.29
214.576	20.37
214.961	-5.06
215.346	2.87
215.732	29.32
216.117	9.86
216.502	-21.3
216.888	-33.62
217.273	-23.54
217.658	-48.09
218.043	39.28
218.428	12.51
218.813	-11.45
219.198	-38.15
219.583	10.7
219.968	-6.61
220.353	-18.51
220.738	18.55
221.122	-9.91
221.507	-27.35
221.892	-24.81
222.276	22.73
222.661	-1.51
223.046	-5.14
223.43	1.18
223.815	-13.73
224.199	19.27
224.583	-0.32
224.968	-6.58
225.352	-11.86
225.736	14.53
226.121	-1.85
226.505	1.5
226.889	-5.51
227.273	5.6
227.657	7.27
228.041	8.61
228.425	2.48
228.809	7.67
229.193	1.1
229.577	7.07
229.961	5.56
230.344	7.48
230.728	6.61
231.112	7.31
231.495	7.23
231.879	7.72
232.263	6.57
232.646	5.88
233.03	6.81
233.413	4.4
233.797	5.16
234.18	3.91
234.563	2.28
234.946	7.72
235.33	7.71
235.713	6.09
236.096	5.14
236.479	5.16
236.862	5.89
237.245	6.3
237.628	7.22
238.011	5.43
238.394	5.92
238.777	7.02
239.16	5.91
239.543	5.89
239.925	6.73
240.308	7.66
240.691	6.7
241.073	6.96
241.456	6.28
241.838	5.95
242.221	6.66
242.603	7.47
242.986	6.49
243.368	6.63
243.75	6.4
244.133	6.76
244.515	6.87
244.897	6.91
245.279	7.12
245.661	5.32
246.043	5.33
246.425	7.28
246.807	5.13
247.189	6.65
247.571	7.07
247.953	6.34
248.335	6.48
248.717	6.28
249.098	6.39
249.48	6.23
249.862	6.07
250.243	5.78
250.625	7.33
251.006	6.27
251.388	6.39
251.769	6.52
252.151	5.32
252.532	6.05
252.913	6.03
253.295	6.69
253.676	5.69
254.057	5.87
254.438	6.44
254.819	5.64
255.2	6.91
255.581	5.76
255.962	4.32
256.343	6.1
256.724	6.7
257.105	5.29
257.486	5.36
257.867	4.87
258.247	5.15
258.628	6.16
259.009	5.33
259.389	5.63
259.77	6.32
260.15	5.99
260.531	5.8
260.911	6.07
261.292	5.56
261.672	5.75
262.052	5.94
262.432	5.82
262.813	5.76
263.193	5.94
263.573	5.58
263.953	7.07
264.333	6.33
264.713	5.87
265.093	5.46
265.473	6.66
265.853	4.53
266.233	4.77
266.612	5.85
266.992	5.97
267.372	5.79
267.752	6.13
268.131	5.14
268.511	5.57
268.89	4.71
269.27	5.39
269.649	5.19
270.029	5.11
270.408	5.32
270.787	5.5
271.167	5.56
271.546	5.42
271.925	6.07
272.304	6.31
272.683	4.89
273.062	5.32
273.441	5.73
273.82	4.61
274.199	5.17
274.578	5.26
274.957	5.29
275.336	5.33
275.715	5.56
276.093	5.15
276.472	5.57
276.851	5.88
277.229	4.16
277.608	5.47
277.986	4.41
278.365	5.07
278.743	5.13
279.122	5.94
279.5	4.86
279.878	4.4
280.257	4.9
280.635	5.07
281.013	5.06
281.391	4.85
281.769	5.43
282.147	5.07
282.525	4.54
282.903	5.36
283.281	4.98
283.659	5.31
284.037	5.7
284.415	5.11
284.792	5.65
285.17	5.38
285.548	5.35
285.925	4.93
286.303	5.25
286.68	5.08
287.058	5.22
287.435	5.36
287.813	4.98
288.19	4.94
288.567	4.65
288.945	5.43
289.322	4.46
289.699	4.72
290.076	5.26
290.453	4.84
290.83	4.93
291.207	5.58
291.584	5.01
291.961	5.03
292.338	5.53
292.715	4.84
293.092	5.03
293.469	4.52
293.845	5.45
294.222	4.66
294.599	4.7
294.975	5.13
295.352	5.26
295.728	5.15
296.105	4.89
296.481	5.5
296.858	5.39
297.234	5.65
297.61	4.94
297.986	5.36
298.363	5.27
298.739	5.05
299.115	4.81
299.491	4.71
299.867	5.02
300.243	4.75
300.619	5.04
300.995	5.46
301.371	5.07
301.746	4.81
302.122	5.27
302.498	5.21
302.874	4.66
303.249	5.07
303.625	4.86
304	5.06
304.376	5.4
304.751	4.93
305.127	5.06
305.502	5.09
305.878	4.79
306.253	4.88
306.628	4.17
307.003	4.97
307.378	5.32
307.754	5.29
308.129	4.72
308.504	5.48
308.879	4.69
309.254	4.99
309.629	4.71
310.003	5.6
310.378	4.99
310.753	5.22
311.128	5.54
311.502	4.91
311.877	4.73
312.252	4.15
312.626	5.2
313.001	4.83
313.375	4.43
313.75	5.11
314.124	4.9
314.498	4.75
314.873	4.45
315.247	5.17
315.621	4.8
315.995	5.37
316.369	4.79
316.743	4.59
317.117	4.58
317.491	4.46
317.865	4.66
318.239	4.72
318.613	4.73
318.987	4.73
319.361	4.5
319.734	4.56
320.108	4.9
320.482	5.16
320.855	4.72
321.229	5.15
321.602	4.43
321.976	4.56
322.349	5.49
322.723	4.49
323.096	4.81
323.469	4.76
323.843	5.19
324.216	4.95
324.589	4.88
324.962	5.07
325.335	4.93
325.708	4.35
326.081	4.73
326.454	4.87
326.827	4.99
327.2	4.83
327.573	4.88
327.945	4.91
328.318	5.18
328.691	4.27
329.063	4.84
329.436	5.46
329.809	4.85
330.181	4.6
330.553	4.68
330.926	5.11
331.298	4.91
331.671	4.78
332.043	4.6
332.415	4.42
332.787	4.43
333.159	4.71
333.532	4.36
333.904	4.69
334.276	5.31
334.648	4.47
335.02	4.48
335.391	4.71
335.763	4.56
336.135	4.76
336.507	5.01
336.879	4.45
337.25	4.51
337.622	4.56
337.993	4.73
338.365	4.54
338.736	5.17
339.108	4.57
339.479	5.34
339.851	4.92
340.222	4.43
340.593	5.15
340.964	5.13
341.336	4.88
341.707	4.23
342.078	4.42
342.449	5.14
342.82	5.09
343.191	5
343.562	4.9
343.933	5.33
344.303	4.65
344.674	5.22
345.045	4.89
345.416	5.51
345.786	4.54
346.157	4.93
346.527	4.98
346.898	4.54
347.268	5.25
347.639	5.15
348.009	4.83
348.38	5.1
348.75	5.48
349.12	4.84
349.49	4.48
349.861	5.31
350.231	4.81
350.601	5.38
350.971	5.04
351.341	4.8
351.711	5.35
352.081	4.93
352.45	5.01
352.82	5.14
353.19	4.79
353.56	4.76
353.929	4.81
354.299	4.65
354.669	4.79
355.038	4.02
355.408	4.91
355.777	5.04
356.147	4.89
356.516	4.78
356.885	4.91
357.254	5.16
357.624	4.69
357.993	4.64
358.362	4.87
358.731	5.3
359.1	4.73
359.469	4.57
359.838	5.27
360.207	4.74
360.576	5.37
360.945	5.17
361.314	4.79
361.682	5.03
362.051	4.89
362.42	5.07
362.788	5.05
363.157	5.45
363.525	5.29
363.894	4.9
364.262	4.94
364.631	5.13
364.999	5.11
365.367	5.13
365.735	4.89
366.104	4.96
366.472	4.74
366.84	5.05
367.208	5.24
367.576	4.9
367.944	5.24
368.312	5.28
368.68	5.22
369.048	5.54
369.416	4.95
369.783	5.34
370.151	5.19
370.519	4.83
370.886	5.35
371.254	4.97
371.621	5.17
371.989	4.87
372.356	5.12
372.724	5.28
373.091	4.85
373.458	4.88
373.826	5.16
374.193	4.76
374.56	5.31
374.927	5.28
375.294	5.01
375.661	5.61
376.028	5.2
376.395	5.44
376.762	5.48
377.129	5.22
377.496	5
377.863	5.03
378.229	5.27
378.596	4.95
378.963	5.49
379.329	5.05
379.696	5.03
380.062	5.47
380.429	5.13
380.795	5.42
381.161	5.4
381.528	5.06
381.894	5.41
382.26	4.9
382.626	5.37
382.993	5.21
383.359	4.94
383.725	4.93
384.091	5.26
384.457	5.23
384.823	5.17
385.188	5.02
385.554	5.21
385.92	5.33
386.286	5.58
386.651	5.71
387.017	5.46
387.383	5.27
387.748	5.55
388.114	5.36
388.479	5.43
388.845	5.3
389.21	5.43
389.575	5.1
389.94	5.32
390.306	5.2
390.671	5.25
391.036	5.39
391.401	5.67
391.766	5.43
392.131	5.24
392.496	5.5
392.861	5.12
393.226	5.49
393.591	5.48
393.956	5.29
394.32	5.41
394.685	5.45
395.05	5.08
395.414	5.4
395.779	5.42
396.143	5.47
396.508	5.33
396.872	5.43
397.236	5.31
397.601	5.38
397.965	5.12
398.329	5.28
398.694	5.22
399.058	5.5
399.422	5.27
399.786	5.1
400.15	5.11
400.514	5.56
400.878	5.47
401.242	5.64
401.605	5.81
401.969	5.47
402.333	5.51
402.697	5.45
403.06	5.07
403.424	5.51
403.787	4.98
404.151	5.55
404.514	5.15
404.878	5.24
405.241	5.73
405.604	5.35
405.968	5.15
406.331	5.48
406.694	5.61
407.057	5.25
407.42	5.4
407.783	5.39
408.146	5.29
408.509	5.33
408.872	5.25
409.235	5.36
409.598	5.22
409.961	5.46
410.323	5.49
410.686	5.25
411.049	5.4
411.411	5.68
411.774	5.28
412.136	5.75
412.499	5.47
412.861	5.42
413.223	5.6
413.586	5.32
413.948	5.42
414.31	5.55
414.672	5.74
415.035	5.45
415.397	5.49
415.759	5.54
416.121	5.4
416.483	5.45
416.845	5.42
417.206	5.61
417.568	5.56
417.93	5.8
418.292	5.45
418.653	5.48
419.015	5.45
419.377	5.39
419.738	5.37
420.1	5.5
420.461	5.48
420.822	5.48
421.184	5.46
421.545	5.59
421.906	5.49
422.267	5.38
422.629	5.42
422.99	5.45
423.351	5.4
423.712	5.41
424.073	5.58
424.434	5.58
424.795	5.53
425.155	5.44
425.516	5.28
425.877	5.35
426.238	5.57
426.598	5.37
426.959	5.47
427.32	5.41
427.68	5.5
428.041	5.58
428.401	5.48
428.761	5.45
429.122	5.56
429.482	5.78
429.842	5.69
430.202	5.43
430.563	5.73
430.923	5.76
431.283	5.41
431.643	5.67
432.003	5.48
432.363	5.5
432.722	5.47
433.082	5.55
433.442	5.63
433.802	5.6
434.161	5.54
434.521	5.71
434.881	5.64
435.24	5.5
435.6	5.53
435.959	5.6
436.319	5.52
436.678	5.61
437.037	5.5
437.396	5.49
437.756	5.61
438.115	5.69
438.474	5.67
438.833	5.83
439.192	5.73
439.551	5.7
439.91	5.5
440.269	5.49
440.628	5.59
440.987	5.31
441.345	5.63
441.704	5.51
442.063	5.64
442.421	5.63
442.78	5.62
443.138	5.54
443.497	5.53
443.855	5.52
444.214	5.69
444.572	5.84
444.93	5.63
445.288	5.43
445.647	5.7
446.005	5.64
446.363	5.43
446.721	5.47
447.079	5.6
447.437	5.44
447.795	5.63
448.153	5.57
448.51	5.59
448.868	5.74
449.226	5.67
449.584	5.55
449.941	5.57
450.299	5.61
450.656	5.52
451.014	5.55
451.371	5.57
451.729	5.79
452.086	5.64
452.443	5.77
452.801	5.8
453.158	5.59
453.515	5.8
453.872	5.71
454.229	5.71
454.586	5.48
454.943	5.68
455.3	5.56
455.657	5.6
456.014	5.88
456.371	5.71
456.727	5.64
457.084	5.67
457.441	5.84
457.797	5.68
458.154	5.8
458.51	5.51
458.867	5.81
459.223	5.73
459.58	5.67
459.936	5.47
460.292	5.6
460.648	5.53
461.005	5.56
461.361	5.62
461.717	5.68
462.073	5.59
462.429	5.6
462.785	5.6
463.141	5.56
463.496	5.64
463.852	5.82
464.208	5.74
464.564	5.78
464.919	5.9
465.275	5.72
465.631	5.96
465.986	5.59
466.342	5.59
466.697	5.8
467.052	5.94
467.408	5.71
467.763	5.84
468.118	5.66
468.473	5.88
468.829	5.8
469.184	5.69
469.539	5.72
469.894	5.74
470.249	5.88
470.603	5.69
470.958	5.64
471.313	5.93
471.668	5.66
472.023	5.77
472.377	5.43
472.732	5.81
473.086	5.78
473.441	5.87
473.795	5.88
474.15	5.95
474.504	5.7
474.859	5.81
475.213	5.65
475.567	5.75
475.921	5.71
476.275	5.76
476.63	5.86
476.984	5.88
477.338	5.63
477.692	5.71
478.045	5.75
478.399	5.72
478.753	5.67
479.107	5.76
479.461	5.73
479.814	5.93
480.168	5.6
480.521	5.63
480.875	5.79
481.228	5.79
481.582	5.64
481.935	5.74
482.289	5.82
482.642	5.84
482.995	5.58
483.348	5.68
483.701	5.87
484.055	5.68
484.408	5.6
484.761	5.64
485.114	5.5
485.466	5.44
485.819	5.42
486.172	5.45
486.525	5.46
486.878	5.5
487.23	5.51
487.583	5.56
487.936	5.65
488.288	5.54
488.641	5.63
488.993	5.64
489.345	5.56
489.698	5.51
490.05	5.5
490.402	5.6
490.754	5.58
491.107	5.61
491.459	5.74
491.811	5.73
492.163	5.6
492.515	5.74
492.866	5.64
493.218	5.62
493.57	5.61
493.922	5.5
494.274	5.64
494.625	5.65
494.977	5.77
495.328	5.82
495.68	5.66
496.031	5.87
496.383	5.76
496.734	5.78
497.086	5.73
497.437	5.84
497.788	5.76
498.139	5.79
498.49	5.87
498.842	5.67
499.193	5.82
499.544	5.85
499.894	5.81
500.245	5.88
500.596	5.75
500.947	5.84
501.298	5.84
501.648	5.82
501.999	5.76
502.35	5.78
502.7	5.81
503.051	5.81
503.401	6.07
503.752	6.02
504.102	5.8
504.452	5.89
504.803	5.87
505.153	6.01
505.503	5.9
505.853	6.04
506.203	5.77
506.553	5.71
506.903	5.95
507.253	5.84
507.603	5.93
507.953	5.87
508.303	5.91
508.652	5.79
509.002	5.85
509.352	5.78
509.701	5.97
510.051	5.94
510.4	5.81
510.75	5.81
511.099	5.81
511.449	5.83
511.798	5.87
512.147	5.92
512.496	6
512.846	5.88
513.195	5.74
513.544	5.85
513.893	5.88
514.242	5.85
514.591	5.84
514.939	5.85
515.288	5.83
515.637	5.73
515.986	5.82
516.334	5.99
516.683	5.85
517.032	5.85
517.38	5.76
517.729	5.89
518.077	5.79
518.426	5.86
518.774	5.92
519.122	5.92
519.47	5.83
519.819	5.62
520.167	5.74
520.515	5.73
520.863	5.79
521.211	5.74
521.559	5.81
521.907	5.8
522.255	5.88
522.602	5.87
522.95	5.88
523.298	5.76
523.645	6.03
523.993	5.92
524.341	5.91
524.688	5.85
525.036	5.95
525.383	5.82
525.73	5.85
526.078	5.89
526.425	5.78
526.772	5.76
527.119	5.82
527.466	5.93
527.814	5.72
528.161	5.85
528.508	5.82
528.854	5.87
529.201	5.76
529.548	5.81
529.895	5.75
530.242	5.6
530.588	5.64
530.935	5.63
531.282	5.67
531.628	5.73
531.975	5.7
532.321	5.74
532.667	5.73
533.014	5.79
533.36	5.81
533.706	5.76
534.052	5.8
534.399	5.9
534.745	5.79
535.091	5.73
535.437	5.81
535.783	5.74
536.129	5.83
536.474	5.83
536.82	5.89
537.166	5.99
537.512	5.94
537.857	5.77
538.203	5.9
538.549	5.82
538.894	5.91
539.239	5.83
539.585	5.84
539.93	6.02
540.276	5.9
540.621	5.88
540.966	5.96
541.311	5.93
541.656	6
542.001	5.93
542.346	5.94
542.691	5.84
543.036	5.72
543.381	5.69
543.726	5.76
544.071	5.72
544.415	5.74
544.76	5.77
545.105	5.83
545.449	5.89
545.794	6
546.138	5.8
546.483	5.91
546.827	5.9
547.171	5.97
547.516	5.95
547.86	6.05
548.204	5.96
548.548	5.96
548.892	5.99
549.236	5.99
549.58	6
549.924	5.97
550.268	5.97
550.612	5.92
550.956	5.98
551.3	6.17
551.643	6.16
551.987	6.06
552.33	6.08
552.674	6.14
553.017	6.18
553.361	6.17
553.704	6.07
554.048	6.02
554.391	5.99
554.734	5.99
555.077	6.07
555.42	5.95
555.764	6.03
556.107	6.06
556.45	5.86
556.793	5.97
557.135	5.96
557.478	5.98
557.821	6.02
558.164	6
558.507	5.94
558.849	6.1
559.192	6.16
559.534	6.01
559.877	6.16
560.219	6.19
560.562	6.07
560.904	5.97
561.246	5.94
561.589	6.2
561.931	6.09
562.273	5.95
562.615	6.03
562.957	5.91
563.299	5.97
563.641	6.12
563.983	5.94
564.325	6.06
564.667	6
565.008	5.89
565.35	5.92
565.692	6.24
566.033	6.11
566.375	5.99
566.716	5.86
567.058	6.07
567.399	5.99
567.741	5.83
568.082	6.03
568.423	6.1
568.764	5.89
569.105	6.03
569.447	6.23
569.788	6.08
570.129	5.89
570.47	5.89
570.811	6.19
571.151	6.07
571.492	6.23
571.833	6.09
572.174	6.28
572.514	6.09
572.855	6.06
573.195	6.06
573.536	5.89
573.876	6.12
574.217	6.16
574.557	6.06
574.898	5.95
575.238	5.95
575.578	6.07
575.918	5.96
576.258	6.12
576.598	5.91
576.938	6.14
577.278	6.07
577.618	6.33
577.958	6.15
578.298	6.16
578.638	5.91
578.977	6.13
579.317	6.1
579.657	6.12
579.996	6.19
580.336	6.19
580.675	6.22
581.014	6.13
581.354	6.1
581.693	6.1
582.032	5.83
582.372	6.14
582.711	6.2
583.05	6.19
583.389	6.19
583.728	6.28
584.067	6.06
584.406	6.37
584.745	6.36
585.083	5.99
585.422	6.09
585.761	6.13
586.1	6.17
586.438	6.53
586.777	5.93
587.115	6
587.454	6.44
587.792	5.91
588.13	6.27
588.469	6.38
588.807	5.96
589.145	6.17
589.483	5.99
589.821	6.36
590.159	5.74
590.497	6.13
590.835	6.01
591.173	5.92
591.511	6.07
591.849	6.13
592.187	6.22
592.524	5.84
592.862	6.12
593.2	5.95
593.537	6.03
593.875	6.38
594.212	6.14
594.55	6.2
594.887	6.61
595.224	6.13
595.561	6.54
595.899	5.95
596.236	6.34
596.573	6.26
596.91	6.46
597.247	6.08
597.584	6.33
597.921	6.2
598.258	6.38
598.594	6.27
598.931	6.28
599.268	5.92
599.604	6
599.941	6.12
600.277	6.11
600.614	6.39
600.95	6.18
601.287	6.16
601.623	6.15
601.959	6.41
602.296	6.36
602.632	6.03
602.968	6.16
603.304	6.01
603.64	6.32
603.976	5.97
604.312	6.29
604.648	6.32
604.984	6.27
605.319	6.14
605.655	6.15
605.991	6.2
606.326	6.14
606.662	6.09
606.998	6.1
607.333	6.08
607.668	6.14
608.004	6.27
608.339	6.37
608.674	6.42
609.01	6.29
609.345	6.32
609.68	6.4
610.015	5.94
610.35	6.19
610.685	6
611.02	6.34
611.355	6.16
611.689	6.26
612.024	6.03
612.359	6.4
612.694	6.26
613.028	6.22
613.363	6.22
613.697	6.27
614.032	6.42
614.366	6.22
614.7	6.22
615.035	6.12
615.369	6.07
615.703	6.18
616.037	6.22
616.371	6.25
616.705	6.29
617.039	6.23
617.373	6.25
617.707	6.26
618.041	6.11
618.375	5.85
618.709	5.89
619.042	6.25
619.376	6.07
619.71	6.34
620.043	6.61
620.377	6.24
620.71	5.79
621.043	6.03
621.377	5.87
621.71	6.4
622.043	6.31
622.376	6.19
622.709	6.51
623.043	6.24
623.376	6.39
623.709	6.31
624.041	6.47
624.374	6.05
624.707	6.08
625.04	6.05
625.373	6.72
625.705	6.36
626.038	6.27
626.37	6.24
626.703	6.43
627.035	5.92
627.368	6.34
627.7	6.12
628.032	6.32
628.365	6.29
628.697	6.39
629.029	6.4
629.361	5.97
629.693	6.05
630.025	5.86
630.357	6.23
630.689	6.35
631.021	6.46
631.353	6.33
631.684	6.22
632.016	6.44
632.348	6.45
632.679	5.9
633.011	6.95
633.342	6.63
633.674	6.53
634.005	6.45
634.336	6.54
634.668	6.58
634.999	6.59
635.33	6.43
635.661	6.22
635.992	6.57
636.323	6.05
636.654	6.18
636.985	6.05
637.316	6.31
637.647	6.39
637.977	6.38
638.308	6.48
638.639	6.58
638.969	6.41
639.3	6.2
639.63	6.82
639.961	6.33
640.291	6.09
640.622	6.16
640.952	6.32
641.282	5.96
641.612	6.43
641.943	6.37
642.273	6.76
642.603	6.97
642.933	6.05
643.263	6.13
643.592	6.76
643.922	6.2
644.252	6.47
644.582	5.94
644.911	6.48
645.241	6.32
645.571	6.78
645.9	6.49
646.23	6.22
646.559	6.51
646.888	6.44
647.218	6.55
647.547	6.13
647.876	6.35
648.205	6.57
648.534	6.62
648.863	6.55
649.192	7.53
649.521	7.02
649.85	5.75
650.179	6.77
650.508	6.61
650.837	6.38
651.165	6.48
651.494	6.27
651.822	6.47
652.151	6.85
652.479	6.38
652.808	7.05
653.136	6.68
653.465	6.43
653.793	6.58
654.121	6.92
654.449	6.39
654.777	6.54
655.105	6.82
655.433	6.69
655.761	6.71
656.089	6.46
656.417	6.67
656.745	6.65
657.073	6.74
657.4	7.18
657.728	5.82
658.056	6.99
658.383	6.07
658.711	6.41
659.038	6.2
659.365	6.53
659.693	6.11
660.02	6.39
660.347	6.83
660.674	6.26
661.001	6.63
661.329	6.7
661.656	6.28
661.982	6.74
662.309	7.08
662.636	6.63
662.963	6.74
663.29	6.68
663.616	6.76
663.943	6.62
664.27	6.65
664.596	6.86
664.923	7.18
665.249	6.51
665.576	6.78
665.902	6.64
666.228	6.46
666.554	6.67
666.881	6.17
667.207	7.01
667.533	6.79
667.859	6.31
668.185	6.97
668.511	6.74
668.837	6.48
669.162	7.34
669.488	6.63
669.814	7.3
670.139	6.82
670.465	6.15
670.791	6.49
671.116	6.63
671.442	6.77
671.767	6.84
672.092	7.41
672.418	6.8
672.743	7.25
673.068	6.36
673.393	6.74
673.718	6.63
674.043	6.27
674.368	5.38
674.693	6.15
675.018	6
675.343	6.87
675.667	6.45
675.992	6.92
676.317	6.59
676.641	6.53
676.966	7.17
677.29	6.58
677.615	6.46
677.939	7.08
678.264	7.53
678.588	7.42
678.912	6.79
679.236	6.76
679.56	6.95
679.885	6.65
680.209	7.21
680.532	7.3
680.856	6.31
681.18	6.99
681.504	6.78
681.828	6.53
682.152	6.57
682.475	6.76
682.799	7.09
683.122	6.87
683.446	6.78
683.769	7.86
684.093	6.66
684.416	6.85
684.739	7.32
685.062	6.87
685.386	6.92
685.709	7.15
686.032	7.4
686.355	6.55
686.678	7.13
687.001	7.1
687.324	7.01
687.646	7.28
687.969	6.72
688.292	7.09
688.614	7.17
688.937	7.28
689.26	7.23
689.582	6.18
689.904	7.42
690.227	7.24
690.549	7.55
690.871	7.18
691.194	6.92
691.516	7.39
691.838	6.24
692.16	7.11
692.482	6.83
692.804	7.28
693.126	6.88
693.448	7.05
693.769	7.17
694.091	6.91
694.413	7.51
694.735	6.78
695.056	6.69
695.378	7.93
695.699	7.78
696.021	5.5
696.342	6.38
696.663	6.69
696.984	6.09
697.306	6.09
697.627	5.96
697.948	7.12
698.269	7.89
698.59	7.41
698.911	7.64
699.232	6.23
699.553	7.03
699.873	8.12
700.194	7.39
700.515	6.54
700.835	6.99
701.156	6.99
701.477	7.32
701.797	7.38
702.117	7.33
702.438	7.52
702.758	6.75
703.078	7.39
703.398	6.75
703.719	6.57
704.039	7.7
704.359	6.4
704.679	8.32
704.999	8.07
705.319	7.28
705.638	7.76
705.958	7.4
706.278	7.86
706.597	7.4
706.917	6.99
707.237	7.13
707.556	8.28
707.876	6.75
708.195	7.56
708.514	6.77
708.834	7.72
709.153	7.83
709.472	7.71
709.791	7.71
710.11	8.03
710.429	7.45
710.748	6.81
711.067	8.35
711.386	6.24
711.705	7.57
712.023	6.7
712.342	7.99
712.661	7.32
712.979	8.65
713.298	7.44
713.616	7.61
713.935	6.86
714.253	6.4
714.572	7.75
714.89	7.06
715.208	8.13
715.526	7.6
715.844	7.31
716.162	6.98
716.48	7.3
716.798	6.96
717.116	8.05
717.434	7.69
717.752	6.99
718.069	8.15
718.387	6.97
718.705	7.62
719.022	7.95
719.34	7.85
719.657	7.6
719.975	8.3
720.292	8.14
720.609	8.23
720.927	6.28
721.244	6.86
721.561	8.33
721.878	8.12
722.195	7.36
722.512	6.85
722.829	7.82
723.146	6.35
723.463	7.65
723.779	6.74
724.096	8.49
724.413	6.82
724.729	7.09
725.046	7.28
725.362	8.31
725.679	7.29
725.995	7.76
726.311	6.87
726.628	7.02
726.944	8.09
727.26	7.67
727.576	6.35
727.892	6.38
728.208	6.83
728.524	8.16
728.84	7.15
729.156	7.62
729.472	7.95
729.787	8.11
730.103	9.27
730.419	6.36
730.734	7.36
731.05	8.98
731.365	8.46
731.681	8.44
731.996	7.56
732.311	6.63
732.626	7.66
732.942	7.11
733.257	6.54
733.572	8.92
733.887	8.26
734.202	7.07
734.517	5.59
734.832	8.88
735.146	7.19
735.461	8.82
735.776	7.64
736.091	6.28
736.405	7.37
736.72	6.76
737.034	8.32
737.349	7.24
737.663	8.56
737.977	6.34
738.292	7.59
738.606	7.87
738.92	6.3
739.234	7.25
739.548	7.64
739.862	7.52
740.176	7.29
740.49	7.51
740.804	8.2
741.117	7.32
741.431	8.39
741.745	9
742.058	6.22
742.372	6.67
742.685	7.91
742.999	7.52
743.312	5.8
743.626	8.64
743.939	9.14
744.252	6.25
744.565	7.29
744.878	9.26
745.191	7.21
745.505	8.71
745.817	9.53
746.13	7.92
746.443	9.11
746.756	8.03
747.069	8.33
747.381	6.22
747.694	6.51
748.007	8.23
748.319	7.31
748.632	8.99
748.944	4.79
749.256	8.79
749.569	8.18
749.881	7.4
750.193	6.66
750.505	8.14
750.817	6.74
751.129	7.76
751.441	7.86
751.753	10.87
752.065	7.73
752.377	6.74
752.689	8.32
753	6.03
753.312	7.97
753.624	8.89
753.935	8.69
754.247	7.93
754.558	8.39
754.869	7.08
755.181	9.23
755.492	8.56
755.803	9.2
756.114	7.69
756.425	8.17
756.736	7.68
757.047	6.39
757.358	8.32
757.669	9.97
757.98	9.28
758.291	5.62
758.601	7.81
758.912	5.99
759.223	7.75
759.533	7.83
759.844	9.29
760.154	10.06
760.464	6.35
760.775	9.25
761.085	7.27
761.395	9.29
761.705	8.48
762.016	9.19
762.326	8.09
762.636	8.35
762.945	8.41
763.255	8.99
763.565	7.35
763.875	8.73
764.185	7.95
764.494	7.88
764.804	8.11
765.113	8.42
765.423	8.26
765.732	7.65
766.042	7.69
766.351	8.19
766.66	9.21
766.97	8.19
767.279	7.76
767.588	8.17
767.897	10.04
768.206	8.53
768.515	9.3
768.824	9.19
769.133	10.33
769.441	7.72
769.75	6.83
770.059	8.21
770.367	8.89
770.676	9.35
770.984	10.12
771.293	9.69
771.601	6.19
771.91	9.49
772.218	9.59
772.526	6.05
772.834	5.41
773.142	10.62
773.45	8.02
773.758	7.93
774.066	9.96
774.374	5.98
774.682	6.84
774.99	2.25
775.298	4.53
775.605	9.74
775.913	10.05
776.22	5.83
776.528	8.21
776.835	6.75
777.143	7.9
777.45	6.08
777.757	7.05
778.065	9.86
778.372	8.97
778.679	3.77
778.986	9.82
779.293	8.89
779.6	9.84
779.907	9.51
780.214	9.39
780.52	6.39
780.827	7.66
781.134	9.15
781.44	8.52
781.747	3.36
782.053	9.04
782.36	7.64
782.666	5.06
782.973	7.17
783.279	4.75
783.585	5.48
783.891	12.32
784.197	11.61
784.503	9.13
784.809	8.36
785.115	7.26
785.421	11.04
785.727	7.7
786.033	6.27
786.339	6.51
786.644	5.27
786.95	10.87
787.255	12.67
787.561	7.42
787.866	9.37
788.172	7.1
788.477	13.27
788.782	11.04
789.088	12.06
789.393	9.66
789.698	7.44
790.003	11.67
790.308	6.18
790.613	5.42
790.918	9.27
791.223	8.68
791.527	9.61
791.832	8.59
792.137	6.1
792.441	12.51
792.746	9.39
793.05	9.45
793.355	11.65
793.659	12.21
793.963	8.66
794.268	1.86
794.572	7.87
794.876	6.67
795.18	9.12
795.484	3.26
795.788	8.72
796.092	2.44
796.396	7.8
796.7	5.63
797.004	13.25
797.307	5.65
797.611	0.33
797.915	7.7
798.218	3.01
798.522	9.38
798.825	11.98
799.128	7.26
799.432	7.91
799.735	7.86
800.038	13.88
800.341	10.81
800.644	8.11
800.947	10.9
801.25	6.98
801.553	0.83
801.856	3.5
802.159	9.9
802.462	14.52
802.764	9.06
803.067	7.58
803.37	8.7
803.672	9.49
803.975	1.98
804.277	10.25
804.579	2.13
804.882	1.09
805.184	5.35
805.486	8.73
805.788	7.31
806.09	5.86
806.392	5.77
806.694	9.23
806.996	2.29
807.298	5.71
807.6	10.48
807.902	4.5
808.203	6.72
808.505	8.33
808.807	5.93
809.108	3.39
809.409	6.8
809.711	-0.32
810.012	8.71
810.313	9.5
810.615	8.65
810.916	8.56
811.217	9.38
811.518	1.34
811.819	9.08
812.12	11.22
812.421	8.52
812.722	8.66
813.023	10.51
813.323	5.1
813.624	12.17
813.925	12.25
814.225	5.6
814.526	7.78
814.826	14.3
815.126	10.61
815.427	0.39
815.727	0.84
816.027	11.3
816.327	5.69
816.627	14.74
816.927	14.83
817.227	11.48
817.527	11.1
817.827	0.15
818.127	8.71
818.427	-2.84
818.727	-1.33
819.026	10.33
819.326	5.34
819.625	3.21
819.925	10.04
820.224	11.01
820.524	-0.56
820.823	12.12
821.122	7.95
821.421	4.83
821.72	0.44
822.019	5.53
822.318	6.54
822.617	9.21
822.916	5.87
823.215	10.65
823.514	11.03
823.813	10.19
824.111	9.94
824.41	9.81
824.709	12.05
825.007	10.63
825.306	10.58
825.604	10.94
825.902	11.63
826.201	9.46
826.499	9.91
826.797	11.12
827.095	10.71
827.393	11.59
827.691	10.8
827.989	11.24
828.287	11.16
828.585	11.77
828.882	11.03
829.18	11.61
829.478	10.07
829.775	13.16
830.073	7.65
830.37	13.47
830.668	10.4
830.965	12.26
831.263	9.77
831.56	10.34
831.857	7.81
832.154	8.92
832.451	10.34
832.748	7.6
833.045	8.61
833.342	9.99
833.639	6.41
833.936	8.56
834.232	13.41
834.529	9.79
834.826	12
835.122	15.52
835.419	6.95
835.715	4.59
836.012	5.57
836.308	7.76
836.604	8.38
836.901	10.32
837.197	9.51
837.493	8.74
837.789	12.73
838.085	17.55
838.381	8.04
838.677	6.11
838.972	14.99
839.268	2.59
839.564	10.89
839.86	10.74
840.155	5.67
840.451	10.48
840.746	15.77
841.042	3.67
841.337	10.2
841.632	14.71
841.928	12.46
842.223	7.52
842.518	4.93
842.813	10.68
843.108	1.13
843.403	12.14
843.698	12.94
843.993	6.4
844.287	3.21
844.582	8.37
844.877	8.87
845.171	12.4
845.466	0.6
845.761	1.94
846.055	-0.04
846.349	12.35
846.644	15.74
846.938	-2.17
847.232	1.08
847.526	-4.25
847.82	7.14
848.114	19.19
848.408	9.8
848.702	0.43
848.996	24.48
849.29	12.83
849.584	10.84
849.877	1.48
850.171	-11.36
850.465	11.1
850.758	-10.4
851.052	-24.1
851.345	8.53
851.638	1.19
851.932	-17.94
852.225	-22.17
852.518	24.76
852.811	17.09
853.104	-14.17
853.397	7.47
853.69	2.93
853.983	38.01
854.276	4.99
854.569	-7.06
854.861	-2.85
855.154	-5.63
855.447	-5.17
855.739	10.58
856.032	16.1
856.324	28.34
856.616	-2.71
856.909	7.98
857.201	19.54
857.493	-32.94
857.785	7.69
858.077	26.76
858.369	11.25
858.661	6.16
858.953	36.11
859.245	-9.72
859.537	-5.67
859.829	-0.85
860.12	-34.73
860.412	-34.89
860.703	4.35
860.995	-6.46
861.286	-1.42
861.578	-1.07
861.869	11.47
862.16	6.13
862.452	6.01
862.743	-19.51
863.034	26.47
863.325	-2.26
863.616	-11.51
863.907	3.64
864.198	8.61
864.488	15.77
864.779	6.69
865.07	-56.4
865.36	8.26
865.651	-50.01
865.941	-39.27
866.232	-21.21
866.522	12.07
866.813	-47.76
867.103	21.61
867.393	-1.45
867.683	-21.16
867.973	16.81
868.263	-20.63
868.553	33.85
868.843	-14.17
869.133	-1.26
869.423	3.34
869.713	5.89
870.002	-72.79
870.292	23.41
870.582	1.94
870.871	10.38
871.161	41.75
871.45	7.61
871.739	14.23
872.029	-29.96
872.318	-14.59
872.607	0.74
872.896	-1.69
873.185	-57.33
873.474	-21.52
873.763	9.38
874.052	20.03
874.341	15.67
874.63	22.19
874.918	-27.68
875.207	-6.86
875.496	5.45
875.784	-8.65
876.073	-10.15
876.361	19.34
876.649	4.11
876.938	33.58
877.226	-10.7
877.514	-58.43
877.802	7.36
878.09	-4.77
878.378	-3.26
878.666	16.8
878.954	25.67
879.242	-0.61
879.53	14.96
879.817	10.18
880.105	-18.93
880.392	5.79
880.68	-0.92
880.967	23.79
881.255	-8.47
881.542	-44.64
881.83	14.04
882.117	-0.55
882.404	22.09
882.691	-34.08
882.978	-30.98
883.265	12.58
883.552	2.03
883.839	-6.72
884.126	9.95
884.413	-2.17
884.699	5.56
884.986	6.99
885.273	10.04
885.559	10.04
885.846	10.04
