Data from 0264_chest_Reflection__1__154.txt Node

Date: Fri Oct 20 21:51:51 CDT 2023
User: ToomeyLab
Spectrometer: FLMS14357
Trigger mode: 0
Integration Time (sec): 1.000000E-2
Scans to average: 100
Electric dark correction enabled: true
Nonlinearity correction enabled: false
Boxcar width: 0
XAxis mode: Wavelengths
Number of Pixels in Spectrum: 2048
>>>>>Begin Spectral Data<<<<<
189.047	323.23
189.435	323.23
189.823	323.23
190.211	-2.62
190.599	-228.42
190.987	45.19
191.375	161.21
191.763	56.1
192.151	1.7
192.538	46.16
192.926	4.15
193.314	201.87
193.702	20.38
194.089	122.16
194.477	60.62
194.864	396.78
195.252	203.65
195.639	116.96
196.027	109.23
196.414	221.66
196.801	83.05
197.189	-52.39
197.576	359.76
197.963	-2282.29
198.351	45.9
198.738	24.24
199.125	35.67
199.512	23.22
199.899	59.99
200.286	-14.15
200.673	23.48
201.06	32.67
201.447	6.84
201.833	44.73
202.22	31.8
202.607	30.35
202.994	52.81
203.38	16.79
203.767	32.39
204.154	28.24
204.54	56.2
204.927	60.2
205.313	-16.83
205.699	66.52
206.086	20.91
206.472	54.47
206.858	72.87
207.245	8.51
207.631	25.23
208.017	63.58
208.403	37.54
208.789	50.13
209.175	3.34
209.561	23.44
209.947	2.92
210.333	19.06
210.719	13.42
211.105	37.6
211.491	41.57
211.876	21.32
212.262	56.43
212.648	15.31
213.034	21.64
213.419	18.68
213.805	-12.36
214.19	25.07
214.576	8.79
214.961	18.18
215.346	30.08
215.732	27.86
216.117	-25.29
216.502	12.68
216.888	-4.62
217.273	5.28
217.658	19.55
218.043	21.44
218.428	-19.92
218.813	2.28
219.198	12.92
219.583	-4.15
219.968	3.61
220.353	14.82
220.738	25.58
221.122	-1.32
221.507	16.7
221.892	14.09
222.276	10.66
222.661	24.71
223.046	16.53
223.43	11.91
223.815	13.15
224.199	20.41
224.583	1.63
224.968	4.79
225.352	0.25
225.736	7.13
226.121	8.72
226.505	12.76
226.889	10.98
227.273	2.42
227.657	11.12
228.041	12.31
228.425	8.75
228.809	10.65
229.193	8.58
229.577	8.72
229.961	6.23
230.344	6.41
230.728	4.48
231.112	5.9
231.495	5.15
231.879	5.43
232.263	6.13
232.646	5.17
233.03	5.13
233.413	5.29
233.797	5.92
234.18	6.26
234.563	5.83
234.946	7.01
235.33	7.08
235.713	6.68
236.096	6.51
236.479	6.21
236.862	6.21
237.245	6.34
237.628	6.24
238.011	5.93
238.394	5.54
238.777	7.92
239.16	5.84
239.543	6.75
239.925	9.13
240.308	7.12
240.691	5.11
241.073	7.13
241.456	6.43
241.838	5.03
242.221	6.49
242.603	5.31
242.986	5.35
243.368	5.61
243.75	5.02
244.133	4.96
244.515	5.11
244.897	5.13
245.279	5.75
245.661	4.85
246.043	5.75
246.425	5.19
246.807	5.41
247.189	5.87
247.571	6.03
247.953	5.38
248.335	5.61
248.717	5.21
249.098	4.98
249.48	5.11
249.862	5.31
250.243	5.11
250.625	5.41
251.006	5.24
251.388	5.49
251.769	6.23
252.151	5.48
252.532	5.81
252.913	3.98
253.295	5.29
253.676	5.36
254.057	5.56
254.438	5.04
254.819	5.15
255.2	5.1
255.581	5.12
255.962	5.62
256.343	5.35
256.724	4.27
257.105	5.81
257.486	5.91
257.867	5.58
258.247	6.53
258.628	5.29
259.009	5.29
259.389	4.93
259.77	4.33
260.15	5.52
260.531	5.33
260.911	5.38
261.292	4.5
261.672	4.83
262.052	4.77
262.432	4.88
262.813	4.87
263.193	5.01
263.573	4.46
263.953	5.22
264.333	5
264.713	5.6
265.093	5.4
265.473	5.45
265.853	5.19
266.233	5.11
266.612	5.05
266.992	5.18
267.372	5.16
267.752	5.09
268.131	5.4
268.511	4.86
268.89	4.91
269.27	4.47
269.649	4.6
270.029	4.8
270.408	4.95
270.787	5.14
271.167	4.37
271.546	4.85
271.925	5.36
272.304	5.2
272.683	5.04
273.062	5.01
273.441	5.02
273.82	4.95
274.199	4.91
274.578	4.94
274.957	4.9
275.336	4.85
275.715	4.92
276.093	4.92
276.472	4.62
276.851	5.34
277.229	5.16
277.608	4.26
277.986	4.36
278.365	5.61
278.743	5.14
279.122	4.54
279.5	4.6
279.878	4.22
280.257	4.45
280.635	5.17
281.013	4.65
281.391	5.4
281.769	4.97
282.147	4.69
282.525	5.08
282.903	4.62
283.281	4.31
283.659	4.29
284.037	4.54
284.415	4.38
284.792	4.47
285.17	4.82
285.548	4.43
285.925	4.33
286.303	4.55
286.68	4.43
287.058	5.1
287.435	4.79
287.813	4.32
288.19	4.62
288.567	4.79
288.945	4.59
289.322	4.97
289.699	4.38
290.076	5.06
290.453	4.12
290.83	4.33
291.207	4.96
291.584	4.07
291.961	4.51
292.338	4.43
292.715	4.58
293.092	4.48
293.469	4.76
293.845	4.51
294.222	4.84
294.599	4.31
294.975	5.09
295.352	4.53
295.728	5.09
296.105	4.59
296.481	4.87
296.858	4.61
297.234	4.95
297.61	4.22
297.986	4.43
298.363	4.62
298.739	4.77
299.115	4.49
299.491	4.79
299.867	4.68
300.243	4.61
300.619	4.48
300.995	4.46
301.371	4.76
301.746	4.74
302.122	4.77
302.498	4.9
302.874	4.33
303.249	4.88
303.625	4.99
304	5.09
304.376	4.19
304.751	4.06
305.127	4.42
305.502	4.7
305.878	4.79
306.253	4.46
306.628	4.63
307.003	4.88
307.378	4.91
307.754	4.35
308.129	4.59
308.504	4.74
308.879	4.81
309.254	5.27
309.629	4.5
310.003	4.54
310.378	5.39
310.753	4.88
311.128	5.12
311.502	4.62
311.877	4.75
312.252	4.66
312.626	4.82
313.001	4.72
313.375	4.22
313.75	4.63
314.124	4.64
314.498	4.82
314.873	4.17
315.247	5.23
315.621	4.55
315.995	4.95
316.369	4.69
316.743	4.93
317.117	4.84
317.491	4.35
317.865	4.65
318.239	5.33
318.613	4.84
318.987	4.38
319.361	4.58
319.734	4.3
320.108	4.56
320.482	5.13
320.855	4.8
321.229	5.46
321.602	5.17
321.976	5.33
322.349	5.37
322.723	4.86
323.096	4.95
323.469	4.33
323.843	5.05
324.216	4.73
324.589	5.01
324.962	5.3
325.335	4.86
325.708	4.88
326.081	4.76
326.454	4.77
326.827	4.81
327.2	5.09
327.573	5.09
327.945	4.7
328.318	4.79
328.691	4.87
329.063	5.72
329.436	4.44
329.809	4.89
330.181	5.26
330.553	4.99
330.926	4.85
331.298	4.63
331.671	4.32
332.043	4.69
332.415	5.12
332.787	5.11
333.159	4.54
333.532	4.71
333.904	5.29
334.276	4.69
334.648	4.82
335.02	4.94
335.391	4.91
335.763	5.11
336.135	5.02
336.507	5.05
336.879	4.83
337.25	4.66
337.622	4.83
337.993	5.06
338.365	4.79
338.736	4.98
339.108	5.34
339.479	4.95
339.851	5.1
340.222	4.55
340.593	4.26
340.964	4.88
341.336	5.13
341.707	4.69
342.078	4.74
342.449	5.02
342.82	4.71
343.191	5.05
343.562	4.67
343.933	4.88
344.303	5.02
344.674	5.48
345.045	5.15
345.416	5.27
345.786	4.58
346.157	4.99
346.527	5.03
346.898	4.64
347.268	4.84
347.639	5.21
348.009	4.54
348.38	5.09
348.75	5.02
349.12	4.97
349.49	4.62
349.861	5.22
350.231	4.74
350.601	4.3
350.971	5
351.341	4.9
351.711	5.33
352.081	5.08
352.45	5.01
352.82	5.02
353.19	5.32
353.56	5.15
353.929	4.42
354.299	4.8
354.669	5.14
355.038	5.1
355.408	5.06
355.777	5.05
356.147	4.75
356.516	4.79
356.885	4.85
357.254	4.92
357.624	5
357.993	4.66
358.362	5
358.731	5.03
359.1	4.33
359.469	4.95
359.838	5.1
360.207	4.86
360.576	5.05
360.945	4.58
361.314	4.81
361.682	4.94
362.051	4.83
362.42	4.61
362.788	4.97
363.157	4.88
363.525	4.75
363.894	4.92
364.262	4.88
364.631	4.83
364.999	4.91
365.367	5
365.735	4.62
366.104	4.78
366.472	4.76
366.84	4.98
367.208	4.97
367.576	4.88
367.944	4.84
368.312	4.82
368.68	5.32
369.048	4.93
369.416	5.05
369.783	5.16
370.151	5.26
370.519	4.92
370.886	5.36
371.254	5.11
371.621	5.02
371.989	4.76
372.356	5
372.724	5.29
373.091	4.85
373.458	4.5
373.826	5.03
374.193	4.78
374.56	5.21
374.927	5.02
375.294	5.02
375.661	5.29
376.028	5.34
376.395	5.14
376.762	5.17
377.129	5.18
377.496	5.28
377.863	5.07
378.229	4.89
378.596	5.22
378.963	5.19
379.329	5.01
379.696	5.1
380.062	5.09
380.429	4.89
380.795	4.94
381.161	5.06
381.528	5.19
381.894	4.64
382.26	5.28
382.626	5.18
382.993	4.76
383.359	4.93
383.725	5.3
384.091	5.06
384.457	4.95
384.823	5.02
385.188	5.27
385.554	5.15
385.92	4.94
386.286	4.99
386.651	5
387.017	5.15
387.383	4.84
387.748	4.84
388.114	4.87
388.479	5.09
388.845	5.23
389.21	5.13
389.575	4.93
389.94	5.09
390.306	5.21
390.671	5.08
391.036	5.32
391.401	5.16
391.766	4.96
392.131	5.13
392.496	5.28
392.861	5.36
393.226	5.02
393.591	5.43
393.956	5.18
394.32	5.29
394.685	5.22
395.05	5.26
395.414	5.27
395.779	4.93
396.143	4.99
396.508	5.06
396.872	5.18
397.236	5.3
397.601	5.11
397.965	5.08
398.329	4.94
398.694	5.02
399.058	4.88
399.422	5.03
399.786	4.93
400.15	5.16
400.514	5.09
400.878	5.59
401.242	5.32
401.605	5.19
401.969	4.93
402.333	5.01
402.697	5.26
403.06	5.37
403.424	5.24
403.787	5.27
404.151	5.22
404.514	5.43
404.878	5.4
405.241	5.41
405.604	5.06
405.968	5.39
406.331	5.15
406.694	5.05
407.057	5.04
407.42	5.58
407.783	5.17
408.146	5.13
408.509	5.19
408.872	5.42
409.235	5.33
409.598	5.46
409.961	5.3
410.323	5.18
410.686	4.88
411.049	5.23
411.411	5.22
411.774	5.28
412.136	5.23
412.499	5.37
412.861	5.26
413.223	5.43
413.586	5.15
413.948	5.46
414.31	5.49
414.672	5.33
415.035	5.14
415.397	5.51
415.759	5.27
416.121	5.27
416.483	5.35
416.845	5.2
417.206	5.38
417.568	5.32
417.93	5.33
418.292	5.06
418.653	5.37
419.015	5.12
419.377	5.2
419.738	5.29
420.1	5.16
420.461	5.28
420.822	5.22
421.184	5.18
421.545	5.33
421.906	5.2
422.267	5.23
422.629	5.27
422.99	5.18
423.351	5.27
423.712	5.16
424.073	5.28
424.434	5.22
424.795	5.16
425.155	5.22
425.516	5.23
425.877	5.26
426.238	5.13
426.598	5.23
426.959	5.25
427.32	5.27
427.68	5.25
428.041	5.31
428.401	5.33
428.761	5.37
429.122	5.18
429.482	5.21
429.842	5.35
430.202	5.32
430.563	5.48
430.923	5.49
431.283	5.51
431.643	5.57
432.003	5.62
432.363	5.42
432.722	5.49
433.082	5.39
433.442	5.33
433.802	5.5
434.161	5.14
434.521	5.38
434.881	5.3
435.24	5.47
435.6	5.3
435.959	5.41
436.319	5.33
436.678	5.46
437.037	5.37
437.396	5.53
437.756	5.5
438.115	5.36
438.474	5.52
438.833	5.47
439.192	5.4
439.551	5.42
439.91	5.38
440.269	5.39
440.628	5.52
440.987	5.53
441.345	5.39
441.704	5.33
442.063	5.4
442.421	5.33
442.78	5.37
443.138	5.53
443.497	5.4
443.855	5.5
444.214	5.51
444.572	5.37
444.93	5.5
445.288	5.55
445.647	5.6
446.005	5.19
446.363	5.56
446.721	5.53
447.079	5.55
447.437	5.49
447.795	5.26
448.153	5.33
448.51	5.5
448.868	5.41
449.226	5.49
449.584	5.44
449.941	5.39
450.299	5.32
450.656	5.34
451.014	5.49
451.371	5.54
451.729	5.32
452.086	5.49
452.443	5.41
452.801	5.58
453.158	5.56
453.515	5.5
453.872	5.54
454.229	5.61
454.586	5.6
454.943	5.49
455.3	5.51
455.657	5.64
456.014	5.46
456.371	5.52
456.727	5.55
457.084	5.58
457.441	5.58
457.797	5.71
458.154	5.53
458.51	5.55
458.867	5.56
459.223	5.45
459.58	5.51
459.936	5.73
460.292	5.56
460.648	5.57
461.005	5.44
461.361	5.48
461.717	5.37
462.073	5.54
462.429	5.4
462.785	5.49
463.141	5.62
463.496	5.55
463.852	5.63
464.208	5.7
464.564	5.93
464.919	5.63
465.275	5.82
465.631	5.91
465.986	5.83
466.342	5.78
466.697	5.77
467.052	5.75
467.408	5.58
467.763	5.74
468.118	5.95
468.473	5.66
468.829	5.76
469.184	5.71
469.539	5.68
469.894	5.76
470.249	5.77
470.603	5.67
470.958	5.69
471.313	5.89
471.668	5.74
472.023	5.75
472.377	5.72
472.732	5.68
473.086	5.83
473.441	5.87
473.795	5.98
474.15	5.89
474.504	5.57
474.859	5.74
475.213	5.86
475.567	5.86
475.921	5.98
476.275	5.82
476.63	5.78
476.984	5.81
477.338	5.72
477.692	5.76
478.045	5.88
478.399	5.85
478.753	5.83
479.107	5.86
479.461	5.79
479.814	5.92
480.168	5.99
480.521	5.86
480.875	5.85
481.228	5.88
481.582	5.99
481.935	5.66
482.289	5.91
482.642	5.82
482.995	5.8
483.348	5.86
483.701	5.83
484.055	5.79
484.408	5.73
484.761	5.7
485.114	5.57
485.466	5.53
485.819	5.53
486.172	5.43
486.525	5.49
486.878	5.53
487.23	5.57
487.583	5.58
487.936	5.64
488.288	5.7
488.641	5.77
488.993	5.71
489.345	5.65
489.698	5.63
490.05	5.57
490.402	5.58
490.754	5.63
491.107	5.64
491.459	5.83
491.811	5.79
492.163	5.85
492.515	5.85
492.866	5.85
493.218	5.72
493.57	5.69
493.922	5.67
494.274	5.69
494.625	5.67
494.977	5.7
495.328	5.86
495.68	5.97
496.031	5.8
496.383	6.05
496.734	6.03
497.086	6.03
497.437	6.07
497.788	5.91
498.139	6.26
498.49	6.04
498.842	5.97
499.193	6
499.544	6.11
499.894	5.96
500.245	5.93
500.596	6.06
500.947	6.07
501.298	6.02
501.648	6.05
501.999	6
502.35	6.08
502.7	6.22
503.051	6.14
503.401	6.22
503.752	6.25
504.102	6.12
504.452	6.09
504.803	6.26
505.153	6.26
505.503	6.12
505.853	6.21
506.203	6.13
506.553	6.18
506.903	6.22
507.253	6.18
507.603	6.15
507.953	6.09
508.303	6.13
508.652	6.21
509.002	6.18
509.352	6.22
509.701	6.29
510.051	6.13
510.4	6.3
510.75	6.23
511.099	6.08
511.449	6.39
511.798	6.24
512.147	6.21
512.496	6.26
512.846	6.22
513.195	6.34
513.544	6.37
513.893	6.26
514.242	6.32
514.591	6.25
514.939	6.17
515.288	6.21
515.637	6.45
515.986	6.38
516.334	6.33
516.683	6.34
517.032	6.29
517.38	6.24
517.729	6.47
518.077	6.5
518.426	6.36
518.774	6.33
519.122	6.45
519.47	6.42
519.819	6.34
520.167	6.38
520.515	6.42
520.863	6.37
521.211	6.3
521.559	6.44
521.907	6.36
522.255	6.38
522.602	6.53
522.95	6.44
523.298	6.45
523.645	6.57
523.993	6.63
524.341	6.64
524.688	6.6
525.036	6.63
525.383	6.52
525.73	6.73
526.078	6.58
526.425	6.65
526.772	6.54
527.119	6.51
527.466	6.52
527.814	6.56
528.161	6.45
528.508	6.59
528.854	6.51
529.201	6.54
529.548	6.58
529.895	6.44
530.242	6.48
530.588	6.34
530.935	6.4
531.282	6.43
531.628	6.51
531.975	6.43
532.321	6.5
532.667	6.58
533.014	6.68
533.36	6.76
533.706	6.85
534.052	6.82
534.399	6.64
534.745	6.59
535.091	6.67
535.437	6.7
535.783	6.69
536.129	6.79
536.474	6.76
536.82	6.78
537.166	6.81
537.512	6.95
537.857	7
538.203	6.91
538.549	6.99
538.894	6.89
539.239	6.86
539.585	6.84
539.93	7
540.276	7.11
540.621	6.97
540.966	7.14
541.311	7.23
541.656	7.24
542.001	7.23
542.346	7.12
542.691	7.13
543.036	7.06
543.381	6.93
543.726	6.95
544.071	6.98
544.415	7.03
544.76	6.97
545.105	7.06
545.449	7.08
545.794	7.16
546.138	7.19
546.483	7.11
546.827	7.24
547.171	7.35
547.516	7.31
547.86	7.37
548.204	7.28
548.548	7.46
548.892	7.43
549.236	7.39
549.58	7.38
549.924	7.41
550.268	7.48
550.612	7.54
550.956	7.78
551.3	7.72
551.643	7.65
551.987	7.83
552.33	7.69
552.674	7.77
553.017	7.67
553.361	7.8
553.704	7.82
554.048	7.85
554.391	7.97
554.734	7.94
555.077	7.78
555.42	7.59
555.764	7.76
556.107	8.14
556.45	7.78
556.793	7.67
557.135	7.77
557.478	7.93
557.821	8.07
558.164	8.25
558.507	8.2
558.849	8.16
559.192	8.25
559.534	8.27
559.877	7.98
560.219	8.25
560.562	8.21
560.904	7.93
561.246	8.33
561.589	8.05
561.931	8.31
562.273	8.31
562.615	8.34
562.957	8.48
563.299	8.5
563.641	8.6
563.983	8.35
564.325	8.42
564.667	8.38
565.008	8.42
565.35	8.57
565.692	8.56
566.033	8.57
566.375	8.69
566.716	8.72
567.058	8.59
567.399	8.77
567.741	8.81
568.082	8.71
568.423	8.63
568.764	8.66
569.105	8.71
569.447	8.77
569.788	8.84
570.129	8.73
570.47	8.88
570.811	8.94
571.151	8.87
571.492	8.94
571.833	8.97
572.174	9.03
572.514	9.07
572.855	9.04
573.195	9.15
573.536	8.97
573.876	9.23
574.217	9.16
574.557	9
574.898	9.11
575.238	9.03
575.578	9.09
575.918	9.3
576.258	9.32
576.598	9.31
576.938	9.31
577.278	9.35
577.618	9.21
577.958	9.37
578.298	9.35
578.638	9.6
578.977	9.44
579.317	9.6
579.657	9.59
579.996	9.61
580.336	9.56
580.675	9.5
581.014	9.73
581.354	9.7
581.693	9.74
582.032	9.9
582.372	9.85
582.711	9.78
583.05	10.12
583.389	9.88
583.728	9.98
584.067	10.06
584.406	9.9
584.745	9.87
585.083	9.86
585.422	10.03
585.761	10.37
586.1	10.29
586.438	9.86
586.777	10.32
587.115	10.35
587.454	10.37
587.792	10.28
588.13	10.33
588.469	10.47
588.807	10.02
589.145	10.52
589.483	10.31
589.821	10.49
590.159	10.52
590.497	10.71
590.835	10.38
591.173	10.32
591.511	10.54
591.849	10.58
592.187	10.55
592.524	10.53
592.862	10.71
593.2	10.78
593.537	10.7
593.875	10.81
594.212	11.06
594.55	10.97
594.887	10.95
595.224	10.68
595.561	10.84
595.899	10.78
596.236	11.03
596.573	11.14
596.91	10.94
597.247	11
597.584	11.04
597.921	11.2
598.258	11.24
598.594	11.42
598.931	11.05
599.268	11.09
599.604	11.17
599.941	11.24
600.277	11.19
600.614	11.38
600.95	11.56
601.287	11.43
601.623	11.57
601.959	11.59
602.296	11.71
602.632	11.57
602.968	11.41
603.304	11.93
603.64	11.72
603.976	11.74
604.312	11.85
604.648	11.99
604.984	12.11
605.319	11.77
605.655	11.84
605.991	11.9
606.326	11.82
606.662	11.83
606.998	12.02
607.333	12.12
607.668	11.79
608.004	11.95
608.339	11.75
608.674	12.01
609.01	12.09
609.345	12.48
609.68	12.47
610.015	12.23
610.35	12.34
610.685	12.53
611.02	12.6
611.355	12.42
611.689	12.4
612.024	12.55
612.359	12.57
612.694	12.6
613.028	12.73
613.363	12.65
613.697	12.58
614.032	12.57
614.366	13.01
614.7	12.82
615.035	12.92
615.369	12.91
615.703	12.74
616.037	13.04
616.371	12.91
616.705	13.15
617.039	12.93
617.373	13.24
617.707	13.2
618.041	13.19
618.375	13.16
618.709	13.67
619.042	13.25
619.376	13.74
619.71	13.42
620.043	13.52
620.377	13.46
620.71	13.71
621.043	13.53
621.377	13.39
621.71	13.64
622.043	13.77
622.376	13.75
622.709	13.67
623.043	13.69
623.376	13.43
623.709	13.75
624.041	13.81
624.374	13.74
624.707	13.93
625.04	13.86
625.373	14.16
625.705	14
626.038	14.01
626.37	13.93
626.703	14.28
627.035	14
627.368	14.24
627.7	14.06
628.032	14.35
628.365	14.35
628.697	14.45
629.029	14.35
629.361	14.47
629.693	14.22
630.025	14.14
630.357	14.58
630.689	14.68
631.021	14.82
631.353	14.5
631.684	14.36
632.016	14.9
632.348	14.49
632.679	14.4
633.011	14.79
633.342	14.66
633.674	14.88
634.005	15.15
634.336	15.12
634.668	14.93
634.999	15.21
635.33	14.79
635.661	15.04
635.992	15.17
636.323	15.16
636.654	15.27
636.985	14.93
637.316	15.02
637.647	15.03
637.977	15.31
638.308	15.17
638.639	15.44
638.969	15.61
639.3	14.95
639.63	15.44
639.961	15.67
640.291	15.51
640.622	15.85
640.952	15.92
641.282	15.99
641.612	15.52
641.943	15.98
642.273	15.68
642.603	15.98
642.933	16.36
643.263	16.5
643.592	16.13
643.922	16.27
644.252	15.93
644.582	16.08
644.911	16.04
645.241	16.24
645.571	16.54
645.9	16.13
646.23	16.11
646.559	15.72
646.888	16.3
647.218	16.13
647.547	16.5
647.876	16.69
648.205	16.16
648.534	16.51
648.863	16.64
649.192	16.31
649.521	16.76
649.85	16.65
650.179	16.63
650.508	16.65
650.837	16.77
651.165	16.98
651.494	16.38
651.822	17.05
652.151	16.96
652.479	16.95
652.808	16.79
653.136	17.03
653.465	17.31
653.793	17.11
654.121	17.49
654.449	17.51
654.777	17.3
655.105	17.2
655.433	17.63
655.761	17.66
656.089	17.25
656.417	17.27
656.745	17.21
657.073	17.57
657.4	18.09
657.728	17.37
658.056	16.98
658.383	17.17
658.711	17.65
659.038	17.9
659.365	17.14
659.693	17.41
660.02	17.54
660.347	17.35
660.674	17.82
661.001	17.73
661.329	17.51
661.656	18.18
661.982	18.03
662.309	17.86
662.636	17.8
662.963	17.93
663.29	17.61
663.616	17.96
663.943	17.5
664.27	18.1
664.596	17.71
664.923	17.61
665.249	18.33
665.576	17.84
665.902	19.04
666.228	18.58
666.554	18.59
666.881	17.89
667.207	18.59
667.533	18.58
667.859	18.83
668.185	19.16
668.511	19.06
668.837	18.6
669.162	19.29
669.488	18.88
669.814	18.56
670.139	19.24
670.465	18.58
670.791	19.29
671.116	18.66
671.442	19.12
671.767	18.69
672.092	18.88
672.418	18.65
672.743	19.54
673.068	19.43
673.393	18.86
673.718	18.84
674.043	19.03
674.368	19.82
674.693	19.56
675.018	20.06
675.343	20.02
675.667	19.34
675.992	19.34
676.317	19.76
676.641	19.99
676.966	19.87
677.29	19.88
677.615	19.89
677.939	19.67
678.264	19.66
678.588	19.41
678.912	20.26
679.236	19.32
679.56	19.83
679.885	19.93
680.209	20.01
680.532	19.91
680.856	19.77
681.18	20.48
681.504	20.5
681.828	20.24
682.152	20.81
682.475	20.24
682.799	20.51
683.122	20.2
683.446	20.35
683.769	19.85
684.093	20.44
684.416	19.84
684.739	19.96
685.062	19.91
685.386	19.96
685.709	20.23
686.032	20.75
686.355	20.77
686.678	20.4
687.001	21.33
687.324	20.56
687.646	20.64
687.969	21.32
688.292	21.7
688.614	20.91
688.937	20.26
689.26	20.47
689.582	20.9
689.904	20.22
690.227	21.15
690.549	20.58
690.871	20.76
691.194	21.33
691.516	21.25
691.838	22.36
692.16	21.09
692.482	21.04
692.804	21.19
693.126	21.51
693.448	22.53
693.769	21.33
694.091	22.19
694.413	21.2
694.735	20.8
695.056	22.05
695.378	21.59
695.699	21.94
696.021	21.73
696.342	22.17
696.663	21.58
696.984	21.74
697.306	22.24
697.627	22.07
697.948	22.37
698.269	21.42
698.59	21.39
698.911	21.79
699.232	21.51
699.553	21.72
699.873	21.46
700.194	22.45
700.515	22.35
700.835	22.26
701.156	22.56
701.477	22.13
701.797	22.32
702.117	22.6
702.438	22.06
702.758	21.89
703.078	22.84
703.398	22.36
703.719	22.68
704.039	22.78
704.359	23.26
704.679	22.28
704.999	22.57
705.319	23.04
705.638	23.24
705.958	22.97
706.278	22.64
706.597	23.16
706.917	22.13
707.237	23.66
707.556	21.43
707.876	22.92
708.195	24.09
708.514	22.69
708.834	23.78
709.153	22.26
709.472	23.24
709.791	24.47
710.11	23.76
710.429	23.49
710.748	23.28
711.067	23.24
711.386	23.01
711.705	23.87
712.023	23.5
712.342	24.18
712.661	23.71
712.979	23.83
713.298	22.69
713.616	23.42
713.935	24.98
714.253	23.44
714.572	24.29
714.89	24.31
715.208	23.89
715.526	24.15
715.844	24.4
716.162	24.68
716.48	25.11
716.798	24.37
717.116	23.92
717.434	24.59
717.752	24.71
718.069	24.23
718.387	24.69
718.705	24.83
719.022	24.48
719.34	24.76
719.657	24.06
719.975	25.31
720.292	23.76
720.609	25.59
720.927	24.31
721.244	24.81
721.561	25.31
721.878	24.64
722.195	24.62
722.512	26.41
722.829	24.85
723.146	24.38
723.463	24.21
723.779	26.73
724.096	25.01
724.413	25.61
724.729	25.36
725.046	25.73
725.362	24.8
725.679	25.08
725.995	25.85
726.311	26.86
726.628	25.86
726.944	25.47
727.26	24.74
727.576	25.24
727.892	24.77
728.208	26.77
728.524	26.12
728.84	26.19
729.156	26.45
729.472	27.01
729.787	25.3
730.103	25.41
730.419	25.85
730.734	25.47
731.05	25.1
731.365	25.37
731.681	25.25
731.996	26.58
732.311	26.46
732.626	25.88
732.942	25.14
733.257	24.5
733.572	26.83
733.887	25.42
734.202	26.75
734.517	27.45
734.832	25.4
735.146	26.47
735.461	27.49
735.776	27.95
736.091	25.62
736.405	25.56
736.72	25.86
737.034	25.97
737.349	26.16
737.663	25.85
737.977	26.89
738.292	26.51
738.606	25.81
738.92	24.93
739.234	26.41
739.548	26.36
739.862	27.01
740.176	26.71
740.49	25.84
740.804	29.64
741.117	27.5
741.431	27.15
741.745	27.53
742.058	25.87
742.372	27.01
742.685	27.04
742.999	26.46
743.312	29.21
743.626	27.16
743.939	30.21
744.252	26.12
744.565	27.91
744.878	25.99
745.191	27.19
745.505	26.28
745.817	27.38
746.13	27.18
746.443	27.94
746.756	27.46
747.069	26.82
747.381	28.18
747.694	27.44
748.007	27
748.319	27.32
748.632	29.03
748.944	27.65
749.256	29.83
749.569	27.67
749.881	28.66
750.193	27.24
750.505	30.19
750.817	29.48
751.129	30.05
751.441	27.01
751.753	27.52
752.065	29.25
752.377	29.41
752.689	28.59
753	29.1
753.312	26.71
753.624	25.13
753.935	29.16
754.247	27.33
754.558	28.83
754.869	29.44
755.181	29.27
755.492	28.43
755.803	27.69
756.114	28.17
756.425	29.66
756.736	29.69
757.047	29.69
757.358	30.95
757.669	30.11
757.98	27.16
758.291	28.44
758.601	28.39
758.912	29.62
759.223	27.23
759.533	30.5
759.844	29.73
760.154	28.73
760.464	29.65
760.775	29.36
761.085	29.3
761.395	30.96
761.705	29.62
762.016	31.52
762.326	30.86
762.636	31.16
762.945	29.9
763.255	30.49
763.565	30.56
763.875	31.22
764.185	30.8
764.494	31.29
764.804	30.36
765.113	28.23
765.423	31.35
765.732	29.01
766.042	30.37
766.351	30.77
766.66	29.37
766.97	29.44
767.279	29.65
767.588	28.04
767.897	30.29
768.206	29.42
768.515	29.71
768.824	30.96
769.133	28.96
769.441	30.1
769.75	30.18
770.059	31.07
770.367	30.41
770.676	31.81
770.984	29.79
771.293	31.87
771.601	31.41
771.91	31.46
772.218	31.99
772.526	31.66
772.834	30.27
773.142	32.11
773.45	28.87
773.758	31.43
774.066	34.29
774.374	30.88
774.682	33.35
774.99	30.54
775.298	26.52
775.605	30.13
775.913	30.69
776.22	31.77
776.528	31.03
776.835	30.49
777.143	27.92
777.45	33.01
777.757	28.01
778.065	33.13
778.372	30.9
778.679	29.99
778.986	30.64
779.293	30.62
779.6	29.99
779.907	34.28
780.214	29.41
780.52	31.46
780.827	32.3
781.134	32.14
781.44	29.46
781.747	30.35
782.053	33.55
782.36	30.99
782.666	32.18
782.973	32.85
783.279	29.55
783.585	33.84
783.891	27.84
784.197	29.39
784.503	33.59
784.809	30.93
785.115	31.06
785.421	32.71
785.727	28.34
786.033	33.31
786.339	33.03
786.644	34.14
786.95	34.6
787.255	32.18
787.561	33.71
787.866	30.27
788.172	35.28
788.477	27.7
788.782	31.61
789.088	33.42
789.393	32.44
789.698	32.4
790.003	35.49
790.308	36.42
790.613	31.57
790.918	35.73
791.223	34.78
791.527	31.19
791.832	34.69
792.137	34.78
792.441	32.08
792.746	37.46
793.05	32.03
793.355	35.89
793.659	34.85
793.963	35
794.268	31.15
794.572	34.16
794.876	33.98
795.18	33.23
795.484	32.59
795.788	32.37
796.092	29.37
796.396	29.03
796.7	38.68
797.004	31.53
797.307	35.41
797.611	32.48
797.915	32.07
798.218	35.15
798.522	36.35
798.825	31.49
799.128	35.34
799.432	33.96
799.735	32.68
800.038	31.6
800.341	31.71
800.644	35.68
800.947	36.34
801.25	35.87
801.553	39.4
801.856	35.2
802.159	37.96
802.462	36.62
802.764	31.47
803.067	33.83
803.37	36.65
803.672	32.58
803.975	33.59
804.277	35.01
804.579	31.99
804.882	33.86
805.184	34.34
805.486	37.74
805.788	34.54
806.09	30.46
806.392	31.39
806.694	33.52
806.996	37.43
807.298	39.88
807.6	34.8
807.902	35.7
808.203	41.47
808.505	35.59
808.807	31.59
809.108	30.95
809.409	40.49
809.711	31.27
810.012	36.13
810.313	32.15
810.615	35.34
810.916	36.67
811.217	38.05
811.518	37.42
811.819	35.45
812.12	39.07
812.421	35.22
812.722	37.22
813.023	40.46
813.323	31.52
813.624	38.93
813.925	39.03
814.225	35.29
814.526	36.68
814.826	31.95
815.126	32.88
815.427	35.04
815.727	40.44
816.027	31.38
816.327	37.93
816.627	42.11
816.927	32.09
817.227	36.57
817.527	31.82
817.827	36.49
818.127	35.64
818.427	38.85
818.727	34.12
819.026	25.13
819.326	41.48
819.625	38.07
819.925	41.42
820.224	44.68
820.524	33.61
820.823	35.52
821.122	32.31
821.421	36.21
821.72	42.62
822.019	34.37
822.318	31.72
822.617	32.89
822.916	35.98
823.215	35.34
823.514	40.29
823.813	38.22
824.111	38.25
824.41	36.79
824.709	36.57
825.007	37.46
825.306	37.14
825.604	36.96
825.902	37.71
826.201	37.11
826.499	37.44
826.797	36.4
827.095	36.53
827.393	35.64
827.691	38.02
827.989	36.49
828.287	37.14
828.585	36.14
828.882	38.21
829.18	36.68
829.478	39.27
829.775	36.13
830.073	37.16
830.37	38.26
830.668	38.96
830.965	37.15
831.263	38.14
831.56	38.96
831.857	37.55
832.154	37.54
832.451	38.34
832.748	37.66
833.045	36.54
833.342	38.61
833.639	38.38
833.936	33.92
834.232	39.61
834.529	41.8
834.826	30.95
835.122	39.61
835.419	40.69
835.715	36.17
836.012	40.14
836.308	37.55
836.604	40.26
836.901	39.18
837.197	39.96
837.493	40.99
837.789	39.31
838.085	40.63
838.381	42.5
838.677	38.32
838.972	43.09
839.268	33.45
839.564	41.78
839.86	40.18
840.155	39.24
840.451	42.94
840.746	40.84
841.042	46.24
841.337	38.53
841.632	46.25
841.928	42.51
842.223	42.24
842.518	36.12
842.813	41.38
843.108	37.13
843.403	39.18
843.698	42.12
843.993	39.19
844.287	38.4
844.582	41.57
844.877	42.48
845.171	50.49
845.466	36.33
845.761	33.55
846.055	37.49
846.349	45.19
846.644	48.66
846.938	49.39
847.232	34.74
847.526	45.56
847.82	30.1
848.114	47.45
848.408	39.76
848.702	33.8
848.996	40.09
849.29	38.67
849.584	40.59
849.877	44.78
850.171	53.87
850.465	50.44
850.758	32.14
851.052	37.84
851.345	40.96
851.638	25.83
851.932	53.31
852.225	49.84
852.518	40.66
852.811	40.51
853.104	48.09
853.397	34.06
853.69	31.25
853.983	46.48
854.276	42.26
854.569	38.8
854.861	35.51
855.154	46.4
855.447	46.23
855.739	40.37
856.032	17.77
856.324	40.72
856.616	34.85
856.909	53.84
857.201	36.94
857.493	57.63
857.785	54.57
858.077	61.54
858.369	47.19
858.661	45.64
858.953	6.55
859.245	44.32
859.537	29.66
859.829	24.06
860.12	35.85
860.412	78.67
860.703	47.1
860.995	42.11
861.286	47.44
861.578	48.92
861.869	39.24
862.16	33.18
862.452	52.15
862.743	51.3
863.034	60.11
863.325	50.45
863.616	41.01
863.907	39.55
864.198	54.45
864.488	61.27
864.779	41.33
865.07	44.09
865.36	54.44
865.651	30.7
865.941	71.26
866.232	66.02
866.522	37.41
866.813	49.8
867.103	37.22
867.393	34.08
867.683	43.5
867.973	48.1
868.263	29.15
868.553	50.6
868.843	33.11
869.133	47.29
869.423	34.13
869.713	63.06
870.002	43.89
870.292	45.11
870.582	69.03
870.871	40.82
871.161	27.47
871.45	58.3
871.739	64.01
872.029	45.19
872.318	85.86
872.607	31.86
872.896	76.54
873.185	84.32
873.474	47.42
873.763	48.76
874.052	51.9
874.341	32.45
874.63	74.18
874.918	8.45
875.207	44.43
875.496	37.56
875.784	56.63
876.073	53.5
876.361	50.92
876.649	48.98
876.938	45.82
877.226	34.92
877.514	26.72
877.802	66.24
878.09	20.3
878.378	64.66
878.666	51.45
878.954	43.45
879.242	52.56
879.53	34.7
879.817	49.29
880.105	57.38
880.392	52.89
880.68	53.97
880.967	103.45
881.255	57.41
881.542	36.89
881.83	28.27
882.117	75.39
882.404	38.99
882.691	49.14
882.978	43.85
883.265	19.74
883.552	53.17
883.839	44.11
884.126	38.43
884.413	37.12
884.699	47.5
884.986	48.75
885.273	45
885.559	45
885.846	45
