Data from 0264_chest_Reflection__4__157.txt Node

Date: Fri Oct 20 21:52:38 CDT 2023
User: ToomeyLab
Spectrometer: FLMS14357
Trigger mode: 0
Integration Time (sec): 1.000000E-2
Scans to average: 100
Electric dark correction enabled: true
Nonlinearity correction enabled: false
Boxcar width: 0
XAxis mode: Wavelengths
Number of Pixels in Spectrum: 2048
>>>>>Begin Spectral Data<<<<<
189.047	119.69
189.435	119.69
189.823	119.69
190.211	-0.1
190.599	-442.41
190.987	15.78
191.375	109.88
191.763	59.79
192.151	23.37
192.538	59.54
192.926	55.73
193.314	134.91
193.702	224.82
194.089	150.67
194.477	741.87
194.864	-227.84
195.252	80.84
195.639	-514.82
196.027	-231.39
196.414	113.64
196.801	73.67
197.189	52.31
197.576	145.94
197.963	1586.46
198.351	47.17
198.738	10.47
199.125	26.84
199.512	45.79
199.899	31.24
200.286	-0.73
200.673	22.86
201.06	12.83
201.447	12.13
201.833	48.76
202.22	4.26
202.607	53.37
202.994	30.06
203.38	23.91
203.767	7.61
204.154	48.95
204.54	43.09
204.927	13.8
205.313	12.51
205.699	59.52
206.086	41.01
206.472	32.19
206.858	73.28
207.245	-5.74
207.631	53.18
208.017	25.97
208.403	26.68
208.789	32.42
209.175	7.09
209.561	27.68
209.947	12.1
210.333	20.71
210.719	24.76
211.105	36.02
211.491	29.99
211.876	10.81
212.262	48.98
212.648	38.94
213.034	19.06
213.419	40.73
213.805	-8.31
214.19	14.89
214.576	30.14
214.961	5.07
215.346	39.53
215.732	6.48
216.117	-20.4
216.502	38.84
216.888	8.19
217.273	-2.78
217.658	6.19
218.043	17.14
218.428	1.9
218.813	7.9
219.198	17.72
219.583	-4.81
219.968	-7.32
220.353	0.12
220.738	21.17
221.122	21.37
221.507	12.83
221.892	13.1
222.276	-1.2
222.661	24.04
223.046	18.07
223.43	11.9
223.815	18.93
224.199	17.01
224.583	2.43
224.968	-1.36
225.352	-0.61
225.736	8.32
226.121	11.67
226.505	2.18
226.889	7.71
227.273	6.57
227.657	10.29
228.041	9.99
228.425	3.1
228.809	6.8
229.193	4.07
229.577	7.96
229.961	2.71
230.344	2.4
230.728	3.15
231.112	3.99
231.495	3.77
231.879	3.61
232.263	4.53
232.646	3.61
233.03	3.45
233.413	4.23
233.797	3.31
234.18	3.75
234.563	4.72
234.946	5.13
235.33	3.68
235.713	4.8
236.096	4.75
236.479	3.45
236.862	4.1
237.245	2.43
237.628	4.23
238.011	4.34
238.394	3.94
238.777	5.1
239.16	3.95
239.543	4
239.925	5.4
240.308	5.34
240.691	5.43
241.073	7.02
241.456	3.65
241.838	4.77
242.221	5.09
242.603	4.29
242.986	3.8
243.368	4.12
243.75	3.66
244.133	3.32
244.515	3.38
244.897	3.78
245.279	4.18
245.661	3.74
246.043	3.52
246.425	4.19
246.807	3.74
247.189	4.44
247.571	3.96
247.953	3.44
248.335	4.06
248.717	3.66
249.098	3.86
249.48	3.61
249.862	3.72
250.243	4.14
250.625	3.93
251.006	4.09
251.388	3.68
251.769	3.96
252.151	4.03
252.532	4.03
252.913	3.6
253.295	3.68
253.676	4.1
254.057	4.34
254.438	4.1
254.819	3.92
255.2	3.57
255.581	3.8
255.962	3.81
256.343	4.94
256.724	3.49
257.105	4.6
257.486	4.44
257.867	3.89
258.247	4.95
258.628	3.6
259.009	2.43
259.389	3.92
259.77	3.83
260.15	4.28
260.531	4.26
260.911	4.19
261.292	3.38
261.672	3.81
262.052	3.86
262.432	3.83
262.813	3.69
263.193	3.25
263.573	3.43
263.953	4.05
264.333	4.11
264.713	4.72
265.093	4.47
265.473	4.03
265.853	4.11
266.233	4.13
266.612	4.16
266.992	4.03
267.372	3.68
267.752	4
268.131	3.57
268.511	3.72
268.89	3.67
269.27	3.85
269.649	3.54
270.029	3.84
270.408	3.95
270.787	3.95
271.167	3.9
271.546	4.27
271.925	4.52
272.304	3.96
272.683	3.88
273.062	3.75
273.441	4.13
273.82	3.27
274.199	3.78
274.578	3.89
274.957	3.86
275.336	4.04
275.715	3.7
276.093	3.72
276.472	4.01
276.851	3.6
277.229	3.79
277.608	3.58
277.986	3.32
278.365	3.79
278.743	3.81
279.122	2.89
279.5	3.66
279.878	3.3
280.257	3.78
280.635	3.85
281.013	3.81
281.391	4.03
281.769	3.55
282.147	3.9
282.525	3.66
282.903	3.89
283.281	3.87
283.659	4.05
284.037	4.07
284.415	3.29
284.792	3.91
285.17	3.8
285.548	3.62
285.925	3.23
286.303	3.56
286.68	3.23
287.058	3.99
287.435	3.92
287.813	3.28
288.19	3.58
288.567	3.75
288.945	3.9
289.322	4.07
289.699	3.3
290.076	4.32
290.453	3.78
290.83	3.8
291.207	4.27
291.584	3.61
291.961	3.77
292.338	3.63
292.715	3.61
293.092	3.85
293.469	4.24
293.845	3.68
294.222	4.6
294.599	4.13
294.975	4.41
295.352	4.6
295.728	4.57
296.105	4.06
296.481	3.9
296.858	3.92
297.234	4.68
297.61	3.78
297.986	3.91
298.363	4.47
298.739	4.29
299.115	4.07
299.491	4.23
299.867	3.99
300.243	4.52
300.619	4.14
300.995	4.55
301.371	4.59
301.746	4.03
302.122	4.72
302.498	4.26
302.874	4.29
303.249	4.57
303.625	4.48
304	4.67
304.376	4.17
304.751	4.05
305.127	3.87
305.502	4.55
305.878	4.56
306.253	4.41
306.628	4.58
307.003	4.42
307.378	4.71
307.754	4.13
308.129	5.3
308.504	4.67
308.879	4.9
309.254	4.95
309.629	4.61
310.003	4.39
310.378	5.27
310.753	4.75
311.128	4.91
311.502	4.82
311.877	4.7
312.252	4.86
312.626	4.73
313.001	4.75
313.375	4.64
313.75	4.87
314.124	4.67
314.498	4.84
314.873	4.29
315.247	4.97
315.621	4.7
315.995	4.98
316.369	5.05
316.743	5.45
317.117	5.12
317.491	4.28
317.865	5.47
318.239	5.29
318.613	5.39
318.987	4.93
319.361	4.79
319.734	4.53
320.108	4.63
320.482	5.43
320.855	5.27
321.229	5.76
321.602	5.37
321.976	5.43
322.349	5.4
322.723	5.07
323.096	4.96
323.469	5.14
323.843	5.35
324.216	4.93
324.589	5.15
324.962	5.44
325.335	5.51
325.708	4.8
326.081	5.3
326.454	5.29
326.827	5.44
327.2	5.38
327.573	5.62
327.945	5.27
328.318	4.92
328.691	4.95
329.063	5.76
329.436	4.64
329.809	4.97
330.181	5.47
330.553	5.68
330.926	5.62
331.298	5.18
331.671	4.98
332.043	5.33
332.415	5.42
332.787	5.64
333.159	5.08
333.532	5.34
333.904	5.48
334.276	5.43
334.648	5.5
335.02	5.53
335.391	5.06
335.763	5.65
336.135	5.42
336.507	5.51
336.879	5.39
337.25	5.38
337.622	5.67
337.993	5.91
338.365	5.66
338.736	5.33
339.108	5.7
339.479	5.46
339.851	5.8
340.222	5.21
340.593	5.56
340.964	5.29
341.336	5.94
341.707	5.61
342.078	5.46
342.449	5.4
342.82	5.06
343.191	5.44
343.562	5.45
343.933	5.48
344.303	5.58
344.674	5.5
345.045	5.54
345.416	5.45
345.786	5.73
346.157	5.8
346.527	5.55
346.898	5.48
347.268	5.62
347.639	5.57
348.009	5.35
348.38	5.72
348.75	5.6
349.12	5.65
349.49	5.36
349.861	6.04
350.231	5.12
350.601	5.76
350.971	5.85
351.341	5.74
351.711	6.28
352.081	5.54
352.45	5.46
352.82	5.63
353.19	6.15
353.56	5.72
353.929	5.65
354.299	5.64
354.669	5.51
355.038	5.74
355.408	5.92
355.777	5.73
356.147	6.04
356.516	5.57
356.885	5.47
357.254	5.48
357.624	5.78
357.993	5.48
358.362	5.58
358.731	5.62
359.1	4.94
359.469	5.58
359.838	5.73
360.207	5.66
360.576	5.81
360.945	5.34
361.314	5.86
361.682	5.41
362.051	5.72
362.42	5.52
362.788	5.4
363.157	5.61
363.525	5.48
363.894	5.6
364.262	5.48
364.631	5.54
364.999	5.47
365.367	5.78
365.735	5.62
366.104	5.44
366.472	5.74
366.84	5.68
367.208	5.66
367.576	5.68
367.944	5.9
368.312	5.82
368.68	5.81
369.048	5.83
369.416	5.82
369.783	6.17
370.151	5.95
370.519	5.71
370.886	6.02
371.254	5.99
371.621	6.07
371.989	5.71
372.356	6.17
372.724	5.99
373.091	5.47
373.458	5.59
373.826	5.89
374.193	5.83
374.56	5.73
374.927	6.29
375.294	5.86
375.661	6.03
376.028	5.89
376.395	6
376.762	5.55
377.129	5.88
377.496	5.87
377.863	6.13
378.229	6.24
378.596	6
378.963	5.9
379.329	6.27
379.696	6.01
380.062	5.8
380.429	5.7
380.795	5.63
381.161	6.01
381.528	6.32
381.894	6
382.26	5.78
382.626	5.96
382.993	5.9
383.359	5.71
383.725	5.93
384.091	5.98
384.457	5.97
384.823	5.78
385.188	6.1
385.554	6.06
385.92	6.05
386.286	5.92
386.651	5.85
387.017	6.07
387.383	5.75
387.748	5.9
388.114	5.82
388.479	6.19
388.845	6.12
389.21	5.97
389.575	5.66
389.94	5.95
390.306	5.96
390.671	5.79
391.036	5.84
391.401	6.02
391.766	6.12
392.131	6.02
392.496	5.96
392.861	6.26
393.226	6.1
393.591	5.92
393.956	6.11
394.32	6.19
394.685	6.12
395.05	6.21
395.414	6.33
395.779	5.99
396.143	6.07
396.508	6.02
396.872	5.97
397.236	6.22
397.601	6.01
397.965	5.73
398.329	6.06
398.694	6.18
399.058	6.21
399.422	6.14
399.786	6.16
400.15	5.96
400.514	5.99
400.878	6.27
401.242	6.31
401.605	6.04
401.969	6.19
402.333	6.02
402.697	6.02
403.06	6
403.424	6.16
403.787	6.48
404.151	6.15
404.514	6.31
404.878	6.34
405.241	6.22
405.604	5.81
405.968	6.3
406.331	6.12
406.694	6.3
407.057	6.13
407.42	6.46
407.783	6.09
408.146	6.11
408.509	6.33
408.872	6.25
409.235	6.28
409.598	6.37
409.961	6.23
410.323	6.32
410.686	5.98
411.049	6.3
411.411	6.28
411.774	6.28
412.136	6.26
412.499	6.18
412.861	6.36
413.223	6.44
413.586	6.48
413.948	6.44
414.31	6.36
414.672	6.25
415.035	6.14
415.397	6.43
415.759	6.3
416.121	6.44
416.483	6.51
416.845	6.34
417.206	6.39
417.568	6.34
417.93	6.37
418.292	6.18
418.653	6.41
419.015	6.21
419.377	6.27
419.738	6.21
420.1	6.21
420.461	6.19
420.822	6.29
421.184	6.27
421.545	6.33
421.906	6.2
422.267	6.27
422.629	6.27
422.99	6.07
423.351	6.21
423.712	6.15
424.073	6.2
424.434	6.14
424.795	6.13
425.155	6.25
425.516	6.19
425.877	6.19
426.238	6.15
426.598	6.24
426.959	6.2
427.32	6.27
427.68	6.34
428.041	6.3
428.401	6.45
428.761	6.43
429.122	6.36
429.482	6.34
429.842	6.41
430.202	6.49
430.563	6.29
430.923	6.49
431.283	6.5
431.643	6.56
432.003	6.65
432.363	6.28
432.722	6.53
433.082	6.43
433.442	6.43
433.802	6.69
434.161	6.43
434.521	6.63
434.881	6.41
435.24	6.43
435.6	6.54
435.959	6.43
436.319	6.44
436.678	6.59
437.037	6.56
437.396	6.59
437.756	6.54
438.115	6.37
438.474	6.54
438.833	6.53
439.192	6.39
439.551	6.42
439.91	6.43
440.269	6.62
440.628	6.47
440.987	6.56
441.345	6.5
441.704	6.58
442.063	6.54
442.421	6.59
442.78	6.5
443.138	6.59
443.497	6.62
443.855	6.46
444.214	6.59
444.572	6.52
444.93	6.71
445.288	6.69
445.647	6.76
446.005	6.38
446.363	6.61
446.721	6.64
447.079	6.85
447.437	6.64
447.795	6.56
448.153	6.51
448.51	6.64
448.868	6.52
449.226	6.46
449.584	6.67
449.941	6.61
450.299	6.69
450.656	6.53
451.014	6.62
451.371	6.66
451.729	6.65
452.086	6.72
452.443	6.74
452.801	6.7
453.158	6.99
453.515	6.82
453.872	6.77
454.229	6.88
454.586	6.79
454.943	6.66
455.3	6.72
455.657	6.87
456.014	6.84
456.371	6.91
456.727	6.84
457.084	6.98
457.441	6.95
457.797	6.91
458.154	6.88
458.51	6.92
458.867	6.99
459.223	6.91
459.58	6.97
459.936	7.01
460.292	6.97
460.648	6.77
461.005	6.78
461.361	6.87
461.717	6.63
462.073	6.85
462.429	6.86
462.785	6.81
463.141	6.84
463.496	6.93
463.852	7.04
464.208	7.01
464.564	7.01
464.919	7.05
465.275	7.19
465.631	7.06
465.986	7.22
466.342	7.08
466.697	7.02
467.052	7.06
467.408	7.02
467.763	7.1
468.118	7.21
468.473	7.14
468.829	6.96
469.184	7
469.539	7.01
469.894	7.07
470.249	6.96
470.603	7.03
470.958	7.16
471.313	7.22
471.668	7.12
472.023	7.22
472.377	7.09
472.732	7
473.086	7.16
473.441	7.18
473.795	7.42
474.15	7.08
474.504	7.12
474.859	7.18
475.213	7.23
475.567	7.28
475.921	7.13
476.275	7.2
476.63	7.34
476.984	7.22
477.338	7.13
477.692	7.18
478.045	7.38
478.399	7.29
478.753	7.23
479.107	7.35
479.461	7.18
479.814	7.44
480.168	7.41
480.521	7.26
480.875	7.29
481.228	7.35
481.582	7.31
481.935	7.26
482.289	7.19
482.642	7.2
482.995	7.27
483.348	7.38
483.701	7.28
484.055	7.28
484.408	7.19
484.761	7.17
485.114	7.09
485.466	6.94
485.819	6.91
486.172	6.78
486.525	6.86
486.878	6.92
487.23	7.02
487.583	7.05
487.936	7.13
488.288	7.2
488.641	7.26
488.993	7.11
489.345	7.07
489.698	7.06
490.05	7.07
490.402	7.06
490.754	7.12
491.107	7.1
491.459	7.28
491.811	7.31
492.163	7.36
492.515	7.44
492.866	7.31
493.218	7.22
493.57	7.17
493.922	7.18
494.274	7.2
494.625	7.25
494.977	7.28
495.328	7.48
495.68	7.48
496.031	7.56
496.383	7.64
496.734	7.52
497.086	7.64
497.437	7.61
497.788	7.65
498.139	7.76
498.49	7.57
498.842	7.59
499.193	7.65
499.544	7.63
499.894	7.63
500.245	7.55
500.596	7.72
500.947	7.78
501.298	7.7
501.648	7.68
501.999	7.79
502.35	7.71
502.7	7.97
503.051	7.78
503.401	7.75
503.752	7.8
504.102	7.88
504.452	7.82
504.803	7.76
505.153	7.89
505.503	7.8
505.853	7.86
506.203	7.83
506.553	7.87
506.903	7.88
507.253	8.03
507.603	7.88
507.953	7.89
508.303	8.04
508.652	8.13
509.002	7.99
509.352	7.99
509.701	7.98
510.051	7.93
510.4	8.05
510.75	8.02
511.099	8.02
511.449	7.99
511.798	8.08
512.147	7.93
512.496	7.98
512.846	8
513.195	8.07
513.544	8.09
513.893	8.03
514.242	8.08
514.591	8.03
514.939	7.99
515.288	8.07
515.637	8.27
515.986	8.23
516.334	8.22
516.683	8.11
517.032	8.06
517.38	8.15
517.729	8.2
518.077	8.29
518.426	8.31
518.774	8.14
519.122	8.19
519.47	8.21
519.819	8.16
520.167	8.21
520.515	8.17
520.863	8.17
521.211	8.26
521.559	8.27
521.907	8.29
522.255	8.42
522.602	8.52
522.95	8.42
523.298	8.41
523.645	8.47
523.993	8.49
524.341	8.57
524.688	8.38
525.036	8.65
525.383	8.36
525.73	8.76
526.078	8.6
526.425	8.62
526.772	8.5
527.119	8.55
527.466	8.51
527.814	8.44
528.161	8.52
528.508	8.45
528.854	8.52
529.201	8.43
529.548	8.63
529.895	8.48
530.242	8.44
530.588	8.31
530.935	8.29
531.282	8.39
531.628	8.46
531.975	8.46
532.321	8.52
532.667	8.67
533.014	8.67
533.36	8.85
533.706	8.88
534.052	8.87
534.399	8.84
534.745	8.7
535.091	8.79
535.437	8.73
535.783	8.75
536.129	8.82
536.474	8.88
536.82	9.04
537.166	8.97
537.512	9.08
537.857	9.09
538.203	9.12
538.549	9.12
538.894	9.06
539.239	9.12
539.585	9.03
539.93	9.17
540.276	9.26
540.621	9.27
540.966	9.26
541.311	9.26
541.656	9.35
542.001	9.44
542.346	9.3
542.691	9.25
543.036	9.23
543.381	9.06
543.726	9.09
544.071	9.14
544.415	9.23
544.76	9.29
545.105	9.35
545.449	9.41
545.794	9.43
546.138	9.46
546.483	9.6
546.827	9.54
547.171	9.67
547.516	9.59
547.86	9.83
548.204	9.59
548.548	9.61
548.892	9.57
549.236	9.74
549.58	9.72
549.924	9.88
550.268	9.92
550.612	9.91
550.956	10.02
551.3	9.99
551.643	10.07
551.987	10.13
552.33	9.99
552.674	9.97
553.017	10.12
553.361	10.3
553.704	10.36
554.048	10.17
554.391	10.29
554.734	10.4
555.077	10.38
555.42	10.18
555.764	10.3
556.107	10.48
556.45	10.41
556.793	10.31
557.135	10.3
557.478	10.41
557.821	10.67
558.164	10.73
558.507	10.63
558.849	10.76
559.192	10.54
559.534	10.76
559.877	10.51
560.219	10.77
560.562	10.65
560.904	10.45
561.246	10.82
561.589	10.8
561.931	10.84
562.273	10.95
562.615	10.97
562.957	10.9
563.299	10.92
563.641	10.89
563.983	10.89
564.325	10.98
564.667	11.02
565.008	10.81
565.35	11
565.692	11.04
566.033	10.96
566.375	11.18
566.716	11.25
567.058	11.17
567.399	11.28
567.741	11.39
568.082	11.27
568.423	11.42
568.764	11.19
569.105	11.44
569.447	11.46
569.788	11.26
570.129	11.34
570.47	11.57
570.811	11.71
571.151	11.53
571.492	11.77
571.833	11.64
572.174	11.88
572.514	11.8
572.855	11.64
573.195	11.84
573.536	11.59
573.876	11.92
574.217	11.68
574.557	11.7
574.898	11.72
575.238	11.67
575.578	11.96
575.918	11.87
576.258	11.94
576.598	11.99
576.938	12.02
577.278	12.04
577.618	12.01
577.958	12.04
578.298	12.01
578.638	12.23
578.977	12.25
579.317	12.21
579.657	12.19
579.996	12.46
580.336	12.34
580.675	12.37
581.014	12.45
581.354	12.51
581.693	12.51
582.032	12.81
582.372	12.52
582.711	12.85
583.05	12.98
583.389	12.89
583.728	12.9
584.067	13.12
584.406	12.72
584.745	12.82
585.083	12.99
585.422	13
585.761	13.05
586.1	13.11
586.438	12.9
586.777	13.17
587.115	13.28
587.454	13.36
587.792	13.15
588.13	13.35
588.469	13.31
588.807	13.23
589.145	13.35
589.483	13.31
589.821	13.1
590.159	13.43
590.497	13.47
590.835	13.38
591.173	13.61
591.511	13.69
591.849	13.4
592.187	13.51
592.524	13.38
592.862	13.49
593.2	13.51
593.537	13.56
593.875	13.85
594.212	13.92
594.55	13.89
594.887	13.88
595.224	13.98
595.561	13.96
595.899	13.89
596.236	14.2
596.573	13.98
596.91	14.4
597.247	14.05
597.584	13.94
597.921	14.27
598.258	14.39
598.594	14.34
598.931	14.08
599.268	14.22
599.604	14.12
599.941	14.26
600.277	14.3
600.614	14.47
600.95	14.54
601.287	14.39
601.623	14.75
601.959	14.88
602.296	14.56
602.632	14.69
602.968	14.49
603.304	14.94
603.64	14.68
603.976	14.92
604.312	15.09
604.648	15.02
604.984	15.25
605.319	14.92
605.655	14.66
605.991	14.99
606.326	14.78
606.662	14.77
606.998	14.8
607.333	14.96
607.668	15.04
608.004	14.99
608.339	14.97
608.674	15.22
609.01	15.27
609.345	15.59
609.68	15.32
610.015	15.37
610.35	15.8
610.685	15.56
611.02	15.59
611.355	15.48
611.689	15.6
612.024	15.54
612.359	15.5
612.694	15.56
613.028	15.86
613.363	15.47
613.697	15.76
614.032	15.86
614.366	16.11
614.7	15.87
615.035	15.96
615.369	15.9
615.703	15.75
616.037	16.25
616.371	15.96
616.705	15.98
617.039	15.95
617.373	16.1
617.707	16.63
618.041	16.28
618.375	16.18
618.709	16.29
619.042	16.69
619.376	16.75
619.71	16.43
620.043	16.63
620.377	16.13
620.71	16.82
621.043	16.67
621.377	16.37
621.71	16.47
622.043	16.8
622.376	17.18
622.709	16.8
623.043	16.75
623.376	16.8
623.709	16.62
624.041	16.85
624.374	17.07
624.707	16.99
625.04	17.4
625.373	17.24
625.705	17.33
626.038	17.14
626.37	16.99
626.703	16.98
627.035	16.89
627.368	17.5
627.7	17.54
628.032	17.2
628.365	17.54
628.697	17.28
629.029	17.31
629.361	17.52
629.693	17.64
630.025	17.68
630.357	17.65
630.689	17.48
631.021	17.61
631.353	17.92
631.684	17.82
632.016	18.03
632.348	17.58
632.679	17.58
633.011	17.67
633.342	17.56
633.674	17.98
634.005	18.14
634.336	18.32
634.668	17.71
634.999	18.04
635.33	18.11
635.661	18.37
635.992	18.32
636.323	18.06
636.654	18.11
636.985	18.17
637.316	18.23
637.647	17.99
637.977	17.92
638.308	18.59
638.639	18.59
638.969	18.67
639.3	18.2
639.63	18.93
639.961	18.75
640.291	18.44
640.622	18.43
640.952	18.51
641.282	18.65
641.612	18.66
641.943	19.04
642.273	18.41
642.603	19.02
642.933	18.99
643.263	18.63
643.592	18.94
643.922	19.54
644.252	19.04
644.582	19.34
644.911	19.27
645.241	19.11
645.571	19.52
645.9	19.57
646.23	19.33
646.559	19.31
646.888	19.56
647.218	19.6
647.547	19.57
647.876	19.5
648.205	19.47
648.534	19.54
648.863	19.65
649.192	19.56
649.521	19.52
649.85	19.49
650.179	19.58
650.508	19.81
650.837	20.27
651.165	19.78
651.494	19.41
651.822	19.94
652.151	19.56
652.479	19.32
652.808	19.72
653.136	19.75
653.465	20.53
653.793	19.97
654.121	20.43
654.449	20
654.777	20
655.105	20.33
655.433	20.92
655.761	20.19
656.089	20.11
656.417	20.19
656.745	20.32
657.073	20.24
657.4	21
657.728	20.15
658.056	20.08
658.383	20.23
658.711	20.31
659.038	20.59
659.365	20.75
659.693	20.92
660.02	20.64
660.347	21.09
660.674	20.72
661.001	20.21
661.329	20.39
661.656	21.28
661.982	20.5
662.309	20.83
662.636	20.88
662.963	20.58
663.29	20.83
663.616	21.15
663.943	20.64
664.27	21.47
664.596	21.22
664.923	21
665.249	21.23
665.576	21.23
665.902	21.64
666.228	21.68
666.554	21.31
666.881	20.91
667.207	21.87
667.533	21.32
667.859	21.78
668.185	21.83
668.511	22.01
668.837	21.94
669.162	22.35
669.488	21.99
669.814	21.74
670.139	21.44
670.465	21.52
670.791	21.91
671.116	22.14
671.442	21.73
671.767	22.02
672.092	21.79
672.418	21.6
672.743	22.51
673.068	22.16
673.393	21.51
673.718	21.8
674.043	21.88
674.368	21.77
674.693	22.58
675.018	22.94
675.343	22.19
675.667	21.81
675.992	22.72
676.317	22.28
676.641	22.97
676.966	23.21
677.29	23.3
677.615	22.9
677.939	22.44
678.264	22.83
678.588	22.05
678.912	23.36
679.236	22.16
679.56	23.01
679.885	23.68
680.209	23.03
680.532	22.82
680.856	22.94
681.18	23.31
681.504	22.74
681.828	22.9
682.152	22.97
682.475	22.88
682.799	23.6
683.122	23.14
683.446	23.07
683.769	22.87
684.093	23.44
684.416	22.91
684.739	22.99
685.062	22.87
685.386	23.4
685.709	23.25
686.032	23.24
686.355	23.66
686.678	23.15
687.001	23.55
687.324	23.21
687.646	23.69
687.969	23.91
688.292	24.09
688.614	23.54
688.937	23.07
689.26	22.91
689.582	23.52
689.904	23.79
690.227	24.25
690.549	23.75
690.871	23.57
691.194	23.67
691.516	23.37
691.838	24.46
692.16	24.26
692.482	23.73
692.804	23.87
693.126	23.92
693.448	24.46
693.769	23.87
694.091	24.28
694.413	24.22
694.735	23.31
695.056	24.47
695.378	24.76
695.699	25.44
696.021	24.46
696.342	24.29
696.663	24.43
696.984	24.11
697.306	25.06
697.627	24.87
697.948	24.61
698.269	24.25
698.59	24.26
698.911	24.28
699.232	24.66
699.553	24.48
699.873	24.53
700.194	25.31
700.515	25.03
700.835	24.33
701.156	25.01
701.477	24.69
701.797	24.92
702.117	24.76
702.438	24.75
702.758	24.74
703.078	25.71
703.398	25.43
703.719	24.76
704.039	25.34
704.359	25.07
704.679	25.09
704.999	26
705.319	25.81
705.638	25.87
705.958	25.6
706.278	25.22
706.597	24.98
706.917	24.78
707.237	25.79
707.556	24.81
707.876	24.9
708.195	26.33
708.514	25.41
708.834	26.03
709.153	25.39
709.472	26.61
709.791	26.39
710.11	26.73
710.429	25.44
710.748	25.63
711.067	25.62
711.386	25.44
711.705	26.4
712.023	26.28
712.342	26.13
712.661	26.2
712.979	26
713.298	26.61
713.616	25.72
713.935	26.21
714.253	26.44
714.572	27.02
714.89	26.27
715.208	26.41
715.526	25.96
715.844	26.41
716.162	26.71
716.48	26.64
716.798	27.49
717.116	25.94
717.434	27.03
717.752	26.59
718.069	26.75
718.387	25.75
718.705	26.69
719.022	27.06
719.34	26.52
719.657	27.35
719.975	26.21
720.292	26.71
720.609	27.51
720.927	26.3
721.244	27.38
721.561	27.62
721.878	25.73
722.195	27.09
722.512	28.24
722.829	28.09
723.146	27.12
723.463	26.23
723.779	27.56
724.096	27.62
724.413	27.07
724.729	27.48
725.046	27.59
725.362	27.84
725.679	28.19
725.995	28.32
726.311	28.08
726.628	26.81
726.944	27.71
727.26	27.64
727.576	27.22
727.892	27.28
728.208	28.19
728.524	28.27
728.84	26.64
729.156	28.72
729.472	27.76
729.787	28.06
730.103	28.17
730.419	27.67
730.734	27.06
731.05	27.23
731.365	27.82
731.681	27.76
731.996	28.44
732.311	28.44
732.626	27.14
732.942	26.67
733.257	27.69
733.572	29.01
733.887	28.38
734.202	28.97
734.517	29.06
734.832	28.84
735.146	29.26
735.461	28.11
735.776	28.91
736.091	27.79
736.405	27.47
736.72	28.37
737.034	29.18
737.349	27.07
737.663	27.99
737.977	28.71
738.292	27.81
738.606	28.03
738.92	28.07
739.234	29.34
739.548	29.23
739.862	27.92
740.176	28.45
740.49	27.98
740.804	29.64
741.117	28.28
741.431	29.07
741.745	28.98
742.058	26.72
742.372	28.19
742.685	28.21
742.999	28.86
743.312	30.22
743.626	29.29
743.939	30.18
744.252	29.2
744.565	29.51
744.878	29.67
745.191	28.73
745.505	29.65
745.817	30.1
746.13	28.25
746.443	29.35
746.756	30.11
747.069	28.87
747.381	31.08
747.694	30.23
748.007	29.5
748.319	28.42
748.632	29.12
748.944	30.03
749.256	32.25
749.569	27.79
749.881	29.92
750.193	30.14
750.505	28.28
750.817	30.59
751.129	29.57
751.441	29.22
751.753	29.26
752.065	30.82
752.377	30.58
752.689	31.29
753	29.69
753.312	29.33
753.624	29.02
753.935	30.33
754.247	31.28
754.558	31.25
754.869	31.48
755.181	28.73
755.492	30.33
755.803	30.34
756.114	31.16
756.425	30.67
756.736	29.79
757.047	30.59
757.358	30.9
757.669	28.91
757.98	30.02
758.291	30.03
758.601	30.6
758.912	30.7
759.223	30.26
759.533	31.49
759.844	31.81
760.154	31.21
760.464	29.46
760.775	31.58
761.085	29.99
761.395	30.19
761.705	28.44
762.016	31.18
762.326	31.15
762.636	31.51
762.945	30.05
763.255	31.55
763.565	33.61
763.875	30.98
764.185	31.1
764.494	32
764.804	32.63
765.113	29.04
765.423	30.28
765.732	29.22
766.042	31.6
766.351	30.54
766.66	30.56
766.97	30.29
767.279	31.8
767.588	29.26
767.897	31.37
768.206	29.58
768.515	32.79
768.824	30.86
769.133	29.36
769.441	32.21
769.75	31.63
770.059	32.62
770.367	32.54
770.676	34.64
770.984	31.58
771.293	32.56
771.601	31.47
771.91	29.84
772.218	33.37
772.526	33.03
772.834	30.13
773.142	31.34
773.45	33.28
773.758	29.4
774.066	32.17
774.374	29.7
774.682	33.14
774.99	29.32
775.298	29
775.605	33.86
775.913	32.52
776.22	29.62
776.528	34.96
776.835	33.89
777.143	27.18
777.45	34.78
777.757	31.21
778.065	34.36
778.372	33.23
778.679	31.52
778.986	32.45
779.293	32.52
779.6	31.48
779.907	31.15
780.214	31.53
780.52	32.05
780.827	32.2
781.134	32.67
781.44	32.19
781.747	33.67
782.053	32.88
782.36	33.36
782.666	31.93
782.973	30.48
783.279	31.74
783.585	35.63
783.891	25.7
784.197	32.67
784.503	34.47
784.809	33.95
785.115	34.98
785.421	33.65
785.727	33.11
786.033	33.81
786.339	32.11
786.644	33.48
786.95	34.23
787.255	33.71
787.561	33.92
787.866	32
788.172	33.63
788.477	30.45
788.782	31.77
789.088	32.71
789.393	30.46
789.698	30.81
790.003	35.47
790.308	34.82
790.613	31.45
790.918	34.48
791.223	31.42
791.527	31.43
791.832	36.38
792.137	35.48
792.441	29.9
792.746	31.33
793.05	34.59
793.355	34.85
793.659	32.9
793.963	31.83
794.268	32.32
794.572	29.98
794.876	32.54
795.18	33.72
795.484	34.43
795.788	32.58
796.092	32.43
796.396	34.52
796.7	34.91
797.004	30.54
797.307	33.26
797.611	35.54
797.915	32.11
798.218	34.18
798.522	34.46
798.825	36.46
799.128	34.78
799.432	34.44
799.735	35.38
800.038	34.54
800.341	32.2
800.644	38.08
800.947	32.94
801.25	31.1
801.553	35.09
801.856	34.16
802.159	36.43
802.462	34.22
802.764	33.15
803.067	36.79
803.37	34.51
803.672	34.52
803.975	35.75
804.277	32.4
804.579	33.01
804.882	38.09
805.184	34.74
805.486	34.88
805.788	33.93
806.09	33.52
806.392	39.11
806.694	33.68
806.996	34.56
807.298	31.68
807.6	30.2
807.902	35.37
808.203	35.87
808.505	39.9
808.807	32.17
809.108	32
809.409	36.88
809.711	34.29
810.012	36.5
810.313	32.54
810.615	34.03
810.916	38.82
811.217	37.67
811.518	34.81
811.819	36.72
812.12	34.97
812.421	35.88
812.722	37.14
813.023	36.44
813.323	36.57
813.624	36.49
813.925	34.81
814.225	33.04
814.526	39.56
814.826	44.24
815.126	34.34
815.427	38.6
815.727	33.09
816.027	27.84
816.327	36.52
816.627	35.7
816.927	32.91
817.227	34.06
817.527	34.44
817.827	34.29
818.127	37.28
818.427	37.59
818.727	35.01
819.026	31.44
819.326	32.85
819.625	33.22
819.925	42.78
820.224	42.2
820.524	37.98
820.823	36.01
821.122	37.3
821.421	36.43
821.72	42.05
822.019	37.76
822.318	38.35
822.617	34.7
822.916	36.35
823.215	37.16
823.514	41.41
823.813	37.17
824.111	34.85
824.41	36.31
824.709	36.92
825.007	34.85
825.306	36.88
825.604	35.17
825.902	35.73
826.201	36.03
826.499	36.34
826.797	37.35
827.095	36.5
827.393	36.04
827.691	36.38
827.989	35.92
828.287	36.63
828.585	38.2
828.882	34.26
829.18	35
829.478	39.33
829.775	37.18
830.073	34.42
830.37	37.46
830.668	37.35
830.965	36.79
831.263	36.43
831.56	36.71
831.857	38.8
832.154	38.41
832.451	36.51
832.748	39.68
833.045	37.36
833.342	40.06
833.639	37
833.936	38.64
834.232	35.96
834.529	35.32
834.826	40.13
835.122	38.76
835.419	41.64
835.715	42.9
836.012	38.37
836.308	36.51
836.604	36.33
836.901	39.28
837.197	38.87
837.493	39.05
837.789	38.72
838.085	36.36
838.381	37.81
838.677	38.58
838.972	37.5
839.268	37.32
839.564	37.36
839.86	37.65
840.155	42.61
840.451	37.16
840.746	40.92
841.042	39.7
841.337	37.27
841.632	36.19
841.928	40.39
842.223	43.63
842.518	33.75
842.813	44.35
843.108	40.68
843.403	31.74
843.698	40.86
843.993	35.4
844.287	35.94
844.582	46.53
844.877	40.18
845.171	46
845.466	26.88
845.761	42.59
846.055	32.8
846.349	38.46
846.644	33.79
846.938	49.5
847.232	35.92
847.526	39.71
847.82	41.35
848.114	35.98
848.408	37.14
848.702	29.66
848.996	47.76
849.29	38.99
849.584	45.34
849.877	36.11
850.171	63.87
850.465	24.86
850.758	15.71
851.052	38.43
851.345	36.13
851.638	34.78
851.932	35.34
852.225	47.69
852.518	48.02
852.811	46.99
853.104	61.13
853.397	42.59
853.69	33.11
853.983	27.55
854.276	38.94
854.569	46.33
854.861	22.72
855.154	44.84
855.447	49.26
855.739	39.15
856.032	27.36
856.324	29.29
856.616	21.41
856.909	40.16
857.201	30.45
857.493	44.08
857.785	58.85
858.077	51.18
858.369	36.01
858.661	43.33
858.953	29.15
859.245	26.02
859.537	31.16
859.829	40.1
860.12	46.04
860.412	42.36
860.703	39.93
860.995	61.89
861.286	23.38
861.578	30.17
861.869	26.21
862.16	51.19
862.452	28.08
862.743	34.97
863.034	32.91
863.325	51.95
863.616	26.17
863.907	34.11
864.198	32.09
864.488	50.37
864.779	59.74
865.07	33.36
865.36	58.26
865.651	42.12
865.941	73.42
866.232	38.72
866.522	32.47
866.813	60.67
867.103	26
867.393	61.47
867.683	53.94
867.973	41.96
868.263	41.05
868.553	45.37
868.843	8.75
869.133	51.94
869.423	34.57
869.713	45.7
870.002	55.33
870.292	20.94
870.582	50.8
870.871	35.99
871.161	28.33
871.45	44.48
871.739	32.48
872.029	33.4
872.318	67.47
872.607	30.65
872.896	46.1
873.185	81.06
873.474	48.22
873.763	31.93
874.052	37.91
874.341	48.99
874.63	40.89
874.918	38.2
875.207	43.72
875.496	28.46
875.784	39.06
876.073	50.11
876.361	28.33
876.649	27.34
876.938	22.81
877.226	47.06
877.514	54.38
877.802	39.17
878.09	45.41
878.378	41.38
878.666	32.25
878.954	33.85
879.242	54.45
879.53	35.84
879.817	35.69
880.105	45.98
880.392	48.89
880.68	41.32
880.967	65.37
881.255	54.4
881.542	21.07
881.83	45.38
882.117	70.77
882.404	43.52
882.691	39.3
882.978	57.16
883.265	29.32
883.552	48.07
883.839	49.44
884.126	53.33
884.413	49.07
884.699	42.66
884.986	46.22
885.273	40.34
885.559	40.34
885.846	40.34
