Data from 0264_chest_Reflection__2__155.txt Node

Date: Fri Oct 20 21:52:02 CDT 2023
User: ToomeyLab
Spectrometer: FLMS14357
Trigger mode: 0
Integration Time (sec): 1.000000E-2
Scans to average: 100
Electric dark correction enabled: true
Nonlinearity correction enabled: false
Boxcar width: 0
XAxis mode: Wavelengths
Number of Pixels in Spectrum: 2048
>>>>>Begin Spectral Data<<<<<
189.047	-9.9
189.435	-9.9
189.823	-9.9
190.211	163.24
190.599	-407.29
190.987	60.09
191.375	83.16
191.763	64.38
192.151	-2.83
192.538	-5.81
192.926	51.87
193.314	106.41
193.702	92.68
194.089	81.4
194.477	1499.37
194.864	194.13
195.252	43.34
195.639	-342.68
196.027	154.4
196.414	148.61
196.801	13.65
197.189	129.04
197.576	282.35
197.963	-1584.38
198.351	55.89
198.738	56.77
199.125	25.17
199.512	61.18
199.899	15.87
200.286	-6.92
200.673	30.76
201.06	35.41
201.447	25.87
201.833	9.69
202.22	52.15
202.607	19.61
202.994	27.73
203.38	14.62
203.767	5.64
204.154	39.74
204.54	46.56
204.927	2.1
205.313	35.33
205.699	50.25
206.086	18.97
206.472	38.41
206.858	83.84
207.245	-0.48
207.631	63.38
208.017	37.92
208.403	-2.5
208.789	22.26
209.175	20.7
209.561	58.07
209.947	2.39
210.333	30.44
210.719	29.74
211.105	22.09
211.491	25.17
211.876	3.44
212.262	22.83
212.648	26.26
213.034	0.97
213.419	20.15
213.805	10.19
214.19	34.26
214.576	16.06
214.961	6.85
215.346	49.28
215.732	22.64
216.117	-15.28
216.502	4.81
216.888	30.18
217.273	37.48
217.658	21.11
218.043	17.5
218.428	30.76
218.813	9.46
219.198	10.04
219.583	14.75
219.968	-8.26
220.353	22.8
220.738	28.34
221.122	-4.36
221.507	0.06
221.892	-0.63
222.276	18.25
222.661	24.15
223.046	18.97
223.43	13.73
223.815	26.78
224.199	13.79
224.583	-1.84
224.968	2.29
225.352	1.27
225.736	12.28
226.121	8.67
226.505	6.08
226.889	8.74
227.273	3.06
227.657	11.78
228.041	10.33
228.425	6.78
228.809	8.13
229.193	5.33
229.577	6.11
229.961	2.43
230.344	3.44
230.728	3.02
231.112	4.98
231.495	3.84
231.879	5.19
232.263	4.95
232.646	3.79
233.03	3.19
233.413	2.59
233.797	4.28
234.18	4.86
234.563	5.6
234.946	6.15
235.33	6.46
235.713	6.85
236.096	4.76
236.479	5.74
236.862	5.3
237.245	4.83
237.628	4.47
238.011	6.11
238.394	3.94
238.777	6.5
239.16	4.04
239.543	7.84
239.925	6.88
240.308	5.06
240.691	4.27
241.073	6.75
241.456	4.88
241.838	5.23
242.221	5.38
242.603	4.93
242.986	4.64
243.368	4.74
243.75	4.4
244.133	4.18
244.515	4.13
244.897	4.47
245.279	4.49
245.661	4.42
246.043	4.76
246.425	5.04
246.807	5.14
247.189	4.89
247.571	4.02
247.953	5.12
248.335	4.84
248.717	4.28
249.098	4.18
249.48	4.22
249.862	4.38
250.243	4.68
250.625	4.07
251.006	4.82
251.388	4.65
251.769	5.13
252.151	4.95
252.532	5.33
252.913	5.04
253.295	3.7
253.676	4.44
254.057	4.26
254.438	4.55
254.819	5.08
255.2	4.28
255.581	3.84
255.962	3.9
256.343	5.47
256.724	4.6
257.105	4.81
257.486	5.11
257.867	5.29
258.247	4.78
258.628	4.68
259.009	4.01
259.389	4.02
259.77	4.22
260.15	5.32
260.531	4.72
260.911	4.34
261.292	4.37
261.672	4.14
262.052	4.34
262.432	4.19
262.813	4.16
263.193	4.4
263.573	4.74
263.953	4.43
264.333	4.81
264.713	4.72
265.093	4.61
265.473	4.96
265.853	4.75
266.233	4.72
266.612	3.98
266.992	4.58
267.372	4.06
267.752	4.07
268.131	4.43
268.511	4.41
268.89	4.07
269.27	4.2
269.649	3.85
270.029	3.81
270.408	4.58
270.787	4.71
271.167	4.34
271.546	4.65
271.925	4.53
272.304	4.66
272.683	3.87
273.062	4.45
273.441	4.13
273.82	4.33
274.199	4.54
274.578	4.24
274.957	4.4
275.336	4.47
275.715	4.44
276.093	3.98
276.472	4.32
276.851	4.06
277.229	3.95
277.608	3.69
277.986	3.91
278.365	4.53
278.743	4.09
279.122	4
279.5	4.13
279.878	3.76
280.257	4.26
280.635	4.66
281.013	4.37
281.391	4.31
281.769	3.57
282.147	3.92
282.525	4.53
282.903	4.33
283.281	3.86
283.659	3.67
284.037	3.81
284.415	3.64
284.792	3.8
285.17	4.04
285.548	4.35
285.925	3.78
286.303	4.18
286.68	4.01
287.058	4.22
287.435	3.94
287.813	3.74
288.19	4.05
288.567	4.18
288.945	4.31
289.322	4.47
289.699	3.41
290.076	4.62
290.453	4.36
290.83	4.1
291.207	4.52
291.584	4
291.961	4.03
292.338	4.35
292.715	4.11
293.092	3.94
293.469	4.59
293.845	3.72
294.222	4.45
294.599	4.41
294.975	4.91
295.352	4.92
295.728	4.41
296.105	4.41
296.481	4.35
296.858	4.61
297.234	4.69
297.61	4.53
297.986	4.38
298.363	4.57
298.739	4.5
299.115	4.31
299.491	4.55
299.867	4.53
300.243	4.73
300.619	4.64
300.995	4.32
301.371	4.72
301.746	4.52
302.122	4.83
302.498	4.77
302.874	4.79
303.249	4.74
303.625	4.84
304	4.95
304.376	4.64
304.751	4.84
305.127	4.78
305.502	5.38
305.878	5.12
306.253	5
306.628	4.62
307.003	5.01
307.378	5.21
307.754	4.95
308.129	5.54
308.504	5.02
308.879	5.02
309.254	5.6
309.629	4.76
310.003	4.87
310.378	5.42
310.753	5.59
311.128	5.51
311.502	4.99
311.877	5.18
312.252	4.87
312.626	5.61
313.001	5.36
313.375	5.17
313.75	5.37
314.124	5
314.498	5.44
314.873	5.03
315.247	5.17
315.621	5.31
315.995	5.66
316.369	5.19
316.743	5.44
317.117	5.22
317.491	4.92
317.865	5.67
318.239	5.71
318.613	5.96
318.987	5.28
319.361	5.33
319.734	5.15
320.108	5.28
320.482	5.98
320.855	5.55
321.229	6.01
321.602	6.02
321.976	5.61
322.349	5.84
322.723	5.89
323.096	5.43
323.469	5.56
323.843	5.47
324.216	5.98
324.589	6.06
324.962	6.09
325.335	6.11
325.708	5.58
326.081	5.67
326.454	6.06
326.827	6.3
327.2	6.24
327.573	5.91
327.945	5.67
328.318	5.75
328.691	5.72
329.063	6.05
329.436	5.67
329.809	5.79
330.181	5.87
330.553	5.59
330.926	6.1
331.298	5.58
331.671	5.57
332.043	5.35
332.415	5.97
332.787	6.28
333.159	5.45
333.532	5.8
333.904	6.28
334.276	5.39
334.648	6.17
335.02	6.33
335.391	5.86
335.763	6.18
336.135	6.35
336.507	5.83
336.879	5.97
337.25	6.12
337.622	6.11
337.993	6.62
338.365	6.03
338.736	5.81
339.108	6.67
339.479	5.87
339.851	6.22
340.222	5.6
340.593	5.77
340.964	5.97
341.336	6.71
341.707	6.5
342.078	6.05
342.449	5.68
342.82	5.98
343.191	6.07
343.562	6.4
343.933	6
344.303	5.99
344.674	6.86
345.045	6.47
345.416	6.52
345.786	6.03
346.157	6.27
346.527	6.04
346.898	6.58
347.268	6.5
347.639	6.37
348.009	6.14
348.38	6.47
348.75	6.21
349.12	5.87
349.49	6.17
349.861	6.43
350.231	5.92
350.601	6.24
350.971	6.55
351.341	6.3
351.711	6.35
352.081	6.07
352.45	6.19
352.82	6.41
353.19	6.23
353.56	6.85
353.929	6.57
354.299	6.48
354.669	5.94
355.038	6.42
355.408	6.45
355.777	6.15
356.147	6.38
356.516	6.17
356.885	6.04
357.254	5.99
357.624	6.26
357.993	6.19
358.362	6.7
358.731	5.67
359.1	5.83
359.469	6.12
359.838	6.44
360.207	6.28
360.576	6.53
360.945	6.35
361.314	6.46
361.682	6.14
362.051	6.13
362.42	6.44
362.788	6.73
363.157	6.33
363.525	6.18
363.894	6.28
364.262	6.31
364.631	6.71
364.999	6.63
365.367	6.34
365.735	6.57
366.104	6.32
366.472	6.4
366.84	6.56
367.208	6.27
367.576	6.41
367.944	6.59
368.312	6.5
368.68	6.54
369.048	6.49
369.416	6.58
369.783	6.66
370.151	6.69
370.519	6.38
370.886	6.45
371.254	6.47
371.621	6.71
371.989	6.91
372.356	6.7
372.724	6.69
373.091	6.75
373.458	6.56
373.826	6.45
374.193	6.45
374.56	6.42
374.927	6.46
375.294	6.88
375.661	6.67
376.028	7.04
376.395	6.86
376.762	6.88
377.129	6.79
377.496	6.69
377.863	7.02
378.229	6.93
378.596	6.87
378.963	6.64
379.329	6.9
379.696	6.74
380.062	6.96
380.429	6.71
380.795	6.79
381.161	6.56
381.528	7.31
381.894	6.8
382.26	6.94
382.626	7.23
382.993	6.71
383.359	6.74
383.725	6.81
384.091	6.88
384.457	7.01
384.823	6.45
385.188	7
385.554	6.9
385.92	6.99
386.286	7.02
386.651	6.65
387.017	6.93
387.383	6.87
387.748	6.67
388.114	6.75
388.479	7.02
388.845	7.07
389.21	6.92
389.575	6.8
389.94	6.83
390.306	6.92
390.671	6.84
391.036	7.03
391.401	7.04
391.766	6.82
392.131	7.04
392.496	7.15
392.861	6.75
393.226	6.91
393.591	6.73
393.956	7
394.32	7.11
394.685	6.92
395.05	7.15
395.414	7.31
395.779	7.08
396.143	7.02
396.508	6.69
396.872	7.12
397.236	7.09
397.601	6.98
397.965	6.84
398.329	6.87
398.694	7.22
399.058	6.82
399.422	6.89
399.786	7.15
400.15	7.15
400.514	7.15
400.878	7.01
401.242	7.08
401.605	7.15
401.969	7.05
402.333	7.01
402.697	7.16
403.06	7.12
403.424	7.09
403.787	7.19
404.151	7.01
404.514	6.98
404.878	7.18
405.241	7.16
405.604	7.1
405.968	7.27
406.331	7.15
406.694	7.34
407.057	7.25
407.42	7.42
407.783	7.16
408.146	7.25
408.509	7.39
408.872	7.24
409.235	7.31
409.598	7.54
409.961	7.12
410.323	7.21
410.686	7.29
411.049	7.1
411.411	7.16
411.774	7.12
412.136	7.31
412.499	7.28
412.861	7.51
413.223	7.5
413.586	7.38
413.948	7.52
414.31	7.52
414.672	7.18
415.035	7.38
415.397	7.47
415.759	7.36
416.121	7.49
416.483	7.43
416.845	7.52
417.206	7.52
417.568	7.4
417.93	7.33
418.292	7.11
418.653	7.5
419.015	7.35
419.377	7.24
419.738	7.27
420.1	7.19
420.461	7.37
420.822	7.26
421.184	7.4
421.545	7.26
421.906	7.27
422.267	7.24
422.629	7.33
422.99	7.11
423.351	7.21
423.712	7.25
424.073	7.24
424.434	7.25
424.795	7.29
425.155	7.37
425.516	7.34
425.877	7.2
426.238	7.17
426.598	7.25
426.959	7.21
427.32	7.28
427.68	7.37
428.041	7.38
428.401	7.51
428.761	7.29
429.122	7.44
429.482	7.47
429.842	7.69
430.202	7.71
430.563	7.57
430.923	7.76
431.283	7.54
431.643	7.57
432.003	7.84
432.363	7.34
432.722	7.56
433.082	7.73
433.442	7.39
433.802	7.84
434.161	7.47
434.521	7.72
434.881	7.68
435.24	7.59
435.6	7.58
435.959	7.71
436.319	7.57
436.678	7.58
437.037	7.58
437.396	7.85
437.756	7.76
438.115	7.67
438.474	7.67
438.833	7.84
439.192	7.65
439.551	7.48
439.91	7.73
440.269	7.87
440.628	7.71
440.987	7.74
441.345	7.7
441.704	7.75
442.063	7.78
442.421	7.69
442.78	7.67
443.138	7.78
443.497	7.69
443.855	7.69
444.214	7.75
444.572	7.65
444.93	7.83
445.288	7.97
445.647	7.93
446.005	7.68
446.363	7.65
446.721	7.67
447.079	7.92
447.437	7.76
447.795	7.69
448.153	7.68
448.51	7.71
448.868	7.64
449.226	7.67
449.584	7.69
449.941	7.66
450.299	7.76
450.656	7.68
451.014	7.83
451.371	8.01
451.729	7.84
452.086	7.88
452.443	7.89
452.801	7.87
453.158	7.96
453.515	7.93
453.872	8.04
454.229	8.14
454.586	8.03
454.943	7.98
455.3	7.95
455.657	8.07
456.014	8.02
456.371	8.11
456.727	8.21
457.084	8.09
457.441	8.13
457.797	8.18
458.154	7.92
458.51	7.92
458.867	8.03
459.223	8.05
459.58	8.1
459.936	8.11
460.292	8.13
460.648	8.04
461.005	7.97
461.361	8.08
461.717	7.88
462.073	7.93
462.429	7.91
462.785	7.89
463.141	7.97
463.496	8.03
463.852	8.12
464.208	8.25
464.564	8.34
464.919	8.1
465.275	8.56
465.631	8.42
465.986	8.44
466.342	8.39
466.697	8.28
467.052	8.33
467.408	8.31
467.763	8.32
468.118	8.29
468.473	8.22
468.829	8.37
469.184	8.3
469.539	8.22
469.894	8.26
470.249	8.29
470.603	8.19
470.958	8.56
471.313	8.54
471.668	8.39
472.023	8.35
472.377	8.49
472.732	8.39
473.086	8.43
473.441	8.51
473.795	8.7
474.15	8.42
474.504	8.52
474.859	8.38
475.213	8.41
475.567	8.47
475.921	8.58
476.275	8.53
476.63	8.75
476.984	8.68
477.338	8.54
477.692	8.57
478.045	8.57
478.399	8.49
478.753	8.61
479.107	8.51
479.461	8.55
479.814	8.62
480.168	8.64
480.521	8.55
480.875	8.58
481.228	8.44
481.582	8.56
481.935	8.53
482.289	8.67
482.642	8.55
482.995	8.54
483.348	8.62
483.701	8.59
484.055	8.64
484.408	8.47
484.761	8.4
485.114	8.34
485.466	8.21
485.819	8.19
486.172	8.07
486.525	8.13
486.878	8.1
487.23	8.23
487.583	8.32
487.936	8.31
488.288	8.4
488.641	8.51
488.993	8.42
489.345	8.38
489.698	8.37
490.05	8.35
490.402	8.32
490.754	8.37
491.107	8.4
491.459	8.53
491.811	8.63
492.163	8.57
492.515	8.62
492.866	8.7
493.218	8.55
493.57	8.47
493.922	8.45
494.274	8.46
494.625	8.52
494.977	8.55
495.328	8.7
495.68	8.85
496.031	8.73
496.383	8.94
496.734	8.89
497.086	8.97
497.437	8.99
497.788	8.89
498.139	9.2
498.49	9.1
498.842	8.93
499.193	8.89
499.544	8.83
499.894	9
500.245	8.98
500.596	8.99
500.947	8.99
501.298	9.06
501.648	9.01
501.999	9.06
502.35	9.13
502.7	9.28
503.051	9.14
503.401	9.2
503.752	9.2
504.102	9.29
504.452	9.23
504.803	9.17
505.153	9.31
505.503	9.22
505.853	9.41
506.203	9.31
506.553	9.32
506.903	9.26
507.253	9.4
507.603	9.33
507.953	9.35
508.303	9.33
508.652	9.44
509.002	9.35
509.352	9.33
509.701	9.47
510.051	9.42
510.4	9.42
510.75	9.39
511.099	9.49
511.449	9.25
511.798	9.46
512.147	9.41
512.496	9.5
512.846	9.4
513.195	9.59
513.544	9.4
513.893	9.48
514.242	9.67
514.591	9.57
514.939	9.43
515.288	9.57
515.637	9.66
515.986	9.54
516.334	9.72
516.683	9.6
517.032	9.52
517.38	9.58
517.729	9.79
518.077	9.64
518.426	9.67
518.774	9.7
519.122	9.74
519.47	9.66
519.819	9.7
520.167	9.65
520.515	9.64
520.863	9.69
521.211	9.6
521.559	9.7
521.907	9.69
522.255	9.73
522.602	9.76
522.95	9.79
523.298	9.84
523.645	9.9
523.993	10.06
524.341	9.95
524.688	10.07
525.036	10.01
525.383	10.05
525.73	10.1
526.078	10.05
526.425	10.01
526.772	9.91
527.119	9.98
527.466	9.99
527.814	9.91
528.161	9.82
528.508	9.93
528.854	9.9
529.201	9.87
529.548	9.98
529.895	10.06
530.242	9.88
530.588	9.73
530.935	9.74
531.282	9.78
531.628	9.8
531.975	9.75
532.321	9.84
532.667	10.03
533.014	10.08
533.36	10.2
533.706	10.22
534.052	10.28
534.399	10.14
534.745	10.1
535.091	10.1
535.437	10.2
535.783	10.16
536.129	10.17
536.474	10.2
536.82	10.38
537.166	10.33
537.512	10.49
537.857	10.6
538.203	10.46
538.549	10.6
538.894	10.48
539.239	10.49
539.585	10.51
539.93	10.6
540.276	10.69
540.621	10.69
540.966	10.86
541.311	10.73
541.656	10.73
542.001	10.82
542.346	10.76
542.691	10.67
543.036	10.65
543.381	10.52
543.726	10.51
544.071	10.56
544.415	10.61
544.76	10.63
545.105	10.67
545.449	10.75
545.794	10.87
546.138	10.93
546.483	11.03
546.827	11.02
547.171	11.21
547.516	11.1
547.86	11.15
548.204	11.13
548.548	11.19
548.892	11.14
549.236	11.17
549.58	11.07
549.924	11.21
550.268	11.43
550.612	11.45
550.956	11.57
551.3	11.4
551.643	11.54
551.987	11.69
552.33	11.59
552.674	11.55
553.017	11.57
553.361	11.75
553.704	11.83
554.048	11.75
554.391	11.91
554.734	11.9
555.077	11.82
555.42	11.71
555.764	11.74
556.107	12.02
556.45	11.91
556.793	11.89
557.135	11.88
557.478	11.79
557.821	12.17
558.164	12.07
558.507	12.1
558.849	12.33
559.192	12.15
559.534	12.42
559.877	12.06
560.219	12.27
560.562	12.33
560.904	12.22
561.246	12.33
561.589	12.25
561.931	12.37
562.273	12.55
562.615	12.8
562.957	12.59
563.299	12.39
563.641	12.37
563.983	12.38
564.325	12.46
564.667	12.56
565.008	12.54
565.35	12.52
565.692	12.63
566.033	12.69
566.375	12.58
566.716	12.96
567.058	12.69
567.399	12.63
567.741	12.72
568.082	12.76
568.423	12.75
568.764	12.68
569.105	12.85
569.447	12.85
569.788	12.93
570.129	12.97
570.47	12.92
570.811	13.21
571.151	13.01
571.492	13.26
571.833	13.28
572.174	13.47
572.514	13.22
572.855	13.18
573.195	13.3
573.536	13.12
573.876	13.51
574.217	13.16
574.557	13.22
574.898	13.08
575.238	13.24
575.578	13.39
575.918	13.4
576.258	13.52
576.598	13.68
576.938	13.6
577.278	13.68
577.618	13.56
577.958	13.51
578.298	13.6
578.638	13.79
578.977	13.67
579.317	13.75
579.657	13.74
579.996	13.81
580.336	14.12
580.675	13.93
581.014	14.1
581.354	14.03
581.693	14.07
582.032	14.29
582.372	14.39
582.711	14.45
583.05	14.86
583.389	14.12
583.728	14.35
584.067	14.52
584.406	14.43
584.745	14.42
585.083	14.44
585.422	14.54
585.761	14.53
586.1	14.89
586.438	14.61
586.777	14.77
587.115	14.56
587.454	15.08
587.792	14.83
588.13	14.89
588.469	14.95
588.807	14.51
589.145	14.98
589.483	14.7
589.821	14.72
590.159	15.04
590.497	15.14
590.835	15.08
591.173	15.13
591.511	15
591.849	15.01
592.187	15.18
592.524	15.03
592.862	15.17
593.2	15.21
593.537	15.06
593.875	14.89
594.212	15.33
594.55	15.4
594.887	15.53
595.224	15.32
595.561	15.47
595.899	15.45
596.236	15.65
596.573	15.64
596.91	15.41
597.247	15.56
597.584	15.35
597.921	15.75
598.258	15.74
598.594	15.83
598.931	15.65
599.268	15.43
599.604	15.77
599.941	15.68
600.277	15.72
600.614	15.84
600.95	15.9
601.287	15.78
601.623	16.12
601.959	16.27
602.296	16.13
602.632	16.26
602.968	16.1
603.304	16.34
603.64	16.34
603.976	16.36
604.312	16.53
604.648	16.48
604.984	16.58
605.319	16.53
605.655	16.33
605.991	16.59
606.326	16.3
606.662	16.2
606.998	16.33
607.333	16.41
607.668	16.31
608.004	16.29
608.339	16.6
608.674	16.51
609.01	16.67
609.345	17
609.68	17
610.015	16.82
610.35	17.01
610.685	17.02
611.02	16.88
611.355	17.01
611.689	17.02
612.024	17.09
612.359	17.11
612.694	17.08
613.028	17.36
613.363	17.17
613.697	17.31
614.032	17.53
614.366	17.35
614.7	17.52
615.035	17.5
615.369	17.84
615.703	17.27
616.037	17.59
616.371	17.78
616.705	17.52
617.039	17.55
617.373	17.8
617.707	17.9
618.041	17.75
618.375	17.51
618.709	17.74
619.042	17.97
619.376	18.36
619.71	18.15
620.043	18.05
620.377	18.12
620.71	18.1
621.043	18.54
621.377	17.99
621.71	17.91
622.043	18.24
622.376	18.66
622.709	18.55
623.043	18.33
623.376	18.59
623.709	18.31
624.041	18.5
624.374	18.41
624.707	18.61
625.04	18.3
625.373	18.88
625.705	18.7
626.038	18.66
626.37	18.22
626.703	18.81
627.035	18.45
627.368	19.05
627.7	19.16
628.032	19.01
628.365	19
628.697	18.75
629.029	18.89
629.361	19.05
629.693	18.84
630.025	19.01
630.357	18.98
630.689	19.13
631.021	19.11
631.353	19.31
631.684	19.02
632.016	19.37
632.348	18.89
632.679	19.12
633.011	19.34
633.342	19.22
633.674	19.49
634.005	19.58
634.336	19.79
634.668	19.46
634.999	19.44
635.33	19.28
635.661	19.35
635.992	19.71
636.323	19.72
636.654	19.69
636.985	19.62
637.316	19.76
637.647	20.02
637.977	19.47
638.308	19.65
638.639	19.68
638.969	20.16
639.3	19.51
639.63	20.16
639.961	20.23
640.291	20.11
640.622	20.1
640.952	20.34
641.282	19.84
641.612	20.23
641.943	20.4
642.273	19.95
642.603	20.95
642.933	20.5
643.263	20.5
643.592	20.05
643.922	20.78
644.252	20.29
644.582	20.83
644.911	20.68
645.241	20.92
645.571	21.18
645.9	20.81
646.23	20.89
646.559	20.69
646.888	21.2
647.218	20.62
647.547	21.03
647.876	21.15
648.205	21.01
648.534	21.14
648.863	21.39
649.192	21.01
649.521	21.25
649.85	21.12
650.179	21.14
650.508	21.07
650.837	21.39
651.165	21.51
651.494	21.01
651.822	21.28
652.151	21.91
652.479	20.97
652.808	21.4
653.136	21.26
653.465	21.27
653.793	21.24
654.121	21.47
654.449	21.34
654.777	21.71
655.105	21.46
655.433	22.27
655.761	21.53
656.089	21.88
656.417	21.59
656.745	21.86
657.073	22.14
657.4	22.47
657.728	22.43
658.056	21.99
658.383	22.15
658.711	21.43
659.038	22.19
659.365	22.17
659.693	21.81
660.02	21.76
660.347	21.89
660.674	22.43
661.001	22.34
661.329	22.31
661.656	22.41
661.982	22.52
662.309	22.01
662.636	22.64
662.963	22.34
663.29	22.28
663.616	22.3
663.943	22.12
664.27	23.28
664.596	22.7
664.923	22.03
665.249	22.71
665.576	22.55
665.902	23.16
666.228	22.8
666.554	22.97
666.881	22.3
667.207	22.72
667.533	23.05
667.859	23
668.185	23.05
668.511	23.2
668.837	23.86
669.162	22.88
669.488	23.23
669.814	23.13
670.139	23.02
670.465	22.73
670.791	23.23
671.116	22.4
671.442	23.39
671.767	23.57
672.092	23.57
672.418	23.1
672.743	23.21
673.068	23.67
673.393	24.1
673.718	24.3
674.043	23.17
674.368	23.75
674.693	23.8
675.018	24.24
675.343	23.89
675.667	24.01
675.992	23.79
676.317	23.57
676.641	24.02
676.966	24.13
677.29	23.96
677.615	23.84
677.939	23.78
678.264	24.43
678.588	23.4
678.912	24.91
679.236	24.05
679.56	24.24
679.885	24.88
680.209	24.33
680.532	24.07
680.856	24.25
681.18	24.18
681.504	24.22
681.828	24.77
682.152	24.74
682.475	23.92
682.799	24.58
683.122	24.75
683.446	24.12
683.769	24.9
684.093	24.62
684.416	24.86
684.739	24.47
685.062	23.93
685.386	24.4
685.709	24.75
686.032	25.31
686.355	25.3
686.678	24.58
687.001	24.82
687.324	25.62
687.646	25.46
687.969	25.53
688.292	25.73
688.614	25.05
688.937	24.63
689.26	25
689.582	25.21
689.904	25.17
690.227	25.51
690.549	25.16
690.871	25.37
691.194	25.68
691.516	25.56
691.838	26.03
692.16	25.29
692.482	25.65
692.804	25.9
693.126	25.11
693.448	25.81
693.769	25.77
694.091	25.95
694.413	26.09
694.735	25.54
695.056	26.54
695.378	25.39
695.699	25.84
696.021	26.01
696.342	26.01
696.663	25.67
696.984	25.67
697.306	26.86
697.627	25.72
697.948	26.47
698.269	25.84
698.59	26.3
698.911	25.89
699.232	25.96
699.553	26.19
699.873	26.63
700.194	26.78
700.515	26.34
700.835	26.23
701.156	26.01
701.477	26.09
701.797	26.62
702.117	26.11
702.438	26.64
702.758	26.24
703.078	26.47
703.398	26.37
703.719	26.8
704.039	26.53
704.359	27.11
704.679	27
704.999	26.36
705.319	27.28
705.638	26.49
705.958	27.01
706.278	26.11
706.597	27.44
706.917	26.12
707.237	27.76
707.556	26.8
707.876	26.56
708.195	27.43
708.514	26.04
708.834	27.35
709.153	26.1
709.472	28.32
709.791	28.42
710.11	27.69
710.429	27.52
710.748	27.36
711.067	26.47
711.386	26.46
711.705	27.1
712.023	27.76
712.342	28.39
712.661	28
712.979	27.96
713.298	27.38
713.616	27.41
713.935	27.86
714.253	27.2
714.572	27.9
714.89	27.78
715.208	27.56
715.526	27.82
715.844	27.58
716.162	27.34
716.48	28.38
716.798	27.15
717.116	27.17
717.434	26.96
717.752	27.34
718.069	27.68
718.387	27.86
718.705	28.29
719.022	27.91
719.34	27.64
719.657	28.37
719.975	27.41
720.292	28.39
720.609	28.63
720.927	28.36
721.244	29.56
721.561	27.73
721.878	27.99
722.195	28.72
722.512	29.86
722.829	29.04
723.146	28.54
723.463	29.01
723.779	30.39
724.096	28
724.413	28.89
724.729	28.32
725.046	29.62
725.362	29.3
725.679	27.9
725.995	28.77
726.311	28.75
726.628	28.46
726.944	28.9
727.26	28.53
727.576	28.7
727.892	29.31
728.208	29.4
728.524	28.3
728.84	28.72
729.156	30.43
729.472	29.93
729.787	28.5
730.103	30.05
730.419	29.5
730.734	30.07
731.05	29.51
731.365	28.47
731.681	29.4
731.996	30.38
732.311	30.5
732.626	28.69
732.942	28.57
733.257	29.41
733.572	30.56
733.887	29.83
734.202	29.22
734.517	29.99
734.832	31.32
735.146	29.8
735.461	29.55
735.776	29.4
736.091	29.79
736.405	29.76
736.72	28.62
737.034	30.61
737.349	29.72
737.663	30.87
737.977	30.86
738.292	29.73
738.606	30.33
738.92	29.7
739.234	29.66
739.548	30.64
739.862	29.8
740.176	30.26
740.49	27.75
740.804	29.86
741.117	29.5
741.431	31.68
741.745	28.22
742.058	30.08
742.372	29.07
742.685	30.75
742.999	29.27
743.312	30.43
743.626	29.76
743.939	30.9
744.252	30.85
744.565	29.04
744.878	31.13
745.191	32.05
745.505	31.54
745.817	31.08
746.13	29.89
746.443	30.76
746.756	32.05
747.069	29.87
747.381	30.64
747.694	31.13
748.007	29.27
748.319	30.84
748.632	30.4
748.944	31.31
749.256	33.63
749.569	31.77
749.881	32.03
750.193	31.96
750.505	30.16
750.817	30.9
751.129	31.78
751.441	30.23
751.753	31.48
752.065	33.68
752.377	32.88
752.689	31.73
753	31.53
753.312	29.05
753.624	28.87
753.935	32.42
754.247	32.42
754.558	32.8
754.869	32.35
755.181	30.13
755.492	31.4
755.803	31.19
756.114	29.94
756.425	31.76
756.736	31.89
757.047	31.38
757.358	33.48
757.669	31.83
757.98	31
758.291	31.54
758.601	32.4
758.912	32.6
759.223	31.69
759.533	33.06
759.844	32.92
760.154	34.73
760.464	33.02
760.775	31.13
761.085	32.57
761.395	33.72
761.705	32.63
762.016	32.83
762.326	34.3
762.636	32.84
762.945	31.92
763.255	32.27
763.565	32.4
763.875	32.71
764.185	34.28
764.494	33.4
764.804	34.44
765.113	32.37
765.423	31.67
765.732	31.88
766.042	33.99
766.351	33.24
766.66	33.05
766.97	32.57
767.279	32.73
767.588	32.86
767.897	30.68
768.206	32.61
768.515	33.7
768.824	33.13
769.133	32.27
769.441	33.86
769.75	34.43
770.059	31.61
770.367	33.8
770.676	33.63
770.984	31.92
771.293	33.35
771.601	33.9
771.91	32.35
772.218	36.43
772.526	33.68
772.834	32.51
773.142	33.25
773.45	33.82
773.758	33
774.066	36.36
774.374	33.67
774.682	33.75
774.99	31.93
775.298	29.73
775.605	34.88
775.913	32.71
776.22	34.23
776.528	33.22
776.835	32.31
777.143	33.51
777.45	35.79
777.757	30.65
778.065	38.51
778.372	36
778.679	33.88
778.986	32.85
779.293	35.61
779.6	34.09
779.907	36.41
780.214	33.99
780.52	36.86
780.827	35.82
781.134	35.22
781.44	35.51
781.747	32.81
782.053	35.38
782.36	34.98
782.666	33.74
782.973	32.71
783.279	31.08
783.585	36.04
783.891	33.73
784.197	36.15
784.503	35.94
784.809	35.38
785.115	32.7
785.421	33.79
785.727	31.55
786.033	34.82
786.339	35.35
786.644	34.8
786.95	38.64
787.255	35.53
787.561	35.04
787.866	28.8
788.172	34.49
788.477	33.84
788.782	33.71
789.088	38.07
789.393	32.67
789.698	31.73
790.003	36.34
790.308	37.99
790.613	32.35
790.918	36.37
791.223	31.73
791.527	32.66
791.832	39.82
792.137	34.21
792.441	35.82
792.746	38.6
793.05	31.88
793.355	39.57
793.659	36.36
793.963	36.02
794.268	33.08
794.572	35.65
794.876	37.11
795.18	33.83
795.484	34.16
795.788	39.13
796.092	34.92
796.396	37.67
796.7	37.49
797.004	36.13
797.307	36.46
797.611	38.73
797.915	30.83
798.218	37.54
798.522	33.36
798.825	37.22
799.128	39.3
799.432	33.89
799.735	36.12
800.038	37.84
800.341	34.39
800.644	36.26
800.947	34.78
801.25	37.02
801.553	38.66
801.856	35.79
802.159	35.02
802.462	38.33
802.764	36.97
803.067	38.05
803.37	37.34
803.672	37.87
803.975	36.77
804.277	35.2
804.579	33.46
804.882	39.72
805.184	36.87
805.486	35.47
805.788	38.73
806.09	42.43
806.392	36.24
806.694	38.38
806.996	37.97
807.298	36.92
807.6	37.63
807.902	32.76
808.203	41.15
808.505	39.11
808.807	33.31
809.108	33.21
809.409	39.21
809.711	35.64
810.012	36.24
810.313	36.71
810.615	33.7
810.916	39.22
811.217	32.1
811.518	30.99
811.819	38.37
812.12	37.04
812.421	39.24
812.722	37.51
813.023	40.91
813.323	34.95
813.624	39.84
813.925	40.91
814.225	29.47
814.526	37.66
814.826	44.42
815.126	43.48
815.427	42.04
815.727	46.64
816.027	35.16
816.327	41.16
816.627	39.75
816.927	36.6
817.227	40.49
817.527	35.33
817.827	42.05
818.127	38.41
818.427	35.85
818.727	40.1
819.026	36.61
819.326	43.31
819.625	42.56
819.925	43.35
820.224	39.47
820.524	40.51
820.823	38.47
821.122	40.83
821.421	40.51
821.72	44.3
822.019	33.29
822.318	38.55
822.617	33.49
822.916	41.88
823.215	37.08
823.514	40.06
823.813	38.57
824.111	38.56
824.41	36.19
824.709	37.48
825.007	37.52
825.306	39
825.604	37.9
825.902	38.21
826.201	38.27
826.499	38.53
826.797	38.19
827.095	39.26
827.393	38.53
827.691	39.68
827.989	38.87
828.287	38.91
828.585	39.78
828.882	36.95
829.18	38.14
829.478	39.57
829.775	40.85
830.073	37.93
830.37	39.31
830.668	39.99
830.965	39.95
831.263	38.98
831.56	40.7
831.857	37.49
832.154	39.5
832.451	39.05
832.748	39.67
833.045	34.98
833.342	45.7
833.639	41.22
833.936	40.18
834.232	39.33
834.529	36.7
834.826	39.16
835.122	41.82
835.419	43.69
835.715	35.88
836.012	36.17
836.308	39.25
836.604	41.17
836.901	41.03
837.197	39.14
837.493	40.75
837.789	41.88
838.085	40.08
838.381	41.58
838.677	40.89
838.972	40.98
839.268	42.46
839.564	40.35
839.86	35.88
840.155	38.46
840.451	42.08
840.746	44.08
841.042	36.07
841.337	35.07
841.632	39.53
841.928	41.19
842.223	43.04
842.518	34.44
842.813	40.16
843.108	44.4
843.403	36.81
843.698	44.56
843.993	36.69
844.287	43.62
844.582	44.6
844.877	44.74
845.171	53.28
845.466	39.33
845.761	40.91
846.055	39.75
846.349	37.98
846.644	36.3
846.938	46.94
847.232	39.15
847.526	53.88
847.82	42.49
848.114	45.48
848.408	49.57
848.702	46.89
848.996	44.92
849.29	37.76
849.584	44.66
849.877	39.13
850.171	44.2
850.465	40.68
850.758	29.44
851.052	40.45
851.345	37.39
851.638	26.66
851.932	37.33
852.225	49.53
852.518	58.93
852.811	39.16
853.104	45.67
853.397	45.49
853.69	45.25
853.983	4.2
854.276	49.38
854.569	48.65
854.861	41.57
855.154	46.83
855.447	39.54
855.739	49.84
856.032	50.53
856.324	19.63
856.616	13.78
856.909	41
857.201	42.8
857.493	41.02
857.785	37.32
858.077	66.9
858.369	38.89
858.661	51.92
858.953	36.09
859.245	42.49
859.537	59.67
859.829	54.49
860.12	51.95
860.412	56.54
860.703	54.4
860.995	63.24
861.286	27.11
861.578	36.45
861.869	30.77
862.16	57.29
862.452	31.47
862.743	38
863.034	59.79
863.325	60.27
863.616	26.53
863.907	37.62
864.198	47.27
864.488	52.34
864.779	60.77
865.07	40.24
865.36	52.46
865.651	43.71
865.941	63.55
866.232	47.19
866.522	57.28
866.813	46.05
867.103	40.08
867.393	39.68
867.683	34.63
867.973	51.09
868.263	38.85
868.553	58.63
868.843	38.29
869.133	42.65
869.423	29.36
869.713	45.91
870.002	34.69
870.292	78.64
870.582	42.38
870.871	37.72
871.161	52.97
871.45	60.16
871.739	40.93
872.029	34.71
872.318	73.44
872.607	44.07
872.896	43.07
873.185	57.49
873.474	52.65
873.763	36.27
874.052	59.87
874.341	45.9
874.63	37.42
874.918	14.65
875.207	53.26
875.496	61.69
875.784	43.2
876.073	49.63
876.361	58.27
876.649	42.17
876.938	54
877.226	54.68
877.514	45.44
877.802	39.77
878.09	34.58
878.378	61.12
878.666	60.87
878.954	41.67
879.242	25.46
879.53	43.1
879.817	40.62
880.105	54.28
880.392	47.71
880.68	47.87
880.967	41.52
881.255	57.21
881.542	34.92
881.83	22.31
882.117	49.3
882.404	34.89
882.691	43.49
882.978	70.72
883.265	30.14
883.552	22.82
883.839	28.59
884.126	63.56
884.413	45.97
884.699	42.27
884.986	43.13
885.273	50.57
885.559	50.57
885.846	50.57
