Data from 0015_chest_Reflection__4__39.txt Node

Date: Mon Oct 17 14:44:20 CDT 2022
User: ToomeyLab
Spectrometer: FLMS14357
Trigger mode: 0
Integration Time (sec): 1.000000E-2
Scans to average: 100
Electric dark correction enabled: true
Nonlinearity correction enabled: false
Boxcar width: 0
XAxis mode: Wavelengths
Number of Pixels in Spectrum: 2048
>>>>>Begin Spectral Data<<<<<
189.047	-337.73
189.435	-337.73
189.823	-337.73
190.211	-52.7
190.599	9.94
190.987	291.61
191.375	115.14
191.763	-64.08
192.151	-529.96
192.538	48.2
192.926	-235.77
193.314	438.77
193.702	-121.91
194.089	181.02
194.477	25.73
194.864	-82.94
195.252	-1122.94
195.639	-720.92
196.027	105.98
196.414	29.83
196.801	94.01
197.189	229.01
197.576	169.04
197.963	-160.92
198.351	-163.56
198.738	21.92
199.125	-22.5
199.512	-43.92
199.899	25.92
200.286	15.3
200.673	-8.03
201.06	-33.31
201.447	13.39
201.833	35.05
202.22	50.76
202.607	-25.46
202.994	16.71
203.38	-31.25
203.767	15.79
204.154	44.06
204.54	-15.06
204.927	18.7
205.313	-26.58
205.699	31.78
206.086	-18.71
206.472	-10.86
206.858	12.37
207.245	35.92
207.631	6.93
208.017	36.69
208.403	34.63
208.789	16.59
209.175	-8.31
209.561	-23.35
209.947	-11.6
210.333	20.49
210.719	20.33
211.105	37.01
211.491	36.55
211.876	-18.67
212.262	36.78
212.648	24.28
213.034	-7.42
213.419	34.19
213.805	-26.07
214.19	12.71
214.576	11.88
214.961	-29.28
215.346	-14.38
215.732	-35.15
216.117	32.64
216.502	5.44
216.888	-1.67
217.273	-10.15
217.658	17.01
218.043	-1.67
218.428	-22.31
218.813	22.76
219.198	5.93
219.583	-21.67
219.968	13.92
220.353	-11.78
220.738	-5.95
221.122	17.76
221.507	9.68
221.892	31.37
222.276	10.4
222.661	10.85
223.046	2.43
223.43	10.35
223.815	2.68
224.199	3.36
224.583	3.47
224.968	-0.3
225.352	-8.58
225.736	5.67
226.121	2.45
226.505	-3.14
226.889	6.73
227.273	5.13
227.657	6.96
228.041	5.63
228.425	5.15
228.809	3.84
229.193	4.74
229.577	4.43
229.961	5.97
230.344	4.3
230.728	4.89
231.112	4.82
231.495	4.82
231.879	5.18
232.263	6.05
232.646	5.87
233.03	5.11
233.413	3.6
233.797	5.83
234.18	5.1
234.563	4.86
234.946	5.78
235.33	4.43
235.713	4.47
236.096	6.51
236.479	2.77
236.862	4.52
237.245	4.23
237.628	4.23
238.011	5.07
238.394	5.95
238.777	5.58
239.16	7.93
239.543	3.4
239.925	5.73
240.308	5.69
240.691	5.02
241.073	4.18
241.456	4.51
241.838	4.79
242.221	4.22
242.603	5.24
242.986	4.36
243.368	5.78
243.75	5.23
244.133	5.04
244.515	5.11
244.897	5.15
245.279	4.99
245.661	5.23
246.043	5.19
246.425	3.62
246.807	4.74
247.189	5.36
247.571	5.52
247.953	5.17
248.335	5.44
248.717	5.46
249.098	5.25
249.48	5.08
249.862	5.01
250.243	4.93
250.625	5.5
251.006	5.29
251.388	5.4
251.769	4.75
252.151	4.7
252.532	4.87
252.913	5.36
253.295	4.51
253.676	5.48
254.057	5.32
254.438	5.61
254.819	6.44
255.2	5.48
255.581	5.77
255.962	4.73
256.343	4.66
256.724	4.5
257.105	5.72
257.486	4.98
257.867	5.19
258.247	5.38
258.628	5.49
259.009	5.78
259.389	4.84
259.77	5.38
260.15	5.12
260.531	4.81
260.911	5.14
261.292	5.01
261.672	4.84
262.052	4.95
262.432	4.82
262.813	4.74
263.193	4.6
263.573	5.33
263.953	4.58
264.333	5.07
264.713	4.52
265.093	5.33
265.473	5.73
265.853	5.01
266.233	5.82
266.612	4.07
266.992	5.13
267.372	4.97
267.752	4.94
268.131	5.14
268.511	4.81
268.89	5.02
269.27	4.96
269.649	5.36
270.029	4.74
270.408	4.94
270.787	4.36
271.167	4.66
271.546	4.83
271.925	4.59
272.304	4.6
272.683	5.16
273.062	4.79
273.441	4.7
273.82	5.01
274.199	4.94
274.578	4.55
274.957	4.68
275.336	4.99
275.715	4.99
276.093	5
276.472	4.61
276.851	4.96
277.229	4.55
277.608	4.67
277.986	4.89
278.365	4.86
278.743	5.11
279.122	4.56
279.5	5.24
279.878	4.91
280.257	5.2
280.635	4.85
281.013	4.82
281.391	4.89
281.769	4.64
282.147	4.84
282.525	4.87
282.903	4.39
283.281	4.37
283.659	4.91
284.037	4.5
284.415	4.55
284.792	5.05
285.17	4.38
285.548	4.33
285.925	4.92
286.303	4.6
286.68	4.84
287.058	4.97
287.435	4.86
287.813	4.61
288.19	4.71
288.567	4.84
288.945	4.75
289.322	5.53
289.699	5.17
290.076	5.1
290.453	4.57
290.83	4.75
291.207	4.94
291.584	4.89
291.961	4.72
292.338	5.19
292.715	4.77
293.092	4.63
293.469	5.13
293.845	4.69
294.222	4.73
294.599	5.26
294.975	4.66
295.352	4.65
295.728	5.05
296.105	4.62
296.481	4.74
296.858	5.28
297.234	4.76
297.61	5
297.986	4.84
298.363	5.01
298.739	5.34
299.115	4.84
299.491	5.06
299.867	4.82
300.243	5.08
300.619	4.74
300.995	5.06
301.371	5.59
301.746	4.92
302.122	4.88
302.498	5.3
302.874	5.66
303.249	5.68
303.625	5.63
304	5.2
304.376	5.53
304.751	5.19
305.127	5.54
305.502	5.23
305.878	5.33
306.253	5.18
306.628	5.62
307.003	5.29
307.378	5.47
307.754	4.6
308.129	5.12
308.504	5.88
308.879	5.63
309.254	5.08
309.629	4.84
310.003	5.5
310.378	5.17
310.753	5.05
311.128	5.17
311.502	5.6
311.877	5.1
312.252	5.34
312.626	5.09
313.001	5.37
313.375	5.26
313.75	5.14
314.124	5.18
314.498	5.02
314.873	5.29
315.247	5.51
315.621	5.85
315.995	5.33
316.369	5.22
316.743	5.38
317.117	5.95
317.491	4.84
317.865	5.51
318.239	5.79
318.613	5.59
318.987	5.54
319.361	5.09
319.734	5.33
320.108	5.64
320.482	5.63
320.855	5.25
321.229	4.69
321.602	5.45
321.976	4.84
322.349	5.58
322.723	5.21
323.096	5.4
323.469	5.87
323.843	5.27
324.216	5.4
324.589	5.42
324.962	5.7
325.335	5.57
325.708	5.73
326.081	5.5
326.454	5.49
326.827	5.28
327.2	5.39
327.573	5.68
327.945	5.33
328.318	5.48
328.691	5.24
329.063	5.44
329.436	5.25
329.809	5.11
330.181	5.92
330.553	5.12
330.926	5.52
331.298	5.9
331.671	6.21
332.043	5.72
332.415	5.77
332.787	5.39
333.159	6.28
333.532	5.61
333.904	5.54
334.276	5.45
334.648	5.25
335.02	5.64
335.391	5.55
335.763	5.33
336.135	5.28
336.507	5.71
336.879	5.64
337.25	5.73
337.622	5.46
337.993	5.57
338.365	5.5
338.736	5.44
339.108	5.57
339.479	5.31
339.851	5.34
340.222	5.65
340.593	5.49
340.964	5.28
341.336	5.39
341.707	5.71
342.078	5.88
342.449	5.72
342.82	5.69
343.191	5.44
343.562	5.81
343.933	5.66
344.303	5.16
344.674	5.77
345.045	5.75
345.416	5.7
345.786	5.96
346.157	5.58
346.527	5.72
346.898	5.86
347.268	5.88
347.639	5.38
348.009	5.59
348.38	5.68
348.75	5.46
349.12	5.36
349.49	5.54
349.861	5.79
350.231	5.75
350.601	5.33
350.971	5.72
351.341	5.68
351.711	5.65
352.081	5.67
352.45	5.64
352.82	5.6
353.19	5.55
353.56	5.1
353.929	5.83
354.299	5.63
354.669	5.65
355.038	5.95
355.408	5.76
355.777	5.56
356.147	5.62
356.516	6.04
356.885	6.03
357.254	5.68
357.624	6.05
357.993	5.62
358.362	5.39
358.731	5.64
359.1	5.39
359.469	5.5
359.838	5.71
360.207	5.69
360.576	5.74
360.945	5.91
361.314	5.69
361.682	5.42
362.051	5.36
362.42	5.67
362.788	5.9
363.157	6.04
363.525	5.66
363.894	5.92
364.262	5.68
364.631	5.71
364.999	5.77
365.367	5.36
365.735	5.69
366.104	5.67
366.472	5.44
366.84	5.62
367.208	5.87
367.576	5.71
367.944	5.49
368.312	5.84
368.68	5.9
369.048	6.04
369.416	5.94
369.783	5.8
370.151	5.86
370.519	5.76
370.886	5.79
371.254	5.74
371.621	5.68
371.989	5.92
372.356	5.69
372.724	6.16
373.091	6.19
373.458	5.54
373.826	5.74
374.193	6.17
374.56	6.03
374.927	5.87
375.294	5.79
375.661	6.08
376.028	5.82
376.395	5.48
376.762	5.86
377.129	5.8
377.496	5.66
377.863	5.65
378.229	5.84
378.596	5.82
378.963	5.88
379.329	5.72
379.696	5.57
380.062	6.05
380.429	5.62
380.795	5.92
381.161	6
381.528	5.88
381.894	5.65
382.26	6
382.626	5.6
382.993	6.04
383.359	5.89
383.725	5.8
384.091	6.24
384.457	5.96
384.823	5.59
385.188	5.68
385.554	5.97
385.92	5.88
386.286	5.92
386.651	5.98
387.017	5.8
387.383	6.06
387.748	5.66
388.114	5.69
388.479	5.98
388.845	6.11
389.21	5.69
389.575	5.99
389.94	5.95
390.306	5.81
390.671	5.98
391.036	6.07
391.401	5.84
391.766	5.99
392.131	6.07
392.496	6.06
392.861	5.9
393.226	5.96
393.591	5.81
393.956	6.07
394.32	5.97
394.685	5.94
395.05	6.06
395.414	6.13
395.779	6.11
396.143	6.09
396.508	6.06
396.872	5.93
397.236	6
397.601	6.14
397.965	5.82
398.329	6.15
398.694	6.2
399.058	6.1
399.422	6.25
399.786	6.33
400.15	6.04
400.514	5.96
400.878	5.9
401.242	6.08
401.605	6.28
401.969	6.25
402.333	5.92
402.697	6.02
403.06	5.85
403.424	6.17
403.787	5.8
404.151	6.23
404.514	6.2
404.878	6.17
405.241	6.1
405.604	6.31
405.968	6.05
406.331	6.06
406.694	6.04
407.057	6.1
407.42	5.9
407.783	6.2
408.146	5.96
408.509	6.43
408.872	6.23
409.235	6
409.598	6.2
409.961	5.79
410.323	6.16
410.686	6.22
411.049	6
411.411	6.27
411.774	6.24
412.136	6.26
412.499	6.23
412.861	6.1
413.223	6.18
413.586	6.16
413.948	6.34
414.31	6.3
414.672	6.36
415.035	6.43
415.397	6.47
415.759	6.18
416.121	6.22
416.483	6.35
416.845	6.23
417.206	6.23
417.568	6.44
417.93	6.23
418.292	6.28
418.653	6.12
419.015	6.14
419.377	6.27
419.738	6.14
420.1	6.22
420.461	6.13
420.822	6.23
421.184	6.18
421.545	6.03
421.906	6.2
422.267	6.12
422.629	6.07
422.99	6.16
423.351	6.18
423.712	6.18
424.073	6.16
424.434	6.11
424.795	6.33
425.155	6.32
425.516	6.15
425.877	6.09
426.238	6.19
426.598	6.12
426.959	6.13
427.32	6.23
427.68	6.2
428.041	6.13
428.401	6.28
428.761	6.29
429.122	6.45
429.482	6.27
429.842	6.28
430.202	6.49
430.563	6.54
430.923	6.33
431.283	6.42
431.643	6.42
432.003	6.27
432.363	6.44
432.722	6.34
433.082	6.31
433.442	6.41
433.802	6.3
434.161	6.34
434.521	6.47
434.881	6.35
435.24	6.33
435.6	6.4
435.959	6.42
436.319	6.42
436.678	6.25
437.037	6.42
437.396	6.2
437.756	6.54
438.115	6.24
438.474	6.45
438.833	6.34
439.192	6.46
439.551	6.3
439.91	6.42
440.269	6.45
440.628	6.47
440.987	6.41
441.345	6.41
441.704	6.44
442.063	6.33
442.421	6.4
442.78	6.3
443.138	6.33
443.497	6.51
443.855	6.5
444.214	6.53
444.572	6.55
444.93	6.5
445.288	6.55
445.647	6.56
446.005	6.67
446.363	6.64
446.721	6.53
447.079	6.44
447.437	6.47
447.795	6.4
448.153	6.56
448.51	6.44
448.868	6.48
449.226	6.48
449.584	6.51
449.941	6.41
450.299	6.63
450.656	6.4
451.014	6.45
451.371	6.59
451.729	6.6
452.086	6.55
452.443	6.7
452.801	6.49
453.158	6.75
453.515	6.65
453.872	6.62
454.229	6.52
454.586	6.56
454.943	6.57
455.3	6.63
455.657	6.66
456.014	6.71
456.371	6.81
456.727	6.76
457.084	6.67
457.441	6.71
457.797	6.67
458.154	6.66
458.51	6.66
458.867	6.69
459.223	6.7
459.58	6.74
459.936	6.6
460.292	6.82
460.648	6.59
461.005	6.64
461.361	6.78
461.717	6.59
462.073	6.55
462.429	6.56
462.785	6.71
463.141	6.82
463.496	6.67
463.852	6.75
464.208	6.79
464.564	6.72
464.919	6.76
465.275	6.8
465.631	6.84
465.986	6.78
466.342	6.57
466.697	6.87
467.052	6.87
467.408	6.63
467.763	6.72
468.118	6.83
468.473	7
468.829	6.86
469.184	6.88
469.539	6.7
469.894	6.86
470.249	6.94
470.603	7.03
470.958	6.85
471.313	6.69
471.668	6.85
472.023	6.89
472.377	7.01
472.732	6.87
473.086	6.87
473.441	6.81
473.795	6.88
474.15	6.79
474.504	6.95
474.859	6.93
475.213	7.05
475.567	7.11
475.921	6.86
476.275	6.8
476.63	7.03
476.984	6.87
477.338	6.89
477.692	6.99
478.045	7.17
478.399	7.11
478.753	6.99
479.107	6.96
479.461	7.03
479.814	6.89
480.168	6.83
480.521	6.9
480.875	6.88
481.228	7.01
481.582	6.94
481.935	7.03
482.289	6.9
482.642	6.9
482.995	7.08
483.348	7.04
483.701	6.89
484.055	6.83
484.408	6.95
484.761	6.82
485.114	6.79
485.466	6.69
485.819	6.69
486.172	6.66
486.525	6.66
486.878	6.66
487.23	6.7
487.583	6.75
487.936	6.9
488.288	6.81
488.641	6.84
488.993	6.82
489.345	6.85
489.698	6.81
490.05	6.77
490.402	6.76
490.754	6.89
491.107	6.84
491.459	6.96
491.811	7.09
492.163	7.06
492.515	7
492.866	6.93
493.218	6.95
493.57	6.95
493.922	6.94
494.274	6.94
494.625	6.92
494.977	7.01
495.328	7.03
495.68	7.13
496.031	7.22
496.383	7.22
496.734	7.22
497.086	7.14
497.437	7.12
497.788	7.33
498.139	7.13
498.49	7.22
498.842	7.21
499.193	7.23
499.544	7.11
499.894	7.2
500.245	7.18
500.596	7.36
500.947	7.44
501.298	7.34
501.648	7.16
501.999	7.36
502.35	7.29
502.7	7.4
503.051	7.42
503.401	7.54
503.752	7.48
504.102	7.38
504.452	7.26
504.803	7.38
505.153	7.46
505.503	7.44
505.853	7.4
506.203	7.39
506.553	7.35
506.903	7.45
507.253	7.4
507.603	7.35
507.953	7.62
508.303	7.56
508.652	7.59
509.002	7.58
509.352	7.33
509.701	7.49
510.051	7.59
510.4	7.36
510.75	7.49
511.099	7.52
511.449	7.44
511.798	7.57
512.147	7.56
512.496	7.62
512.846	7.59
513.195	7.56
513.544	7.49
513.893	7.57
514.242	7.59
514.591	7.59
514.939	7.51
515.288	7.68
515.637	7.69
515.986	7.69
516.334	7.79
516.683	7.75
517.032	7.68
517.38	7.72
517.729	7.79
518.077	7.77
518.426	7.64
518.774	7.61
519.122	7.8
519.47	7.68
519.819	7.79
520.167	7.83
520.515	7.68
520.863	7.81
521.211	7.72
521.559	7.66
521.907	7.76
522.255	7.74
522.602	7.91
522.95	7.84
523.298	7.87
523.645	7.95
523.993	7.9
524.341	8.03
524.688	7.99
525.036	7.94
525.383	8.02
525.73	7.97
526.078	8.01
526.425	8.1
526.772	8.02
527.119	7.95
527.466	7.84
527.814	8.02
528.161	8.01
528.508	7.98
528.854	7.92
529.201	7.96
529.548	8
529.895	7.91
530.242	7.85
530.588	7.81
530.935	7.78
531.282	7.81
531.628	7.84
531.975	7.88
532.321	7.9
532.667	8.16
533.014	8.15
533.36	8.06
533.706	8.24
534.052	8.22
534.399	8.22
534.745	8.15
535.091	8.07
535.437	8.2
535.783	8.14
536.129	8.2
536.474	8.25
536.82	8.26
537.166	8.28
537.512	8.43
537.857	8.46
538.203	8.4
538.549	8.37
538.894	8.32
539.239	8.49
539.585	8.37
539.93	8.36
540.276	8.46
540.621	8.56
540.966	8.6
541.311	8.48
541.656	8.58
542.001	8.58
542.346	8.62
542.691	8.59
543.036	8.5
543.381	8.44
543.726	8.49
544.071	8.45
544.415	8.58
544.76	8.53
545.105	8.58
545.449	8.65
545.794	8.68
546.138	8.71
546.483	8.77
546.827	8.85
547.171	8.73
547.516	8.86
547.86	8.96
548.204	8.86
548.548	8.87
548.892	8.96
549.236	8.94
549.58	8.95
549.924	8.89
550.268	8.98
550.612	9
550.956	9.07
551.3	9.12
551.643	9.18
551.987	9.27
552.33	9.32
552.674	9.25
553.017	9.4
553.361	9.32
553.704	9.04
554.048	9.29
554.391	9.36
554.734	9.31
555.077	9.32
555.42	9.44
555.764	9.41
556.107	9.38
556.45	9.44
556.793	9.31
557.135	9.58
557.478	9.58
557.821	9.73
558.164	9.57
558.507	9.62
558.849	9.65
559.192	9.56
559.534	9.49
559.877	9.45
560.219	9.52
560.562	9.47
560.904	9.7
561.246	9.72
561.589	9.71
561.931	9.73
562.273	9.82
562.615	9.79
562.957	9.97
563.299	9.85
563.641	9.99
563.983	9.79
564.325	10.23
564.667	10.14
565.008	10.05
565.35	10.07
565.692	10.08
566.033	10.2
566.375	10.14
566.716	10.18
567.058	10.11
567.399	10.09
567.741	10.19
568.082	10.06
568.423	10.15
568.764	10.22
569.105	10.16
569.447	10.12
569.788	10.33
570.129	10.44
570.47	10.47
570.811	10.38
571.151	10.41
571.492	10.56
571.833	10.35
572.174	10.49
572.514	10.62
572.855	10.5
573.195	10.49
573.536	10.55
573.876	10.54
574.217	10.62
574.557	10.44
574.898	10.6
575.238	10.72
575.578	10.74
575.918	10.65
576.258	10.65
576.598	10.67
576.938	10.87
577.278	10.97
577.618	10.79
577.958	10.75
578.298	10.93
578.638	10.87
578.977	11.01
579.317	10.83
579.657	11
579.996	11
580.336	11.01
580.675	10.98
581.014	11.01
581.354	11.37
581.693	11.17
582.032	11.46
582.372	11.23
582.711	11.24
583.05	11.52
583.389	11.15
583.728	11.45
584.067	11.16
584.406	11.3
584.745	11.62
585.083	11.47
585.422	11.77
585.761	11.47
586.1	11.73
586.438	11.77
586.777	11.64
587.115	11.49
587.454	11.79
587.792	12
588.13	11.76
588.469	11.69
588.807	11.85
589.145	11.67
589.483	11.74
589.821	11.78
590.159	11.88
590.497	12.08
590.835	11.74
591.173	12.01
591.511	12.15
591.849	11.98
592.187	12.3
592.524	12.24
592.862	12.05
593.2	12.36
593.537	12.1
593.875	12.14
594.212	12.38
594.55	12.15
594.887	12.22
595.224	12.48
595.561	12.17
595.899	12.64
596.236	12.52
596.573	12.48
596.91	12.34
597.247	12.55
597.584	12.58
597.921	12.55
598.258	12.54
598.594	12.59
598.931	12.66
599.268	12.65
599.604	12.6
599.941	12.66
600.277	12.65
600.614	12.95
600.95	12.73
601.287	12.76
601.623	12.9
601.959	12.96
602.296	12.69
602.632	13.04
602.968	12.98
603.304	12.94
603.64	12.92
603.976	12.99
604.312	13.12
604.648	13.2
604.984	13.13
605.319	13.11
605.655	13.35
605.991	13.22
606.326	13.22
606.662	13.37
606.998	13.15
607.333	13.37
607.668	13.24
608.004	13.32
608.339	13.36
608.674	13.59
609.01	13.5
609.345	13.57
609.68	13.72
610.015	13.71
610.35	13.62
610.685	13.57
611.02	13.78
611.355	13.63
611.689	13.79
612.024	13.74
612.359	13.73
612.694	13.79
613.028	13.68
613.363	14
613.697	13.65
614.032	14.04
614.366	14.05
614.7	14.18
615.035	13.91
615.369	14.31
615.703	13.99
616.037	14.51
616.371	14.27
616.705	14.17
617.039	14.77
617.373	14.68
617.707	14.4
618.041	14.2
618.375	14.25
618.709	14.74
619.042	14.74
619.376	14.54
619.71	14.44
620.043	14.28
620.377	14.81
620.71	14.91
621.043	14.95
621.377	15.01
621.71	15.02
622.043	15.14
622.376	14.91
622.709	14.68
623.043	14.65
623.376	14.88
623.709	14.83
624.041	14.54
624.374	15.08
624.707	14.78
625.04	15.12
625.373	15.13
625.705	14.96
626.038	14.75
626.37	15.28
626.703	15.55
627.035	15.11
627.368	14.93
627.7	15.52
628.032	15.47
628.365	15.21
628.697	15.28
629.029	15.2
629.361	15.63
629.693	15.46
630.025	15.37
630.357	15.27
630.689	15.4
631.021	15.31
631.353	15.64
631.684	15.25
632.016	15.49
632.348	15.84
632.679	15.92
633.011	15.59
633.342	15.57
633.674	15.64
634.005	15.41
634.336	15.46
634.668	16.03
634.999	15.81
635.33	15.76
635.661	16.1
635.992	16.04
636.323	16.17
636.654	16.12
636.985	15.8
637.316	16.25
637.647	16.05
637.977	15.87
638.308	15.82
638.639	15.88
638.969	16.22
639.3	16.17
639.63	16.53
639.961	16.47
640.291	16.02
640.622	16.57
640.952	16.44
641.282	16.79
641.612	16.4
641.943	16.33
642.273	16.57
642.603	16.66
642.933	16.75
643.263	16.83
643.592	16.44
643.922	16.8
644.252	16.65
644.582	16.74
644.911	17.15
645.241	17.05
645.571	16.34
645.9	17
646.23	17.06
646.559	16.9
646.888	17
647.218	16.69
647.547	17.04
647.876	17.45
648.205	16.94
648.534	17.39
648.863	17.16
649.192	17.17
649.521	17.52
649.85	17.11
650.179	17.78
650.508	17.14
650.837	17.47
651.165	17.64
651.494	17.18
651.822	17.3
652.151	17.5
652.479	17.61
652.808	17.49
653.136	17.59
653.465	17.46
653.793	17.92
654.121	17.52
654.449	17.93
654.777	18.11
655.105	17.62
655.433	18.26
655.761	17.97
656.089	17.6
656.417	18.16
656.745	17.81
657.073	17.98
657.4	17.84
657.728	18.19
658.056	17.8
658.383	18.44
658.711	17.77
659.038	17.76
659.365	18.27
659.693	18
660.02	17.91
660.347	18.48
660.674	18.41
661.001	18.36
661.329	18.67
661.656	18.51
661.982	17.93
662.309	18.57
662.636	18.31
662.963	18.44
663.29	18.96
663.616	17.87
663.943	18.43
664.27	18.56
664.596	18.33
664.923	18.75
665.249	18.8
665.576	18.54
665.902	18.74
666.228	18.57
666.554	18.56
666.881	19.22
667.207	19.5
667.533	19.17
667.859	18.96
668.185	19.05
668.511	19.38
668.837	18.78
669.162	19.05
669.488	19.36
669.814	19.39
670.139	19.35
670.465	18.88
670.791	19.69
671.116	19.5
671.442	18.9
671.767	19.05
672.092	19.52
672.418	19.8
672.743	19.21
673.068	19.85
673.393	19.31
673.718	19.31
674.043	19.95
674.368	19.32
674.693	19.58
675.018	20.33
675.343	19.46
675.667	20.05
675.992	19.75
676.317	19.45
676.641	19.35
676.966	19.78
677.29	19.66
677.615	19.8
677.939	20.16
678.264	19.67
678.588	20.09
678.912	19.85
679.236	19.82
679.56	19.55
679.885	20.05
680.209	20.07
680.532	19.78
680.856	20.38
681.18	20.03
681.504	20.84
681.828	20.89
682.152	20.23
682.475	20.43
682.799	20.69
683.122	20.09
683.446	21.18
683.769	20.38
684.093	19.78
684.416	20.78
684.739	20
685.062	21.2
685.386	20.88
685.709	20.82
686.032	21.11
686.355	20.44
686.678	20.69
687.001	20.3
687.324	20.68
687.646	21.06
687.969	20.7
688.292	21.06
688.614	21.17
688.937	21.53
689.26	21.04
689.582	20.88
689.904	20.76
690.227	21.25
690.549	21.64
690.871	21.31
691.194	20.56
691.516	21.59
691.838	21.15
692.16	21.12
692.482	21.49
692.804	21.47
693.126	21.29
693.448	21.67
693.769	21.88
694.091	20.73
694.413	20.98
694.735	21.29
695.056	21
695.378	20.92
695.699	21.81
696.021	21.37
696.342	21.99
696.663	22.11
696.984	21.25
697.306	21.74
697.627	20.59
697.948	22.38
698.269	21.51
698.59	21.79
698.911	22.12
699.232	22.31
699.553	21.62
699.873	22.24
700.194	21.86
700.515	22.2
700.835	22.12
701.156	21.98
701.477	21.89
701.797	22.11
702.117	22.29
702.438	22.15
702.758	22.48
703.078	21.55
703.398	22.37
703.719	21.4
704.039	21.77
704.359	22.48
704.679	21.88
704.999	22.25
705.319	22.82
705.638	22.57
705.958	21.64
706.278	21.85
706.597	21.89
706.917	23.01
707.237	22.43
707.556	22.32
707.876	21.51
708.195	22.39
708.514	22.5
708.834	22.5
709.153	22.48
709.472	23.05
709.791	23.29
710.11	22.26
710.429	22.19
710.748	23.44
711.067	23.1
711.386	23.26
711.705	24.96
712.023	23.4
712.342	23.44
712.661	23.9
712.979	24.13
713.298	23.17
713.616	22.74
713.935	22.98
714.253	22.65
714.572	23.03
714.89	22.69
715.208	22.96
715.526	23.56
715.844	23.73
716.162	23.05
716.48	23.87
716.798	22.83
717.116	23.38
717.434	23.21
717.752	22.77
718.069	24.46
718.387	23.77
718.705	23.24
719.022	24.13
719.34	23.26
719.657	23.63
719.975	23.96
720.292	22.91
720.609	23.98
720.927	24.06
721.244	23.69
721.561	24.5
721.878	24.26
722.195	24.24
722.512	23.37
722.829	24.93
723.146	24.05
723.463	24.57
723.779	24.69
724.096	24.84
724.413	24.9
724.729	23.4
725.046	24.98
725.362	24.59
725.679	24.48
725.995	23.12
726.311	24.28
726.628	24.12
726.944	24.17
727.26	25.89
727.576	25.55
727.892	26.04
728.208	24.42
728.524	24.14
728.84	22.94
729.156	24.77
729.472	24
729.787	24
730.103	23.66
730.419	24.77
730.734	25.91
731.05	24.9
731.365	24.64
731.681	25.2
731.996	23.53
732.311	24.54
732.626	25.58
732.942	24.73
733.257	24.32
733.572	25.39
733.887	24.76
734.202	25.96
734.517	26.03
734.832	24.95
735.146	25.18
735.461	25.26
735.776	25.58
736.091	24.84
736.405	25.55
736.72	25.15
737.034	25.67
737.349	25.11
737.663	25.75
737.977	24.26
738.292	26.19
738.606	25.43
738.92	26.83
739.234	23.6
739.548	24.65
739.862	25.49
740.176	24.1
740.49	25.61
740.804	25.81
741.117	24.08
741.431	24.85
741.745	26.72
742.058	25.07
742.372	26.27
742.685	25.1
742.999	24.97
743.312	26.43
743.626	26.95
743.939	25.2
744.252	26.07
744.565	23.09
744.878	25.68
745.191	25.97
745.505	26.59
745.817	28.24
746.13	26.58
746.443	25.32
746.756	24.33
747.069	27.66
747.381	25.67
747.694	25.78
748.007	28.38
748.319	26.6
748.632	25.69
748.944	24.88
749.256	26.83
749.569	26.38
749.881	25.41
750.193	26.45
750.505	27.22
750.817	26.29
751.129	25.2
751.441	27.28
751.753	28.57
752.065	28.04
752.377	26.13
752.689	27.67
753	25.97
753.312	26.11
753.624	27.14
753.935	27.45
754.247	27.27
754.558	27.14
754.869	27.7
755.181	27.6
755.492	26.35
755.803	26.33
756.114	26.42
756.425	26.83
756.736	27.66
757.047	26.58
757.358	27.11
757.669	26.81
757.98	24.4
758.291	26.71
758.601	27.95
758.912	27.34
759.223	26.94
759.533	26.77
759.844	29.18
760.154	26.85
760.464	27.81
760.775	25.82
761.085	28.73
761.395	28.19
761.705	27
762.016	28.15
762.326	27.65
762.636	27.36
762.945	27.89
763.255	26.7
763.565	26.84
763.875	27.06
764.185	29.28
764.494	28.12
764.804	28.42
765.113	29.32
765.423	27.23
765.732	28.07
766.042	27.89
766.351	28.3
766.66	26.82
766.97	28.71
767.279	28.92
767.588	28.56
767.897	27.97
768.206	27.24
768.515	29.53
768.824	28.94
769.133	27.63
769.441	27.57
769.75	27.97
770.059	29.13
770.367	27.04
770.676	29.34
770.984	27.12
771.293	29.41
771.601	28.6
771.91	28.19
772.218	29.58
772.526	30.64
772.834	26.43
773.142	29.3
773.45	29.44
773.758	26.51
774.066	25.79
774.374	29.34
774.682	29.26
774.99	29.06
775.298	31.37
775.605	29.86
775.913	29.16
776.22	28.43
776.528	28.72
776.835	28.21
777.143	27.09
777.45	30.46
777.757	28.85
778.065	30.26
778.372	26.84
778.679	27.96
778.986	30.06
779.293	30.84
779.6	25.91
779.907	28.96
780.214	29.27
780.52	26.53
780.827	28.95
781.134	27.12
781.44	27.58
781.747	26.64
782.053	24.27
782.36	28.27
782.666	33.4
782.973	28.57
783.279	28.01
783.585	29.6
783.891	28.51
784.197	28.12
784.503	31.07
784.809	28.01
785.115	28.48
785.421	30.76
785.727	33.48
786.033	28.39
786.339	34.32
786.644	32.39
786.95	31.72
787.255	30.85
787.561	31.03
787.866	26.62
788.172	29.35
788.477	31.05
788.782	25.45
789.088	30.61
789.393	29.97
789.698	32.51
790.003	26.94
790.308	30.84
790.613	28.52
790.918	28.9
791.223	29.08
791.527	29.96
791.832	31.1
792.137	30.6
792.441	29.44
792.746	31.34
793.05	29.31
793.355	31.07
793.659	27.65
793.963	30.64
794.268	30.64
794.572	30.69
794.876	29.31
795.18	31.89
795.484	31.99
795.788	29.91
796.092	32.9
796.396	28.54
796.7	29.54
797.004	28.86
797.307	25.03
797.611	25.77
797.915	30.03
798.218	31.04
798.522	32.25
798.825	30.4
799.128	30.04
799.432	29.79
799.735	33.18
800.038	28.26
800.341	27.71
800.644	33.96
800.947	29.33
801.25	24.93
801.553	31.27
801.856	29.6
802.159	34.85
802.462	28.7
802.764	32.13
803.067	28.54
803.37	32.79
803.672	28.3
803.975	31.6
804.277	29.24
804.579	33.59
804.882	28.59
805.184	30.14
805.486	28.66
805.788	32.38
806.09	31.38
806.392	32.57
806.694	34.23
806.996	29.21
807.298	30.07
807.6	30.89
807.902	30.09
808.203	32.62
808.505	28.62
808.807	31.47
809.108	34.17
809.409	33.23
809.711	34.58
810.012	35.32
810.313	27.78
810.615	34.22
810.916	30.96
811.217	28.28
811.518	30.18
811.819	37.75
812.12	32.68
812.421	25.86
812.722	33.84
813.023	33.29
813.323	33.54
813.624	27.9
813.925	29.49
814.225	28.49
814.526	30.62
814.826	33.32
815.126	27.36
815.427	33.03
815.727	31.8
816.027	35.79
816.327	35.56
816.627	31.78
816.927	31.94
817.227	33.42
817.527	33.84
817.827	31.79
818.127	37.56
818.427	33.88
818.727	31.84
819.026	37.45
819.326	33.78
819.625	36.39
819.925	31.16
820.224	31.21
820.524	30.58
820.823	36.49
821.122	39.29
821.421	28.55
821.72	38.3
822.019	35.23
822.318	28.76
822.617	30.19
822.916	31.02
823.215	32.53
823.514	33.41
823.813	31.67
824.111	31.39
824.41	34.29
824.709	32.98
825.007	33.32
825.306	32.01
825.604	32.36
825.902	33.44
826.201	33.52
826.499	33.65
826.797	34.47
827.095	33.38
827.393	33.5
827.691	31.76
827.989	32.59
828.287	32.46
828.585	33.32
828.882	34.04
829.18	34.32
829.478	35.33
829.775	34.61
830.073	33.12
830.37	32.99
830.668	32.93
830.965	32.51
831.263	33.92
831.56	35.38
831.857	34.31
832.154	31.3
832.451	32.29
832.748	32.28
833.045	37.71
833.342	36.95
833.639	32.51
833.936	33.31
834.232	31.21
834.529	36.16
834.826	31.4
835.122	33.97
835.419	35.66
835.715	36.58
836.012	37.78
836.308	34.44
836.604	36.64
836.901	37.46
837.197	34.18
837.493	33.96
837.789	36.07
838.085	34.24
838.381	34.9
838.677	32.78
838.972	32.94
839.268	33.95
839.564	30.39
839.86	36.13
840.155	35.29
840.451	25.51
840.746	31.11
841.042	34.03
841.337	32.45
841.632	39.9
841.928	26.59
842.223	32.65
842.518	31.35
842.813	36.95
843.108	30.44
843.403	26.23
843.698	38.99
843.993	34.11
844.287	34.29
844.582	33.18
844.877	34.46
845.171	31.57
845.466	36.48
845.761	32.24
846.055	35.47
846.349	25.18
846.644	30.99
846.938	17.33
847.232	39.11
847.526	34.22
847.82	28.92
848.114	30.93
848.408	35.53
848.702	39.35
848.996	29.85
849.29	32.51
849.584	28.55
849.877	36.76
850.171	32.26
850.465	31.44
850.758	36.44
851.052	28.28
851.345	56.11
851.638	43.17
851.932	26.05
852.225	32.5
852.518	42.65
852.811	37.75
853.104	36.85
853.397	30.03
853.69	33.36
853.983	21.55
854.276	39.54
854.569	44.23
854.861	43.87
855.154	27.59
855.447	37.56
855.739	36.59
856.032	29.15
856.324	26.26
856.616	64.02
856.909	38.67
857.201	18.92
857.493	18.69
857.785	42.6
858.077	3.21
858.369	30.87
858.661	19.68
858.953	21.49
859.245	25.65
859.537	18.14
859.829	28.63
860.12	31.53
860.412	30.15
860.703	48.73
860.995	51.38
861.286	32.79
861.578	19.08
861.869	32.55
862.16	44.38
862.452	26.82
862.743	34.01
863.034	38.16
863.325	31.45
863.616	40.48
863.907	35.75
864.198	24.2
864.488	26.66
864.779	44.92
865.07	45.91
865.36	72.75
865.651	31.1
865.941	51.1
866.232	24.7
866.522	19.37
866.813	45.71
867.103	24.18
867.393	29.67
867.683	34.53
867.973	42.3
868.263	19.47
868.553	22.83
868.843	30.3
869.133	29.27
869.423	40.27
869.713	46.89
870.002	53.69
870.292	44
870.582	33.57
870.871	45.08
871.161	36.33
871.45	11.93
871.739	37.58
872.029	46.53
872.318	37.32
872.607	25.43
872.896	36.65
873.185	-3.34
873.474	41.19
873.763	38.83
874.052	37.62
874.341	40.18
874.63	52.45
874.918	36.59
875.207	41.66
875.496	30.69
875.784	59.58
876.073	3.68
876.361	32.56
876.649	39.55
876.938	35.34
877.226	42.14
877.514	25.89
877.802	38.91
878.09	61.47
878.378	27.56
878.666	25.6
878.954	36.08
879.242	46.74
879.53	28.62
879.817	24.13
880.105	28.79
880.392	31.89
880.68	42.17
880.967	40.91
881.255	59.96
881.542	48.98
881.83	35.79
882.117	44.11
882.404	34.92
882.691	33.94
882.978	48.52
883.265	34.25
883.552	31.03
883.839	42.75
884.126	42.87
884.413	48.85
884.699	34.45
884.986	33.22
885.273	40.52
885.559	40.52
885.846	40.52
