Data from 0370_forehead_Reflection__2__148.txt Node

Date: Mon Dec 11 19:13:39 CST 2023
User: ToomeyLab
Spectrometer: FLMS14357
Trigger mode: 0
Integration Time (sec): 1.000000E-2
Scans to average: 100
Electric dark correction enabled: true
Nonlinearity correction enabled: false
Boxcar width: 0
XAxis mode: Wavelengths
Number of Pixels in Spectrum: 2048
>>>>>Begin Spectral Data<<<<<
189.047	-94550
189.435	-94550
189.823	-94550
190.211	76.52
190.599	-19.75
190.987	250.42
191.375	136.96
191.763	184.58
192.151	120.97
192.538	-159.4
192.926	143850
193.314	237.83
193.702	-863.17
194.089	-145.59
194.477	26.94
194.864	-1747.08
195.252	14.24
195.639	129.72
196.027	69.97
196.414	-336.47
196.801	469.25
197.189	-17.28
197.576	54.39
197.963	109.75
198.351	14.14
198.738	18.34
199.125	-24.23
199.512	3.19
199.899	23.27
200.286	23.44
200.673	-119.57
201.06	29.24
201.447	19.6
201.833	19.21
202.22	61.02
202.607	-47.7
202.994	51.74
203.38	-4.21
203.767	64.53
204.154	42.57
204.54	1.7
204.927	16.15
205.313	4.45
205.699	-138.12
206.086	9.56
206.472	14.9
206.858	10.6
207.245	-8.23
207.631	31.45
208.017	16.47
208.403	-1.58
208.789	-23.9
209.175	18.57
209.561	-8.3
209.947	-7.76
210.333	24.53
210.719	80.24
211.105	48.42
211.491	24.82
211.876	15.83
212.262	-0.5
212.648	27.5
213.034	20
213.419	16
213.805	-3.74
214.19	25.93
214.576	18.32
214.961	-0.71
215.346	-18.1
215.732	37.58
216.117	28.57
216.502	40.64
216.888	-6.05
217.273	8.76
217.658	-0.88
218.043	12.27
218.428	7.6
218.813	22.08
219.198	13.15
219.583	6.83
219.968	7.39
220.353	-19.23
220.738	27.98
221.122	25.22
221.507	29.55
221.892	9.68
222.276	15.13
222.661	-7.58
223.046	4
223.43	16.16
223.815	0.1
224.199	12.61
224.583	1.9
224.968	-3.24
225.352	6.31
225.736	7.77
226.121	6.84
226.505	4.2
226.889	8.68
227.273	4.75
227.657	13.04
228.041	7.15
228.425	4.18
228.809	0.15
229.193	3.68
229.577	1.79
229.961	4.07
230.344	3.13
230.728	2.77
231.112	3.11
231.495	3.51
231.879	3.34
232.263	2.86
232.646	1.81
233.03	1.8
233.413	3.06
233.797	4.41
234.18	4.58
234.563	2.48
234.946	4.23
235.33	4.85
235.713	2.16
236.096	4.84
236.479	3.58
236.862	2.96
237.245	2.89
237.628	0.83
238.011	4.26
238.394	3.21
238.777	2.3
239.16	4.86
239.543	4.58
239.925	2.58
240.308	3.89
240.691	4.46
241.073	3.35
241.456	4.61
241.838	6.51
242.221	3.63
242.603	3.59
242.986	2.27
243.368	3.21
243.75	3.54
244.133	3.11
244.515	2.81
244.897	3.13
245.279	3.3
245.661	3.72
246.043	3.32
246.425	3.89
246.807	2.98
247.189	3.21
247.571	3.53
247.953	3.51
248.335	3.27
248.717	3.23
249.098	3.18
249.48	3.28
249.862	3.7
250.243	3.54
250.625	3.46
251.006	2.48
251.388	3.52
251.769	4.02
252.151	4.75
252.532	3.31
252.913	3.4
253.295	4.04
253.676	3.36
254.057	3.4
254.438	3.67
254.819	3.51
255.2	2.21
255.581	2.53
255.962	3.88
256.343	2.97
256.724	3.99
257.105	4.17
257.486	2.63
257.867	3.53
258.247	2.4
258.628	2.96
259.009	4.11
259.389	3.79
259.77	3.47
260.15	2.75
260.531	3.21
260.911	2.89
261.292	2.54
261.672	3.15
262.052	3.35
262.432	3.3
262.813	3.28
263.193	2.84
263.573	3.67
263.953	2.61
264.333	2.44
264.713	3.82
265.093	2.88
265.473	3.67
265.853	2.94
266.233	3.71
266.612	3.26
266.992	4.16
267.372	3.73
267.752	3.26
268.131	2.96
268.511	2.47
268.89	3.36
269.27	3.87
269.649	3.56
270.029	3.71
270.408	2.73
270.787	2.66
271.167	2.31
271.546	2.79
271.925	3.17
272.304	2.41
272.683	2.82
273.062	2.6
273.441	2.65
273.82	2.86
274.199	3.1
274.578	3.06
274.957	3.19
275.336	3.48
275.715	2.97
276.093	3.91
276.472	3.42
276.851	3.73
277.229	3.67
277.608	2.69
277.986	3.63
278.365	2.71
278.743	3.48
279.122	2.79
279.5	3.34
279.878	2.65
280.257	2.69
280.635	3.06
281.013	2.99
281.391	3.3
281.769	2.47
282.147	2.69
282.525	2.42
282.903	3.22
283.281	2.8
283.659	2.74
284.037	2.76
284.415	2.47
284.792	3.27
285.17	3.07
285.548	2.64
285.925	2.82
286.303	3
286.68	3.11
287.058	2.97
287.435	3.09
287.813	3.38
288.19	2.94
288.567	2.93
288.945	2.65
289.322	2.68
289.699	3.02
290.076	2.74
290.453	3.67
290.83	3.58
291.207	3.18
291.584	3.3
291.961	3.29
292.338	2.95
292.715	3.66
293.092	3.37
293.469	3.35
293.845	2.83
294.222	3.33
294.599	2.62
294.975	3.27
295.352	3.22
295.728	2.7
296.105	2.87
296.481	3.02
296.858	3.09
297.234	4
297.61	3.59
297.986	3.81
298.363	3.6
298.739	3.66
299.115	3.29
299.491	3.56
299.867	3.43
300.243	3.65
300.619	3.77
300.995	3.59
301.371	3.39
301.746	3.57
302.122	3.95
302.498	4.12
302.874	4.26
303.249	4.12
303.625	3.7
304	3.98
304.376	3.88
304.751	3.93
305.127	4.09
305.502	3.98
305.878	3.97
306.253	4.43
306.628	4.46
307.003	4.46
307.378	4.09
307.754	4.42
308.129	3.8
308.504	4.13
308.879	3.77
309.254	5.25
309.629	5.15
310.003	4.49
310.378	4.51
310.753	4.59
311.128	5.05
311.502	4.52
311.877	4.68
312.252	4.79
312.626	4.91
313.001	5.27
313.375	5.14
313.75	4.66
314.124	5
314.498	4.35
314.873	5.24
315.247	5.39
315.621	6.63
315.995	5.05
316.369	5.48
316.743	5.77
317.117	5.33
317.491	5.71
317.865	5.14
318.239	5.49
318.613	6.21
318.987	5.16
319.361	6.47
319.734	5.66
320.108	5.51
320.482	5.81
320.855	5.5
321.229	5.7
321.602	5.52
321.976	6.85
322.349	6.15
322.723	6.49
323.096	6.64
323.469	6.7
323.843	6.9
324.216	6.85
324.589	7.02
324.962	6.65
325.335	6.32
325.708	7.03
326.081	7.05
326.454	7.23
326.827	6.63
327.2	6.34
327.573	6.55
327.945	7.06
328.318	7.13
328.691	6.82
329.063	6.99
329.436	7.25
329.809	6.94
330.181	7.36
330.553	7.28
330.926	7.15
331.298	7.98
331.671	7.42
332.043	7.26
332.415	7.19
332.787	8.05
333.159	7.31
333.532	7.78
333.904	7.55
334.276	8.03
334.648	7.93
335.02	7.42
335.391	7.5
335.763	7.41
336.135	8.04
336.507	7.99
336.879	8.6
337.25	7.87
337.622	8.31
337.993	7.7
338.365	7.97
338.736	8.25
339.108	8.23
339.479	8.01
339.851	8.03
340.222	8.47
340.593	8.22
340.964	8.49
341.336	8.09
341.707	8.6
342.078	9.24
342.449	8.16
342.82	8.18
343.191	8.16
343.562	8.66
343.933	8.42
344.303	8.63
344.674	8.99
345.045	8.62
345.416	8.58
345.786	9.2
346.157	8.43
346.527	8.75
346.898	9.04
347.268	9.16
347.639	8.77
348.009	9.22
348.38	8.68
348.75	9.1
349.12	9.17
349.49	9.02
349.861	8.8
350.231	9.21
350.601	9.45
350.971	9.45
351.341	8.76
351.711	9.65
352.081	8.76
352.45	9.83
352.82	8.87
353.19	9.33
353.56	9.02
353.929	9.57
354.299	9.65
354.669	9.35
355.038	9.62
355.408	9.65
355.777	9.66
356.147	9.81
356.516	9.62
356.885	9.78
357.254	10.13
357.624	9.82
357.993	9.37
358.362	9.72
358.731	9.8
359.1	10.04
359.469	9.91
359.838	9.83
360.207	9.95
360.576	9.83
360.945	10.1
361.314	10.27
361.682	10.1
362.051	10.08
362.42	9.99
362.788	10.14
363.157	9.99
363.525	9.83
363.894	10.14
364.262	10.16
364.631	10.31
364.999	10.19
365.367	10.61
365.735	10.36
366.104	10.31
366.472	10.32
366.84	10.5
367.208	10.3
367.576	10.9
367.944	10.74
368.312	10.58
368.68	10.36
369.048	10.45
369.416	10.36
369.783	10.79
370.151	11.13
370.519	11.18
370.886	11
371.254	11.07
371.621	11.16
371.989	11.07
372.356	10.9
372.724	11.08
373.091	11.41
373.458	11.02
373.826	11.12
374.193	10.99
374.56	11.31
374.927	11.5
375.294	11.03
375.661	11.25
376.028	11.51
376.395	11.31
376.762	11.59
377.129	11.47
377.496	11.34
377.863	11.73
378.229	11.71
378.596	11.51
378.963	11.61
379.329	11.51
379.696	11.66
380.062	11.45
380.429	11.69
380.795	12.01
381.161	11.71
381.528	12.11
381.894	11.9
382.26	12
382.626	11.94
382.993	12.01
383.359	11.94
383.725	12.04
384.091	12
384.457	12.13
384.823	12.67
385.188	12.38
385.554	12.37
385.92	12.04
386.286	12.32
386.651	12.27
387.017	12.6
387.383	12.46
387.748	12.67
388.114	12.5
388.479	12.41
388.845	12.45
389.21	12.68
389.575	12.66
389.94	12.75
390.306	12.54
390.671	12.53
391.036	12.75
391.401	12.98
391.766	12.68
392.131	12.83
392.496	13.13
392.861	13.13
393.226	13.17
393.591	12.96
393.956	12.85
394.32	13.01
394.685	13.09
395.05	12.97
395.414	13.08
395.779	13.24
396.143	12.87
396.508	13.03
396.872	13.09
397.236	13.28
397.601	13.11
397.965	13.66
398.329	13.39
398.694	13.36
399.058	13.57
399.422	13.35
399.786	13.3
400.15	13.5
400.514	13.66
400.878	13.84
401.242	13.85
401.605	13.82
401.969	13.65
402.333	13.52
402.697	13.9
403.06	13.87
403.424	13.97
403.787	14
404.151	13.89
404.514	13.8
404.878	14.08
405.241	13.88
405.604	13.62
405.968	13.88
406.331	13.66
406.694	14.03
407.057	13.92
407.42	14.34
407.783	14.07
408.146	14.4
408.509	14.1
408.872	14.2
409.235	14.22
409.598	14.09
409.961	14.41
410.323	14.58
410.686	14.48
411.049	14.59
411.411	14.52
411.774	14.56
412.136	14.4
412.499	14.69
412.861	14.43
413.223	14.87
413.586	14.58
413.948	14.6
414.31	14.83
414.672	14.4
415.035	14.77
415.397	14.83
415.759	14.91
416.121	14.78
416.483	15.05
416.845	14.93
417.206	14.72
417.568	14.99
417.93	14.91
418.292	14.77
418.653	14.75
419.015	14.92
419.377	14.78
419.738	14.9
420.1	14.85
420.461	15.02
420.822	14.82
421.184	14.98
421.545	14.87
421.906	14.98
422.267	14.95
422.629	14.78
422.99	14.94
423.351	14.89
423.712	14.96
424.073	15.11
424.434	15.01
424.795	15.04
425.155	15.11
425.516	15.16
425.877	15.1
426.238	15.13
426.598	15.09
426.959	15.17
427.32	15.33
427.68	15.43
428.041	15.36
428.401	15.43
428.761	15.49
429.122	15.49
429.482	15.55
429.842	15.68
430.202	15.65
430.563	15.79
430.923	15.67
431.283	15.97
431.643	16.13
432.003	16.1
432.363	16.05
432.722	16.08
433.082	15.87
433.442	16.22
433.802	16.02
434.161	16.13
434.521	15.9
434.881	16.03
435.24	16.01
435.6	16.15
435.959	16.11
436.319	16.16
436.678	16.23
437.037	16.22
437.396	16.29
437.756	16.63
438.115	16.71
438.474	16.43
438.833	16.54
439.192	16.6
439.551	16.56
439.91	16.63
440.269	16.56
440.628	16.4
440.987	16.62
441.345	16.44
441.704	16.53
442.063	16.57
442.421	16.48
442.78	16.49
443.138	16.57
443.497	16.59
443.855	16.64
444.214	16.95
444.572	16.85
444.93	16.95
445.288	16.74
445.647	16.95
446.005	16.81
446.363	16.91
446.721	16.91
447.079	16.87
447.437	16.83
447.795	16.79
448.153	16.79
448.51	16.88
448.868	16.74
449.226	16.77
449.584	16.88
449.941	17.06
450.299	17.05
450.656	17.15
451.014	17.25
451.371	17.31
451.729	17.28
452.086	17.6
452.443	17.55
452.801	17.49
453.158	17.49
453.515	17.57
453.872	17.52
454.229	17.52
454.586	17.49
454.943	17.71
455.3	17.66
455.657	17.74
456.014	17.85
456.371	17.87
456.727	17.73
457.084	17.81
457.441	17.83
457.797	18
458.154	18.07
458.51	18.1
458.867	17.81
459.223	17.84
459.58	18.04
459.936	18.13
460.292	18.17
460.648	18.06
461.005	18.05
461.361	17.92
461.717	17.77
462.073	17.82
462.429	17.84
462.785	18.12
463.141	18.11
463.496	18.22
463.852	18.25
464.208	18.32
464.564	18.48
464.919	18.59
465.275	18.46
465.631	18.56
465.986	18.67
466.342	18.67
466.697	18.63
467.052	18.63
467.408	19.02
467.763	18.48
468.118	18.69
468.473	18.85
468.829	18.85
469.184	19.03
469.539	18.76
469.894	18.74
470.249	19.05
470.603	18.93
470.958	18.98
471.313	18.85
471.668	19.2
472.023	19.18
472.377	19.02
472.732	19.18
473.086	19.35
473.441	19.18
473.795	19.2
474.15	19.39
474.504	19.19
474.859	19.28
475.213	19.15
475.567	19.26
475.921	19.27
476.275	19.43
476.63	19.53
476.984	19.46
477.338	19.35
477.692	19.45
478.045	19.51
478.399	19.56
478.753	19.4
479.107	19.44
479.461	19.61
479.814	19.54
480.168	19.51
480.521	19.61
480.875	19.55
481.228	19.54
481.582	19.95
481.935	19.68
482.289	19.78
482.642	19.78
482.995	19.64
483.348	19.53
483.701	19.57
484.055	19.66
484.408	19.47
484.761	19.39
485.114	19.18
485.466	18.82
485.819	18.74
486.172	18.84
486.525	19.04
486.878	19.21
487.23	19.22
487.583	19.45
487.936	19.53
488.288	19.57
488.641	19.46
488.993	19.32
489.345	19.36
489.698	19.16
490.05	19.35
490.402	19.33
490.754	19.53
491.107	19.7
491.459	19.93
491.811	20.07
492.163	20.14
492.515	20.21
492.866	20.02
493.218	19.78
493.57	19.6
493.922	19.66
494.274	19.87
494.625	20.04
494.977	20.33
495.328	20.42
495.68	20.53
496.031	20.78
496.383	20.62
496.734	20.91
497.086	21.03
497.437	21.11
497.788	20.97
498.139	20.75
498.49	20.9
498.842	20.82
499.193	20.75
499.544	20.74
499.894	21.03
500.245	20.91
500.596	21.14
500.947	20.92
501.298	21.19
501.648	21.26
501.999	21.2
502.35	21.32
502.7	21.34
503.051	21.45
503.401	21.51
503.752	21.56
504.102	21.47
504.452	21.53
504.803	21.67
505.153	21.69
505.503	21.6
505.853	21.62
506.203	21.51
506.553	21.73
506.903	21.62
507.253	21.94
507.603	21.86
507.953	21.86
508.303	21.8
508.652	21.79
509.002	21.82
509.352	21.91
509.701	21.89
510.051	21.95
510.4	21.74
510.75	21.75
511.099	21.77
511.449	21.87
511.798	21.94
512.147	21.96
512.496	21.86
512.846	21.97
513.195	22.09
513.544	22.06
513.893	22.04
514.242	22.11
514.591	22.1
514.939	22.18
515.288	22.21
515.637	22.18
515.986	22.24
516.334	22.39
516.683	22.55
517.032	22.52
517.38	22.45
517.729	22.67
518.077	22.61
518.426	22.67
518.774	22.54
519.122	22.5
519.47	22.58
519.819	22.33
520.167	22.22
520.515	22.25
520.863	22.19
521.211	22.4
521.559	22.43
521.907	22.42
522.255	22.52
522.602	22.81
522.95	22.83
523.298	22.73
523.645	23.08
523.993	22.94
524.341	23.11
524.688	22.95
525.036	23.11
525.383	23.1
525.73	23.13
526.078	23.02
526.425	22.97
526.772	22.84
527.119	22.93
527.466	22.76
527.814	22.78
528.161	22.7
528.508	22.89
528.854	22.88
529.201	22.83
529.548	22.78
529.895	22.59
530.242	22.28
530.588	22.27
530.935	22.34
531.282	22.56
531.628	22.64
531.975	22.72
532.321	22.78
532.667	23.11
533.014	23.03
533.36	23.18
533.706	23.24
534.052	23.39
534.399	23.26
534.745	23.15
535.091	22.85
535.437	22.8
535.783	23.04
536.129	23.25
536.474	23.36
536.82	23.49
537.166	23.58
537.512	23.65
537.857	23.81
538.203	23.72
538.549	23.6
538.894	23.59
539.239	23.74
539.585	23.8
539.93	23.82
540.276	24.04
540.621	24.21
540.966	24.24
541.311	24.28
541.656	24.3
542.001	24.27
542.346	24.29
542.691	23.95
543.036	23.6
543.381	23.4
543.726	23.52
544.071	23.73
544.415	23.82
544.76	23.85
545.105	23.96
545.449	24.01
545.794	24.24
546.138	24.44
546.483	24.45
546.827	24.46
547.171	24.44
547.516	24.54
547.86	24.65
548.204	24.73
548.548	24.62
548.892	24.61
549.236	24.58
549.58	24.84
549.924	24.86
550.268	24.84
550.612	25.08
550.956	25.16
551.3	25.29
551.643	25.4
551.987	25.46
552.33	25.65
552.674	25.56
553.017	25.54
553.361	25.38
553.704	25.5
554.048	25.47
554.391	25.38
554.734	25.6
555.077	25.63
555.42	25.63
555.764	25.62
556.107	25.54
556.45	25.9
556.793	25.79
557.135	25.73
557.478	25.91
557.821	25.85
558.164	25.99
558.507	25.99
558.849	25.94
559.192	25.85
559.534	26
559.877	26.01
560.219	26.08
560.562	26.37
560.904	26.07
561.246	26.14
561.589	26.03
561.931	26.41
562.273	26.16
562.615	26.13
562.957	26.35
563.299	26.37
563.641	26.39
563.983	26.56
564.325	26.52
564.667	26.59
565.008	26.6
565.35	26.74
565.692	26.58
566.033	26.53
566.375	26.69
566.716	26.47
567.058	26.52
567.399	26.5
567.741	26.2
568.082	26.38
568.423	26.61
568.764	26.47
569.105	26.43
569.447	26.55
569.788	26.92
570.129	26.71
570.47	26.69
570.811	26.83
571.151	26.7
571.492	27.05
571.833	26.93
572.174	27.06
572.514	26.91
572.855	27.07
573.195	26.97
573.536	26.78
573.876	26.69
574.217	26.95
574.557	26.94
574.898	27.05
575.238	27.21
575.578	27.17
575.918	27.28
576.258	27.27
576.598	27.38
576.938	27.25
577.278	27.08
577.618	27.1
577.958	27.31
578.298	27.33
578.638	27.53
578.977	27.55
579.317	27.6
579.657	27.28
579.996	27.51
580.336	27.51
580.675	27.88
581.014	27.6
581.354	27.85
581.693	28.2
582.032	27.57
582.372	27.94
582.711	28.18
583.05	28.1
583.389	27.92
583.728	28.21
584.067	27.9
584.406	27.85
584.745	28.02
585.083	28.04
585.422	28.14
585.761	28.37
586.1	28.38
586.438	28.05
586.777	28.42
587.115	28
587.454	28.38
587.792	28.15
588.13	28.71
588.469	28.58
588.807	28.43
589.145	28.72
589.483	28.64
589.821	28.37
590.159	28.71
590.497	28.5
590.835	28.63
591.173	28.62
591.511	28.81
591.849	28.66
592.187	28.38
592.524	28.29
592.862	28.54
593.2	28.66
593.537	28.83
593.875	28.73
594.212	28.98
594.55	28.84
594.887	28.8
595.224	28.9
595.561	28.99
595.899	28.95
596.236	28.83
596.573	29.09
596.91	28.72
597.247	28.94
597.584	28.6
597.921	28.83
598.258	28.96
598.594	28.99
598.931	28.75
599.268	28.92
599.604	28.97
599.941	29.54
600.277	28.82
600.614	29.21
600.95	28.96
601.287	29.35
601.623	29.37
601.959	29.41
602.296	29.3
602.632	29.55
602.968	29.19
603.304	29.33
603.64	29.53
603.976	29.79
604.312	29.69
604.648	29.61
604.984	29.8
605.319	29.51
605.655	29.46
605.991	29.56
606.326	29.44
606.662	29.26
606.998	29.19
607.333	29.32
607.668	29.38
608.004	29.23
608.339	29.83
608.674	29.79
609.01	29.91
609.345	30.04
609.68	30.06
610.015	29.97
610.35	29.91
610.685	29.72
611.02	29.98
611.355	29.86
611.689	29.82
612.024	29.75
612.359	29.55
612.694	30.05
613.028	30.1
613.363	29.79
613.697	30.1
614.032	30.25
614.366	30.59
614.7	30.27
615.035	30.3
615.369	30.23
615.703	30.31
616.037	30.19
616.371	30.69
616.705	30.58
617.039	30.65
617.373	30.56
617.707	30.74
618.041	30.56
618.375	30.94
618.709	30.56
619.042	30.99
619.376	30.56
619.71	30.58
620.043	30.59
620.377	30.77
620.71	30.98
621.043	31.23
621.377	30.49
621.71	31.28
622.043	30.98
622.376	30.9
622.709	30.86
623.043	31.6
623.376	31.11
623.709	31.19
624.041	30.93
624.374	31.35
624.707	31.21
625.04	31.46
625.373	31.02
625.705	31.46
626.038	30.89
626.37	31.45
626.703	31.52
627.035	31.17
627.368	31.35
627.7	30.94
628.032	31.1
628.365	31.05
628.697	30.89
629.029	31.32
629.361	30.89
629.693	31.35
630.025	31.38
630.357	31.21
630.689	31.14
631.021	31.82
631.353	31.33
631.684	31.48
632.016	31.65
632.348	31.36
632.679	31.23
633.011	31.31
633.342	31.69
633.674	31.74
634.005	31.81
634.336	31.94
634.668	31.93
634.999	32.09
635.33	31.82
635.661	31.49
635.992	31.84
636.323	31.76
636.654	32.22
636.985	32.13
637.316	31.42
637.647	32.23
637.977	31.82
638.308	32.2
638.639	31.8
638.969	31.98
639.3	31.99
639.63	32.02
639.961	32.2
640.291	32.29
640.622	32.29
640.952	32.46
641.282	32.13
641.612	32.87
641.943	32.38
642.273	31.89
642.603	32.55
642.933	32.42
643.263	32.31
643.592	32.63
643.922	32.6
644.252	32.14
644.582	32.39
644.911	32.63
645.241	32.69
645.571	32.94
645.9	32.05
646.23	32.47
646.559	32.88
646.888	32.83
647.218	33.2
647.547	32.66
647.876	32.96
648.205	32.76
648.534	32.72
648.863	32.55
649.192	32.84
649.521	33.43
649.85	33.06
650.179	32.86
650.508	32.8
650.837	32.99
651.165	33.35
651.494	33.37
651.822	32.85
652.151	33.25
652.479	33.46
652.808	33.03
653.136	33.54
653.465	32.92
653.793	32.97
654.121	33.34
654.449	33.13
654.777	33.01
655.105	33.24
655.433	33.67
655.761	33.49
656.089	33.26
656.417	33.6
656.745	33.57
657.073	33.44
657.4	33.31
657.728	33.4
658.056	33.84
658.383	33.18
658.711	32.85
659.038	33.02
659.365	33.3
659.693	33.75
660.02	33.33
660.347	33.6
660.674	33.55
661.001	33.37
661.329	33.39
661.656	33.33
661.982	33.22
662.309	33.6
662.636	33.53
662.963	33.67
663.29	33.6
663.616	33.47
663.943	33.75
664.27	33.87
664.596	33.87
664.923	34.15
665.249	34.22
665.576	34.26
665.902	33.58
666.228	33.9
666.554	34.14
666.881	33.98
667.207	33.98
667.533	34.06
667.859	34.74
668.185	34.48
668.511	33.88
668.837	34
669.162	34.13
669.488	34.94
669.814	34.67
670.139	34.1
670.465	34.72
670.791	34.95
671.116	34.25
671.442	34.11
671.767	34.37
672.092	33.85
672.418	34.73
672.743	34.43
673.068	34.85
673.393	34.72
673.718	34.04
674.043	34.68
674.368	34.8
674.693	34.24
675.018	34.74
675.343	33.98
675.667	34.67
675.992	34.63
676.317	34.49
676.641	34.79
676.966	34.92
677.29	34.63
677.615	34.96
677.939	34.63
678.264	34.57
678.588	34.44
678.912	35.23
679.236	34.17
679.56	35.3
679.885	35.01
680.209	35.09
680.532	35.42
680.856	34.88
681.18	34.78
681.504	34.73
681.828	34.18
682.152	34.54
682.475	34.92
682.799	35.09
683.122	35.22
683.446	34.95
683.769	34.88
684.093	34.98
684.416	35.36
684.739	35.4
685.062	35.99
685.386	35.51
685.709	36.07
686.032	35.08
686.355	35.2
686.678	35.77
687.001	35.53
687.324	35.21
687.646	35.5
687.969	35.19
688.292	35.82
688.614	35.54
688.937	35.39
689.26	35.59
689.582	34.99
689.904	36.4
690.227	36.06
690.549	35.68
690.871	35.76
691.194	35.59
691.516	34.98
691.838	35.25
692.16	35.17
692.482	36.03
692.804	35.56
693.126	35.83
693.448	36.22
693.769	35.13
694.091	34.95
694.413	36.31
694.735	35.66
695.056	36.74
695.378	36.41
695.699	35.43
696.021	35.48
696.342	36.56
696.663	36.35
696.984	36.02
697.306	35.96
697.627	36.32
697.948	36.42
698.269	36.08
698.59	36.45
698.911	36.05
699.232	36.49
699.553	35.59
699.873	35.56
700.194	35.54
700.515	36.63
700.835	36.26
701.156	36.71
701.477	35.97
701.797	36.23
702.117	36.93
702.438	35.9
702.758	36.87
703.078	35.66
703.398	36.08
703.719	37.41
704.039	36.62
704.359	37.03
704.679	37.85
704.999	37.85
705.319	36.88
705.638	36.69
705.958	37.36
706.278	36.57
706.597	37.53
706.917	38.07
707.237	35.94
707.556	35.78
707.876	36.82
708.195	36.56
708.514	36.63
708.834	36.35
709.153	36.62
709.472	36.53
709.791	37.01
710.11	37.24
710.429	36.08
710.748	37.25
711.067	36.95
711.386	36.74
711.705	36.75
712.023	37.72
712.342	36.8
712.661	36.91
712.979	36.96
713.298	36.48
713.616	37.97
713.935	37.83
714.253	37.05
714.572	37.43
714.89	37.04
715.208	37.05
715.526	36.55
715.844	37.1
716.162	37.01
716.48	37.64
716.798	36.96
717.116	37.96
717.434	37.47
717.752	37.73
718.069	37.66
718.387	37.3
718.705	36.81
719.022	37.15
719.34	37.61
719.657	37.43
719.975	37.16
720.292	37.41
720.609	38.46
720.927	38.52
721.244	37.62
721.561	38.07
721.878	36.56
722.195	38.64
722.512	37.11
722.829	36.88
723.146	38.75
723.463	37.81
723.779	38.27
724.096	38.06
724.413	37.46
724.729	38.2
725.046	37.79
725.362	37.39
725.679	36.91
725.995	38.96
726.311	37.42
726.628	38.89
726.944	39.19
727.26	38.31
727.576	38.46
727.892	38.89
728.208	38.76
728.524	38.75
728.84	37.38
729.156	37.67
729.472	38.61
729.787	37.1
730.103	39.39
730.419	39.31
730.734	37.09
731.05	38.01
731.365	39.47
731.681	39.08
731.996	38.24
732.311	38.35
732.626	38.24
732.942	37.71
733.257	38.16
733.572	36.93
733.887	38.33
734.202	38.86
734.517	38.9
734.832	38.52
735.146	37.91
735.461	38.89
735.776	37
736.091	39.68
736.405	39.03
736.72	38.72
737.034	38.95
737.349	36.97
737.663	37.94
737.977	39.34
738.292	40.91
738.606	38.34
738.92	38.12
739.234	37.88
739.548	38.86
739.862	38.4
740.176	38.46
740.49	36.96
740.804	40.31
741.117	38.89
741.431	38.45
741.745	37.76
742.058	38.23
742.372	39.22
742.685	38.41
742.999	38.99
743.312	38.7
743.626	37.12
743.939	39.25
744.252	39.47
744.565	41.64
744.878	37.43
745.191	39.61
745.505	36.97
745.817	41.02
746.13	39.1
746.443	41.85
746.756	39.84
747.069	39.8
747.381	41.68
747.694	38.23
748.007	39.66
748.319	40.61
748.632	37.33
748.944	37.82
749.256	40.93
749.569	40.19
749.881	40.8
750.193	39.98
750.505	40.04
750.817	40.53
751.129	40.38
751.441	39.96
751.753	39.84
752.065	40.7
752.377	41.19
752.689	39.01
753	39.58
753.312	38.82
753.624	39.09
753.935	38.6
754.247	39.75
754.558	40.16
754.869	38.74
755.181	39.05
755.492	40.47
755.803	38.58
756.114	38.73
756.425	39.53
756.736	39.65
757.047	39.9
757.358	40.56
757.669	39.56
757.98	39.58
758.291	40.87
758.601	40.64
758.912	41.81
759.223	41.59
759.533	40.93
759.844	39.82
760.154	39.44
760.464	40.48
760.775	40.2
761.085	41.49
761.395	41.07
761.705	41
762.016	40.77
762.326	39.95
762.636	41.64
762.945	37.66
763.255	39.15
763.565	41.67
763.875	40.76
764.185	39.75
764.494	40.89
764.804	40.86
765.113	41.21
765.423	40.8
765.732	43
766.042	40.4
766.351	41.13
766.66	40.6
766.97	39.21
767.279	43.46
767.588	39.13
767.897	40.79
768.206	40.67
768.515	41.05
768.824	40.91
769.133	39.3
769.441	41.41
769.75	41.16
770.059	39.72
770.367	42.2
770.676	40.82
770.984	40.74
771.293	39.12
771.601	42.53
771.91	41.89
772.218	38.6
772.526	41.44
772.834	42.49
773.142	40.09
773.45	41.94
773.758	40.44
774.066	44.1
774.374	44.24
774.682	42.62
774.99	40.87
775.298	43.21
775.605	41.77
775.913	43.6
776.22	41.1
776.528	37.49
776.835	38.95
777.143	40.74
777.45	40.42
777.757	38.73
778.065	40.49
778.372	41.4
778.679	39.51
778.986	44.5
779.293	39.36
779.6	41.34
779.907	38.57
780.214	40.41
780.52	40.38
780.827	42.46
781.134	41.35
781.44	41.34
781.747	42.17
782.053	40.38
782.36	44.46
782.666	41.65
782.973	41.2
783.279	42.67
783.585	40.66
783.891	44.15
784.197	42.02
784.503	42.9
784.809	43.18
785.115	44.92
785.421	38.32
785.727	45.22
786.033	40.87
786.339	43.05
786.644	42.69
786.95	41.55
787.255	43.26
787.561	45.24
787.866	40.04
788.172	41.8
788.477	41.24
788.782	41.04
789.088	43.82
789.393	42.04
789.698	44.28
790.003	38.65
790.308	40.64
790.613	37.28
790.918	42.7
791.223	41.29
791.527	46.11
791.832	40.77
792.137	41.44
792.441	45.94
792.746	43.92
793.05	42.76
793.355	44.97
793.659	42.04
793.963	45.04
794.268	43.39
794.572	44.88
794.876	40.48
795.18	40.43
795.484	45.09
795.788	43.64
796.092	41.78
796.396	39.74
796.7	41.62
797.004	40.67
797.307	43.42
797.611	39.63
797.915	42.26
798.218	44.54
798.522	44.39
798.825	38.14
799.128	41.69
799.432	44.04
799.735	42.77
800.038	42.86
800.341	43.37
800.644	42.88
800.947	44.24
801.25	40.4
801.553	39.2
801.856	41.82
802.159	42.39
802.462	42.98
802.764	42.65
803.067	40.55
803.37	44.02
803.672	44.17
803.975	47.33
804.277	45.28
804.579	45.35
804.882	43.08
805.184	42.63
805.486	42.23
805.788	43.42
806.09	46.1
806.392	38.75
806.694	40.28
806.996	46.65
807.298	45.65
807.6	41.86
807.902	43.34
808.203	47.02
808.505	46.37
808.807	43.38
809.108	45.98
809.409	48.14
809.711	38.29
810.012	41.19
810.313	43.06
810.615	46.9
810.916	42.81
811.217	50.22
811.518	46.09
811.819	42.9
812.12	38.68
812.421	44.79
812.722	42.02
813.023	40.71
813.323	44.61
813.624	43.57
813.925	38.16
814.225	42.72
814.526	42.84
814.826	42.49
815.126	41.18
815.427	42.73
815.727	42.43
816.027	44.22
816.327	45.33
816.627	40.69
816.927	46.1
817.227	44.08
817.527	47.03
817.827	44.87
818.127	40.88
818.427	49.43
818.727	38.83
819.026	41.94
819.326	39.36
819.625	36.84
819.925	43.49
820.224	43.19
820.524	44.55
820.823	39.74
821.122	42.7
821.421	41.98
821.72	44.88
822.019	40.01
822.318	40.72
822.617	43.84
822.916	46.65
823.215	42.56
823.514	41.71
823.813	42.79
824.111	44.14
824.41	44.69
824.709	43.42
825.007	44.67
825.306	44.42
825.604	45.06
825.902	45
826.201	45.46
826.499	44.15
826.797	44.75
827.095	46.04
827.393	45.57
827.691	46.28
827.989	45.19
828.287	47.04
828.585	45.18
828.882	46.16
829.18	44.58
829.478	44.42
829.775	45.01
830.073	44.76
830.37	44.75
830.668	44.42
830.965	46.57
831.263	47.66
831.56	46.74
831.857	46
832.154	46.65
832.451	47.76
832.748	45.67
833.045	46.63
833.342	45.89
833.639	46.45
833.936	42.9
834.232	47.02
834.529	36.25
834.826	40.48
835.122	48.24
835.419	42.09
835.715	43.22
836.012	40.44
836.308	47.97
836.604	46.88
836.901	45.12
837.197	45.84
837.493	47.09
837.789	44.79
838.085	46.27
838.381	43.44
838.677	46.38
838.972	45.28
839.268	43.94
839.564	42.35
839.86	46.69
840.155	53.95
840.451	45.55
840.746	48.3
841.042	49.82
841.337	39.35
841.632	44.2
841.928	36
842.223	43.71
842.518	50.82
842.813	43.16
843.108	43.61
843.403	41.18
843.698	44.35
843.993	41.26
844.287	46.29
844.582	32.56
844.877	38.58
845.171	38.27
845.466	47.36
845.761	44
846.055	36.31
846.349	45.03
846.644	39.72
846.938	65.27
847.232	27.93
847.526	42.51
847.82	41.37
848.114	41.19
848.408	44.74
848.702	46.86
848.996	52.88
849.29	55.94
849.584	55.25
849.877	57.36
850.171	30.77
850.465	59.16
850.758	34.84
851.052	51.54
851.345	52.26
851.638	52.22
851.932	51.73
852.225	75.56
852.518	49.16
852.811	35.75
853.104	31.39
853.397	58.97
853.69	62.99
853.983	39.08
854.276	53.13
854.569	59.99
854.861	48.1
855.154	23.14
855.447	36.74
855.739	48.84
856.032	46.07
856.324	51.62
856.616	48
856.909	17.76
857.201	53.26
857.493	39.19
857.785	46.21
858.077	21.46
858.369	28.8
858.661	44.41
858.953	46.99
859.245	38.76
859.537	50.16
859.829	27.58
860.12	26.12
860.412	56.72
860.703	31.12
860.995	66.54
861.286	27.32
861.578	42.95
861.869	68.74
862.16	43.41
862.452	54.13
862.743	35.02
863.034	50.23
863.325	11.4
863.616	46.72
863.907	30.54
864.198	53.58
864.488	42.02
864.779	35.27
865.07	7.12
865.36	36.42
865.651	39.28
865.941	45.44
866.232	13.92
866.522	31.07
866.813	47.73
867.103	40.89
867.393	61.19
867.683	39.68
867.973	16.35
868.263	15.84
868.553	53.42
868.843	58.22
869.133	54.35
869.423	57.06
869.713	21.69
870.002	34.51
870.292	54.62
870.582	59.16
870.871	67.71
871.161	49.18
871.45	-7.48
871.739	53.76
872.029	49.06
872.318	77.27
872.607	55.06
872.896	43.04
873.185	51.16
873.474	51.1
873.763	79.01
874.052	38.44
874.341	27.92
874.63	42.26
874.918	45.17
875.207	38.24
875.496	22.66
875.784	80.66
876.073	42.56
876.361	19.03
876.649	46.94
876.938	49.55
877.226	51.9
877.514	45.54
877.802	77.1
878.09	64.9
878.378	55.44
878.666	71.22
878.954	20.24
879.242	32.28
879.53	40.59
879.817	59.65
880.105	74.04
880.392	60.85
880.68	2.2
880.967	31.62
881.255	29.37
881.542	33.2
881.83	69.6
882.117	26.53
882.404	70.32
882.691	44.99
882.978	67.24
883.265	56.12
883.552	54.25
883.839	47.42
884.126	27.84
884.413	42.03
884.699	42.31
884.986	50.59
885.273	48.82
885.559	48.82
885.846	48.82
