Data from 0075_crown_Reflection__0__380.txt Node

Date: Fri Dec 16 17:05:40 CST 2022
User: ToomeyLab
Spectrometer: FLMS14357
Trigger mode: 0
Integration Time (sec): 1.000000E-2
Scans to average: 100
Electric dark correction enabled: true
Nonlinearity correction enabled: false
Boxcar width: 0
XAxis mode: Wavelengths
Number of Pixels in Spectrum: 2048
>>>>>Begin Spectral Data<<<<<
189.047	46.07
189.435	46.07
189.823	46.07
190.211	175.88
190.599	-88.52
190.987	1.94
191.375	38.42
191.763	187.65
192.151	43.78
192.538	54.21
192.926	-162.55
193.314	107.63
193.702	-277.69
194.089	-65.57
194.477	-5.24
194.864	-315.82
195.252	-93.52
195.639	65.77
196.027	152.24
196.414	-4826.13
196.801	-52.2
197.189	137.08
197.576	-17052.94
197.963	-116.32
198.351	16.99
198.738	-63.55
199.125	18.56
199.512	-34.04
199.899	-49.8
200.286	-24.38
200.673	46.03
201.06	14.96
201.447	-0.09
201.833	23.35
202.22	7.13
202.607	-3.75
202.994	-1
203.38	-62.59
203.767	-109.7
204.154	-148.36
204.54	2.8
204.927	-21.38
205.313	11.86
205.699	12.24
206.086	19.81
206.472	-4.63
206.858	-8.39
207.245	5.77
207.631	-46.51
208.017	-0.08
208.403	3.18
208.789	6.86
209.175	34.94
209.561	-23.88
209.947	-56.86
210.333	-5.68
210.719	-25.86
211.105	-28.07
211.491	-17.4
211.876	-43.11
212.262	-42.62
212.648	-58.82
213.034	-27.47
213.419	32.53
213.805	26.07
214.19	-9.41
214.576	-12.45
214.961	-4.71
215.346	-83.34
215.732	-5.55
216.117	-34.07
216.502	-16.83
216.888	-8.15
217.273	-4.97
217.658	-23.31
218.043	-11.09
218.428	11.83
218.813	-19.49
219.198	-30.92
219.583	13.57
219.968	-7.15
220.353	12.04
220.738	4.13
221.122	-24.87
221.507	-15.93
221.892	-16.04
222.276	15.02
222.661	-19.64
223.046	-0.08
223.43	-24.55
223.815	7.54
224.199	-0.89
224.583	-15.06
224.968	-0.95
225.352	-3.1
225.736	-4.52
226.121	-9.55
226.505	-3.57
226.889	6.35
227.273	-0.49
227.657	-3.63
228.041	1.6
228.425	2
228.809	2.22
229.193	2.2
229.577	2.58
229.961	2.85
230.344	2.91
230.728	2.36
231.112	2.64
231.495	4.39
231.879	1.78
232.263	-0.06
232.646	1.47
233.03	-1.14
233.413	2.72
233.797	4.2
234.18	-0.89
234.563	2.82
234.946	1.54
235.33	2.33
235.713	3.24
236.096	0.77
236.479	2.48
236.862	4.26
237.245	2.47
237.628	1.68
238.011	2.55
238.394	2.48
238.777	1.55
239.16	2.67
239.543	1.33
239.925	1.9
240.308	3.46
240.691	0.26
241.073	2.32
241.456	2.06
241.838	2.92
242.221	2.81
242.603	2.65
242.986	3.63
243.368	2.35
243.75	2.25
244.133	2.82
244.515	2.43
244.897	2.6
245.279	2.17
245.661	2.35
246.043	1.98
246.425	1.38
246.807	2.24
247.189	2.44
247.571	2.56
247.953	2.43
248.335	2.66
248.717	2.87
249.098	2.73
249.48	2.11
249.862	2.87
250.243	2.69
250.625	2.43
251.006	2.54
251.388	2.9
251.769	2.62
252.151	2.03
252.532	2.41
252.913	3.24
253.295	2.56
253.676	2.67
254.057	2.18
254.438	2.03
254.819	2.35
255.2	1.85
255.581	1.91
255.962	1.51
256.343	1.55
256.724	2.06
257.105	2.76
257.486	2.45
257.867	0.6
258.247	2.55
258.628	2.8
259.009	2.11
259.389	2.72
259.77	2.02
260.15	3.15
260.531	2.25
260.911	2.22
261.292	2.36
261.672	2.26
262.052	2.48
262.432	2.25
262.813	2.14
263.193	1.95
263.573	2.48
263.953	1.9
264.333	1.5
264.713	1.82
265.093	1.93
265.473	2.74
265.853	2.35
266.233	1.82
266.612	2.38
266.992	2.1
267.372	2.17
267.752	2.15
268.131	1.79
268.511	3
268.89	2.71
269.27	2.29
269.649	2.38
270.029	2.15
270.408	2.23
270.787	1.8
271.167	2.37
271.546	1.37
271.925	2.04
272.304	2.08
272.683	1.93
273.062	2.41
273.441	2.43
273.82	2.05
274.199	2.16
274.578	2.01
274.957	2.41
275.336	1.96
275.715	2.31
276.093	2.86
276.472	2
276.851	2.25
277.229	2.39
277.608	1.76
277.986	2.25
278.365	2.06
278.743	2.08
279.122	1.79
279.5	1.46
279.878	1.66
280.257	2.39
280.635	1.58
281.013	2.49
281.391	2.09
281.769	1.68
282.147	1.87
282.525	1.7
282.903	2.46
283.281	1.98
283.659	2.11
284.037	2.28
284.415	1.67
284.792	1.68
285.17	1.93
285.548	1.9
285.925	1.97
286.303	1.53
286.68	2.36
287.058	2.05
287.435	1.87
287.813	2.18
288.19	2.51
288.567	2.01
288.945	2.37
289.322	2.16
289.699	1.76
290.076	1.9
290.453	1.64
290.83	1.94
291.207	1.59
291.584	1.71
291.961	2.22
292.338	2
292.715	1.9
293.092	1.9
293.469	2.59
293.845	1.87
294.222	1.9
294.599	1.86
294.975	2.28
295.352	1.79
295.728	2.27
296.105	2.02
296.481	2.19
296.858	2.15
297.234	1.97
297.61	2.16
297.986	1.95
298.363	1.73
298.739	2.07
299.115	1.7
299.491	1.85
299.867	1.84
300.243	1.76
300.619	1.63
300.995	2.03
301.371	2.27
301.746	2.02
302.122	2.25
302.498	1.88
302.874	2.21
303.249	1.85
303.625	2.17
304	1.52
304.376	1.91
304.751	1.85
305.127	1.85
305.502	2.32
305.878	2.05
306.253	1.89
306.628	1.82
307.003	2.07
307.378	1.5
307.754	1.86
308.129	1.43
308.504	1.96
308.879	1.72
309.254	2.31
309.629	1.37
310.003	1.85
310.378	1.78
310.753	1.74
311.128	1.7
311.502	1.7
311.877	2.09
312.252	1.61
312.626	1.51
313.001	1.9
313.375	1.98
313.75	1.4
314.124	2.62
314.498	1.32
314.873	1.85
315.247	1.48
315.621	2.27
315.995	2.13
316.369	1.96
316.743	2.27
317.117	1.73
317.491	2.02
317.865	1.52
318.239	2.53
318.613	1.52
318.987	1.72
319.361	2.09
319.734	2.05
320.108	2.53
320.482	1.92
320.855	1.84
321.229	2.03
321.602	1.95
321.976	1.2
322.349	1.19
322.723	1.31
323.096	1.45
323.469	1.33
323.843	1.69
324.216	1.13
324.589	1.95
324.962	2.08
325.335	2.37
325.708	2.02
326.081	2.23
326.454	2.02
326.827	1.75
327.2	1.91
327.573	1.8
327.945	1.98
328.318	1.76
328.691	1.74
329.063	1.69
329.436	1.26
329.809	1.29
330.181	1.78
330.553	2.1
330.926	1.86
331.298	1.95
331.671	1.88
332.043	1.87
332.415	2.03
332.787	1.89
333.159	1.66
333.532	1.92
333.904	2.21
334.276	2.03
334.648	1.56
335.02	1.92
335.391	1.71
335.763	2.25
336.135	1.57
336.507	1.93
336.879	1.74
337.25	1.59
337.622	1.68
337.993	1.67
338.365	2.45
338.736	2.22
339.108	1.92
339.479	1.95
339.851	2.07
340.222	2.21
340.593	1.83
340.964	1.75
341.336	1.46
341.707	1.94
342.078	1.79
342.449	2
342.82	1.79
343.191	1.64
343.562	2.17
343.933	2.23
344.303	1.86
344.674	2.21
345.045	2.26
345.416	1.65
345.786	1.68
346.157	2.06
346.527	1.61
346.898	1.84
347.268	1.71
347.639	1.84
348.009	2.35
348.38	2.17
348.75	1.85
349.12	1.88
349.49	1.98
349.861	2.74
350.231	2.59
350.601	1.87
350.971	2.14
351.341	2.19
351.711	2.16
352.081	2.19
352.45	2.18
352.82	2.06
353.19	2.08
353.56	2.05
353.929	2.24
354.299	1.5
354.669	1.81
355.038	1.75
355.408	2.25
355.777	2
356.147	2.27
356.516	2.36
356.885	2.09
357.254	2.18
357.624	2.32
357.993	2.19
358.362	2.42
358.731	1.87
359.1	2.25
359.469	2.21
359.838	2.27
360.207	1.93
360.576	2.15
360.945	2.02
361.314	2.35
361.682	1.72
362.051	2.25
362.42	2.32
362.788	2.38
363.157	2.07
363.525	2.04
363.894	1.98
364.262	2.18
364.631	2.82
364.999	2.02
365.367	2.81
365.735	1.97
366.104	2.39
366.472	2.54
366.84	2.48
367.208	1.87
367.576	2.47
367.944	2.44
368.312	1.51
368.68	2.07
369.048	2.44
369.416	2.08
369.783	2.09
370.151	2.28
370.519	2.07
370.886	2.34
371.254	2.42
371.621	2.29
371.989	2.03
372.356	2.12
372.724	2.37
373.091	2.34
373.458	2.04
373.826	1.91
374.193	2.37
374.56	1.97
374.927	1.92
375.294	2.79
375.661	2.26
376.028	2.2
376.395	2.24
376.762	2.5
377.129	2.41
377.496	2.22
377.863	2.52
378.229	2.35
378.596	2.39
378.963	2.19
379.329	2.16
379.696	2.48
380.062	2.52
380.429	2.49
380.795	2.29
381.161	2.26
381.528	1.97
381.894	2.31
382.26	2.04
382.626	2.32
382.993	2.03
383.359	2.13
383.725	2.44
384.091	2.14
384.457	2.55
384.823	2.43
385.188	2.5
385.554	2.59
385.92	2.72
386.286	2.47
386.651	2.25
387.017	2.59
387.383	2.24
387.748	2.36
388.114	2.43
388.479	2.24
388.845	2.4
389.21	2.65
389.575	2.28
389.94	2.43
390.306	2.25
390.671	2.32
391.036	2.4
391.401	2.63
391.766	2.47
392.131	2.16
392.496	2.46
392.861	2.27
393.226	2.44
393.591	2.47
393.956	2.56
394.32	2.4
394.685	2.42
395.05	2.18
395.414	2.39
395.779	2.38
396.143	2.52
396.508	2.5
396.872	2.64
397.236	1.96
397.601	2.47
397.965	2.2
398.329	2.55
398.694	2.24
399.058	2.34
399.422	2.62
399.786	2.49
400.15	2.35
400.514	2.52
400.878	2.22
401.242	2.56
401.605	2.38
401.969	2.52
402.333	2.37
402.697	2.75
403.06	2.6
403.424	2.44
403.787	2.51
404.151	2.33
404.514	2.86
404.878	2.61
405.241	2.63
405.604	2.41
405.968	2.47
406.331	2.48
406.694	2.5
407.057	2.78
407.42	2.36
407.783	2.69
408.146	2.46
408.509	2.39
408.872	2.35
409.235	2.47
409.598	2.46
409.961	2.54
410.323	2.51
410.686	2.52
411.049	2.23
411.411	2.52
411.774	2.59
412.136	2.67
412.499	2.54
412.861	2.35
413.223	2.54
413.586	2.36
413.948	2.41
414.31	2.38
414.672	2.38
415.035	2.68
415.397	2.75
415.759	2.5
416.121	2.66
416.483	2.64
416.845	2.62
417.206	2.6
417.568	2.49
417.93	2.51
418.292	2.56
418.653	2.61
419.015	2.57
419.377	2.63
419.738	2.37
420.1	2.44
420.461	2.41
420.822	2.59
421.184	2.51
421.545	2.5
421.906	2.46
422.267	2.38
422.629	2.49
422.99	2.6
423.351	2.51
423.712	2.5
424.073	2.53
424.434	2.51
424.795	2.45
425.155	2.51
425.516	2.44
425.877	2.57
426.238	2.41
426.598	2.63
426.959	2.46
427.32	2.74
427.68	2.66
428.041	2.61
428.401	2.67
428.761	2.66
429.122	2.48
429.482	2.47
429.842	2.67
430.202	2.56
430.563	2.67
430.923	2.55
431.283	2.62
431.643	2.54
432.003	2.51
432.363	2.65
432.722	2.39
433.082	2.57
433.442	2.57
433.802	2.65
434.161	2.55
434.521	2.45
434.881	2.62
435.24	2.47
435.6	2.56
435.959	2.59
436.319	2.68
436.678	2.64
437.037	2.66
437.396	2.68
437.756	2.61
438.115	2.46
438.474	2.6
438.833	2.74
439.192	2.69
439.551	2.63
439.91	2.6
440.269	2.65
440.628	2.61
440.987	2.41
441.345	2.53
441.704	2.68
442.063	2.59
442.421	2.68
442.78	2.53
443.138	2.62
443.497	2.46
443.855	2.72
444.214	2.62
444.572	2.55
444.93	2.78
445.288	2.65
445.647	2.66
446.005	2.53
446.363	2.54
446.721	2.44
447.079	2.63
447.437	2.61
447.795	2.61
448.153	2.52
448.51	2.63
448.868	2.63
449.226	2.7
449.584	2.59
449.941	2.71
450.299	2.63
450.656	2.74
451.014	2.63
451.371	2.71
451.729	2.55
452.086	2.55
452.443	2.59
452.801	2.77
453.158	2.63
453.515	2.56
453.872	2.75
454.229	2.61
454.586	2.61
454.943	2.52
455.3	2.86
455.657	2.51
456.014	2.67
456.371	2.66
456.727	2.55
457.084	2.74
457.441	2.76
457.797	2.6
458.154	2.67
458.51	2.69
458.867	2.6
459.223	2.6
459.58	2.69
459.936	2.5
460.292	2.57
460.648	2.51
461.005	2.55
461.361	2.49
461.717	2.62
462.073	2.75
462.429	2.72
462.785	2.7
463.141	2.68
463.496	2.73
463.852	2.83
464.208	2.71
464.564	2.65
464.919	2.64
465.275	2.64
465.631	2.59
465.986	2.44
466.342	2.74
466.697	2.73
467.052	2.76
467.408	2.6
467.763	2.56
468.118	2.75
468.473	2.78
468.829	2.63
469.184	2.74
469.539	2.62
469.894	2.71
470.249	2.67
470.603	2.69
470.958	2.75
471.313	2.66
471.668	2.72
472.023	2.93
472.377	2.65
472.732	2.71
473.086	2.52
473.441	2.59
473.795	2.77
474.15	2.41
474.504	2.6
474.859	2.77
475.213	2.68
475.567	2.52
475.921	2.79
476.275	2.7
476.63	2.58
476.984	2.64
477.338	2.89
477.692	2.69
478.045	2.47
478.399	2.81
478.753	2.59
479.107	2.5
479.461	2.72
479.814	2.69
480.168	2.58
480.521	2.52
480.875	2.73
481.228	2.71
481.582	2.57
481.935	2.74
482.289	2.55
482.642	2.65
482.995	2.65
483.348	2.6
483.701	2.56
484.055	2.49
484.408	2.52
484.761	2.38
485.114	2.37
485.466	2.42
485.819	2.51
486.172	2.59
486.525	2.69
486.878	2.62
487.23	2.71
487.583	2.66
487.936	2.63
488.288	2.51
488.641	2.47
488.993	2.46
489.345	2.51
489.698	2.59
490.05	2.55
490.402	2.66
490.754	2.68
491.107	2.72
491.459	2.67
491.811	2.66
492.163	2.71
492.515	2.55
492.866	2.46
493.218	2.45
493.57	2.65
493.922	2.64
494.274	2.74
494.625	2.71
494.977	2.7
495.328	2.76
495.68	2.82
496.031	2.65
496.383	2.65
496.734	2.72
497.086	2.57
497.437	2.73
497.788	2.59
498.139	2.71
498.49	2.65
498.842	2.63
499.193	2.63
499.544	2.72
499.894	2.68
500.245	2.6
500.596	2.68
500.947	2.71
501.298	2.62
501.648	2.72
501.999	2.77
502.35	2.89
502.7	2.72
503.051	2.78
503.401	2.7
503.752	2.58
504.102	2.67
504.452	2.63
504.803	2.55
505.153	2.75
505.503	2.63
505.853	2.54
506.203	2.69
506.553	2.75
506.903	2.68
507.253	2.7
507.603	2.66
507.953	2.75
508.303	2.66
508.652	2.6
509.002	2.72
509.352	2.71
509.701	2.71
510.051	2.74
510.4	2.7
510.75	2.59
511.099	2.62
511.449	2.73
511.798	2.78
512.147	2.64
512.496	2.81
512.846	2.7
513.195	2.73
513.544	2.66
513.893	2.48
514.242	2.77
514.591	2.64
514.939	2.76
515.288	2.68
515.637	2.67
515.986	2.67
516.334	2.79
516.683	2.67
517.032	2.66
517.38	2.68
517.729	2.75
518.077	2.8
518.426	2.68
518.774	2.64
519.122	2.56
519.47	2.63
519.819	2.66
520.167	2.66
520.515	2.53
520.863	2.66
521.211	2.63
521.559	2.64
521.907	2.68
522.255	2.77
522.602	2.77
522.95	2.72
523.298	2.63
523.645	2.69
523.993	2.74
524.341	2.68
524.688	2.78
525.036	2.72
525.383	2.75
525.73	2.72
526.078	2.66
526.425	2.65
526.772	2.54
527.119	2.55
527.466	2.59
527.814	2.71
528.161	2.67
528.508	2.69
528.854	2.57
529.201	2.5
529.548	2.47
529.895	2.45
530.242	2.46
530.588	2.5
530.935	2.58
531.282	2.67
531.628	2.64
531.975	2.69
532.321	2.61
532.667	2.7
533.014	2.68
533.36	2.62
533.706	2.64
534.052	2.62
534.399	2.53
534.745	2.44
535.091	2.52
535.437	2.62
535.783	2.73
536.129	2.62
536.474	2.78
536.82	2.67
537.166	2.63
537.512	2.7
537.857	2.57
538.203	2.47
538.549	2.59
538.894	2.56
539.239	2.72
539.585	2.69
539.93	2.65
540.276	2.56
540.621	2.69
540.966	2.68
541.311	2.66
541.656	2.51
542.001	2.62
542.346	2.5
542.691	2.42
543.036	2.44
543.381	2.58
543.726	2.72
544.071	2.69
544.415	2.66
544.76	2.56
545.105	2.64
545.449	2.63
545.794	2.61
546.138	2.69
546.483	2.64
546.827	2.64
547.171	2.62
547.516	2.76
547.86	2.64
548.204	2.57
548.548	2.65
548.892	2.69
549.236	2.78
549.58	2.66
549.924	2.71
550.268	2.73
550.612	2.7
550.956	2.48
551.3	2.72
551.643	2.57
551.987	2.69
552.33	2.5
552.674	2.77
553.017	2.79
553.361	2.6
553.704	2.55
554.048	2.6
554.391	2.57
554.734	2.56
555.077	2.74
555.42	2.61
555.764	2.75
556.107	2.63
556.45	2.62
556.793	2.81
557.135	2.78
557.478	2.61
557.821	2.62
558.164	2.83
558.507	2.52
558.849	2.47
559.192	2.77
559.534	2.49
559.877	2.59
560.219	2.77
560.562	2.73
560.904	2.77
561.246	2.92
561.589	2.72
561.931	2.85
562.273	2.6
562.615	2.75
562.957	2.84
563.299	2.69
563.641	2.66
563.983	2.56
564.325	2.62
564.667	2.6
565.008	2.61
565.35	2.88
565.692	2.75
566.033	2.59
566.375	2.48
566.716	2.66
567.058	2.63
567.399	2.73
567.741	2.75
568.082	2.58
568.423	2.53
568.764	2.68
569.105	2.79
569.447	2.63
569.788	2.62
570.129	2.76
570.47	2.71
570.811	2.66
571.151	2.47
571.492	2.73
571.833	2.77
572.174	2.56
572.514	2.44
572.855	2.8
573.195	2.54
573.536	2.65
573.876	2.56
574.217	2.63
574.557	2.72
574.898	2.5
575.238	2.58
575.578	2.9
575.918	2.51
576.258	2.66
576.598	2.5
576.938	2.76
577.278	2.64
577.618	2.55
577.958	2.55
578.298	2.7
578.638	2.67
578.977	2.82
579.317	2.77
579.657	2.69
579.996	2.49
580.336	2.52
580.675	2.75
581.014	2.71
581.354	2.63
581.693	2.53
582.032	2.65
582.372	2.74
582.711	2.53
583.05	2.77
583.389	2.69
583.728	2.68
584.067	2.96
584.406	2.69
584.745	2.56
585.083	2.88
585.422	2.65
585.761	2.82
586.1	2.63
586.438	2.81
586.777	2.78
587.115	2.84
587.454	2.66
587.792	2.61
588.13	2.93
588.469	2.77
588.807	2.83
589.145	2.73
589.483	2.5
589.821	2.69
590.159	2.59
590.497	2.68
590.835	2.76
591.173	2.91
591.511	2.67
591.849	2.67
592.187	2.79
592.524	2.68
592.862	2.57
593.2	2.58
593.537	2.54
593.875	2.56
594.212	2.49
594.55	2.58
594.887	2.84
595.224	2.66
595.561	2.73
595.899	2.63
596.236	2.67
596.573	2.59
596.91	2.7
597.247	2.63
597.584	2.65
597.921	2.55
598.258	2.53
598.594	2.4
598.931	2.52
599.268	2.6
599.604	2.69
599.941	2.75
600.277	2.73
600.614	2.67
600.95	2.56
601.287	2.56
601.623	2.9
601.959	2.4
602.296	2.74
602.632	2.9
602.968	2.62
603.304	2.49
603.64	2.69
603.976	2.56
604.312	2.62
604.648	2.68
604.984	2.52
605.319	2.56
605.655	2.79
605.991	2.54
606.326	2.51
606.662	2.53
606.998	2.66
607.333	2.62
607.668	2.58
608.004	2.64
608.339	2.49
608.674	2.61
609.01	2.7
609.345	2.75
609.68	2.39
610.015	2.75
610.35	2.61
610.685	2.56
611.02	2.63
611.355	2.64
611.689	2.4
612.024	2.8
612.359	3.05
612.694	2.79
613.028	3.04
613.363	2.52
613.697	2.86
614.032	2.78
614.366	2.55
614.7	2.9
615.035	2.59
615.369	2.71
615.703	2.92
616.037	2.53
616.371	2.46
616.705	2.79
617.039	2.71
617.373	2.57
617.707	2.52
618.041	2.83
618.375	2.57
618.709	2.56
619.042	2.54
619.376	2.7
619.71	2.88
620.043	2.57
620.377	2.81
620.71	2.53
621.043	2.28
621.377	2.68
621.71	2.71
622.043	2.94
622.376	2.45
622.709	2.75
623.043	2.57
623.376	2.69
623.709	2.72
624.041	2.6
624.374	2.78
624.707	2.47
625.04	2.87
625.373	2.57
625.705	2.89
626.038	2.63
626.37	2.57
626.703	2.73
627.035	2.75
627.368	2.68
627.7	2.72
628.032	2.67
628.365	2.45
628.697	2.48
629.029	2.7
629.361	2.52
629.693	2.77
630.025	2.43
630.357	2.52
630.689	3.02
631.021	2.93
631.353	2.91
631.684	2.9
632.016	2.52
632.348	2.56
632.679	2.5
633.011	2.58
633.342	2.57
633.674	2.66
634.005	2.67
634.336	2.64
634.668	2.52
634.999	2.54
635.33	2.71
635.661	2.66
635.992	2.45
636.323	2.72
636.654	2.7
636.985	2.31
637.316	2.69
637.647	2.72
637.977	2.69
638.308	2.47
638.639	2.47
638.969	2.48
639.3	2.61
639.63	2.76
639.961	2.42
640.291	2.92
640.622	2.67
640.952	2.69
641.282	2.21
641.612	2.44
641.943	3.03
642.273	2.27
642.603	2.84
642.933	2.53
643.263	2.9
643.592	2.55
643.922	2.94
644.252	2.53
644.582	3.06
644.911	2.4
645.241	2.64
645.571	2.61
645.9	3.2
646.23	2.65
646.559	2.68
646.888	2.08
647.218	2.64
647.547	2.63
647.876	2.87
648.205	2.57
648.534	2.95
648.863	2.93
649.192	2.51
649.521	2.39
649.85	2.96
650.179	2.29
650.508	2.76
650.837	2.74
651.165	2.65
651.494	2.72
651.822	2.46
652.151	2.89
652.479	3.08
652.808	2.46
653.136	2.33
653.465	2.74
653.793	2.98
654.121	2.77
654.449	2.52
654.777	2.62
655.105	2.76
655.433	2.81
655.761	2.38
656.089	3.04
656.417	2.78
656.745	3.18
657.073	3.12
657.4	2.76
657.728	2.28
658.056	2.67
658.383	2.95
658.711	2.5
659.038	3.15
659.365	2.79
659.693	2.16
660.02	2.18
660.347	2.8
660.674	2.62
661.001	2.66
661.329	2.28
661.656	2.3
661.982	2.74
662.309	2.6
662.636	2.35
662.963	2.9
663.29	2.04
663.616	2.27
663.943	2.66
664.27	2.46
664.596	2.37
664.923	3.06
665.249	2.56
665.576	2.51
665.902	2.63
666.228	2.64
666.554	2.46
666.881	2.85
667.207	2.32
667.533	3.06
667.859	2.18
668.185	3.24
668.511	2.24
668.837	2.13
669.162	2.56
669.488	2.69
669.814	3.27
670.139	3.43
670.465	2.93
670.791	2.92
671.116	2.65
671.442	2.78
671.767	3.12
672.092	2.81
672.418	2.83
672.743	2.38
673.068	2.25
673.393	3.01
673.718	2.77
674.043	2.33
674.368	2.98
674.693	2.52
675.018	2.23
675.343	2.69
675.667	2.68
675.992	2.18
676.317	2.5
676.641	2.19
676.966	2.92
677.29	2.38
677.615	2.23
677.939	2.75
678.264	2.5
678.588	2.97
678.912	3.12
679.236	2.6
679.56	2.25
679.885	2.98
680.209	2.25
680.532	1.84
680.856	2.71
681.18	2.16
681.504	2.51
681.828	2.19
682.152	2.7
682.475	3.04
682.799	3.15
683.122	2.58
683.446	2.51
683.769	2.93
684.093	3
684.416	2.72
684.739	2.91
685.062	2.81
685.386	2.51
685.709	2.79
686.032	2.64
686.355	2.91
686.678	2.51
687.001	1.99
687.324	2.35
687.646	1.88
687.969	2.62
688.292	3.26
688.614	3.25
688.937	2.55
689.26	2.41
689.582	2.46
689.904	2.54
690.227	2.5
690.549	2.61
690.871	2.76
691.194	2.69
691.516	2.75
691.838	2.81
692.16	3.03
692.482	2.55
692.804	2.25
693.126	2.53
693.448	2.59
693.769	2.79
694.091	2.59
694.413	3.32
694.735	3.08
695.056	2.77
695.378	2.96
695.699	3.48
696.021	3.22
696.342	2.45
696.663	3.02
696.984	3.43
697.306	1.65
697.627	2.35
697.948	2.88
698.269	1.76
698.59	3.18
698.911	3
699.232	2.73
699.553	3.41
699.873	3.12
700.194	3.52
700.515	2.26
700.835	3.44
701.156	2.81
701.477	2.39
701.797	3.21
702.117	3.03
702.438	3.61
702.758	2.96
703.078	1.91
703.398	2.88
703.719	3.14
704.039	2.73
704.359	1.89
704.679	2.51
704.999	2.33
705.319	1.56
705.638	2.25
705.958	3.05
706.278	2.13
706.597	3.19
706.917	2.52
707.237	2.69
707.556	2.23
707.876	1.32
708.195	2.8
708.514	3.58
708.834	2.67
709.153	4.28
709.472	2.22
709.791	3.3
710.11	3.18
710.429	2.75
710.748	3.09
711.067	2.94
711.386	3.06
711.705	1.89
712.023	3.3
712.342	2.64
712.661	2.79
712.979	3.09
713.298	3.27
713.616	3.69
713.935	3.3
714.253	3.31
714.572	2.39
714.89	2.28
715.208	3.69
715.526	3.38
715.844	2.28
716.162	2.54
716.48	2.13
716.798	3.6
717.116	3.47
717.434	3.37
717.752	2.79
718.069	3.22
718.387	3.25
718.705	2.84
719.022	1.97
719.34	2.07
719.657	3.98
719.975	2.31
720.292	2.77
720.609	3.28
720.927	2.37
721.244	2.29
721.561	2.24
721.878	2.93
722.195	3.44
722.512	3.49
722.829	3.43
723.146	2.42
723.463	3.52
723.779	1.41
724.096	1.68
724.413	2.82
724.729	3.75
725.046	3.82
725.362	0.81
725.679	4.37
725.995	2.1
726.311	3.3
726.628	3.16
726.944	3.98
727.26	2.61
727.576	3.24
727.892	2.79
728.208	3
728.524	3.32
728.84	2.92
729.156	2.66
729.472	6.08
729.787	2.7
730.103	3.45
730.419	3.74
730.734	2.78
731.05	3.64
731.365	3.34
731.681	2.72
731.996	0.22
732.311	2.63
732.626	3.75
732.942	2.6
733.257	4.13
733.572	4.2
733.887	3.72
734.202	2.9
734.517	2.35
734.832	3.08
735.146	2.61
735.461	3.19
735.776	2.92
736.091	3.25
736.405	3.19
736.72	3.82
737.034	2.19
737.349	2.1
737.663	2.05
737.977	3.31
738.292	3.09
738.606	3.73
738.92	3.14
739.234	3.11
739.548	3.13
739.862	2.43
740.176	1.59
740.49	3.45
740.804	2.24
741.117	3.44
741.431	1.45
741.745	2.83
742.058	3.26
742.372	2.75
742.685	0.05
742.999	3.15
743.312	3
743.626	2.62
743.939	3.09
744.252	1.67
744.565	3.05
744.878	2.25
745.191	2.95
745.505	2.15
745.817	2.84
746.13	3.46
746.443	4.47
746.756	1.57
747.069	2.43
747.381	2.8
747.694	-0.07
748.007	3.95
748.319	2.91
748.632	3.19
748.944	2.43
749.256	4.14
749.569	1.84
749.881	1.46
750.193	4.75
750.505	4.16
750.817	1.41
751.129	3.26
751.441	2.53
751.753	3.33
752.065	3.92
752.377	3.12
752.689	3.39
753	3.1
753.312	2.3
753.624	5.07
753.935	1.24
754.247	3.83
754.558	2.93
754.869	4.82
755.181	2.68
755.492	4.72
755.803	2.85
756.114	3.18
756.425	2.9
756.736	2.14
757.047	4.51
757.358	2.29
757.669	4.77
757.98	2.44
758.291	4.63
758.601	2.3
758.912	2.97
759.223	3.18
759.533	3.93
759.844	2.67
760.154	3.4
760.464	2.26
760.775	5.08
761.085	2.94
761.395	4.31
761.705	3.68
762.016	3.85
762.326	3.74
762.636	2.86
762.945	1.8
763.255	2.12
763.565	3.32
763.875	2.03
764.185	3.26
764.494	2.73
764.804	3.78
765.113	2.95
765.423	3.48
765.732	3.23
766.042	4.11
766.351	3.26
766.66	4.55
766.97	3.88
767.279	3.35
767.588	4.53
767.897	4
768.206	2.17
768.515	2.6
768.824	3.19
769.133	3.2
769.441	5.17
769.75	3.3
770.059	4.19
770.367	1.96
770.676	1.67
770.984	2.59
771.293	2.5
771.601	2.29
771.91	3.36
772.218	-1
772.526	2.9
772.834	5.31
773.142	1.92
773.45	-0.29
773.758	5.07
774.066	0.19
774.374	1.68
774.682	2.27
774.99	0.7
775.298	2.51
775.605	4.64
775.913	0.8
776.22	-0.06
776.528	1.56
776.835	1.49
777.143	4.11
777.45	-0.86
777.757	-0.37
778.065	2.7
778.372	2.82
778.679	5.84
778.986	2.65
779.293	0.95
779.6	4.34
779.907	2.37
780.214	5.34
780.52	5.6
780.827	1.94
781.134	3.75
781.44	-0.25
781.747	2.37
782.053	0.77
782.36	2.13
782.666	3.43
782.973	2.81
783.279	2.46
783.585	0.78
783.891	1.62
784.197	2.86
784.503	6.12
784.809	0.7
785.115	-1.79
785.421	1.78
785.727	1.37
786.033	2.55
786.339	5.15
786.644	-0.24
786.95	3.54
787.255	0.32
787.561	4.74
787.866	0.62
788.172	1.96
788.477	-2.56
788.782	-0.8
789.088	2.95
789.393	0.06
789.698	-1.54
790.003	1.16
790.308	1.84
790.613	7.54
790.918	4.44
791.223	2.11
791.527	6.82
791.832	3.13
792.137	3.56
792.441	6.06
792.746	0.67
793.05	7.11
793.355	4.65
793.659	5.86
793.963	5.42
794.268	1.03
794.572	10.3
794.876	2.85
795.18	-2.66
795.484	-0.75
795.788	0.37
796.092	6.27
796.396	-1.76
796.7	3.74
797.004	5.77
797.307	-0.08
797.611	2.98
797.915	4.69
798.218	1.8
798.522	-0.78
798.825	3.2
799.128	1.31
799.432	3.42
799.735	2.33
800.038	0.07
800.341	0.92
800.644	3.39
800.947	1.44
801.25	1.77
801.553	0.38
801.856	3.07
802.159	-1.39
802.462	2.54
802.764	3.3
803.067	-0.75
803.37	1.39
803.672	2.94
803.975	1.65
804.277	3.15
804.579	3.46
804.882	-3.52
805.184	2.22
805.486	1.7
805.788	3.49
806.09	1.3
806.392	2.87
806.694	2.78
806.996	6.14
807.298	-0.53
807.6	2.53
807.902	2
808.203	3.66
808.505	2.16
808.807	7.77
809.108	-2.08
809.409	3.15
809.711	-0.03
810.012	0.37
810.313	8.37
810.615	3.65
810.916	-0.08
811.217	4.79
811.518	8.51
811.819	-2.02
812.12	2.58
812.421	-1.07
812.722	2.71
813.023	0.15
813.323	11.7
813.624	4.75
813.925	5.21
814.225	3.36
814.526	3.23
814.826	5.04
815.126	2.85
815.427	5.81
815.727	4.23
816.027	5.43
816.327	-8.61
816.627	-10.18
816.927	-2.76
817.227	-10.78
817.527	2.67
817.827	2.64
818.127	5.05
818.427	-2.85
818.727	3.82
819.026	5.67
819.326	11.49
819.625	6.95
819.925	5.87
820.224	0.26
820.524	-0.68
820.823	-5.08
821.122	2.45
821.421	5.95
821.72	1.68
822.019	-0.64
822.318	2.66
822.617	-0.06
822.916	2.17
823.215	1.35
823.514	2.45
823.813	4.38
824.111	5.21
824.41	4.09
824.709	6.77
825.007	5.75
825.306	4.83
825.604	5.35
825.902	5.66
826.201	4.28
826.499	4.44
826.797	6.21
827.095	2.22
827.393	5.28
827.691	6.67
827.989	4.82
828.287	7.15
828.585	3.68
828.882	4.03
829.18	3.12
829.478	2.21
829.775	6.54
830.073	4.93
830.37	5.36
830.668	3.32
830.965	3.53
831.263	5.13
831.56	5
831.857	4.15
832.154	7.61
832.451	6.01
832.748	-1.02
833.045	11.56
833.342	1.15
833.639	-0.75
833.936	3.06
834.232	4.04
834.529	7.91
834.826	0.4
835.122	2.58
835.419	1.91
835.715	-0.09
836.012	1.6
836.308	7.65
836.604	4.21
836.901	8.84
837.197	4.37
837.493	3.5
837.789	9.35
838.085	-0.97
838.381	6.51
838.677	0.79
838.972	4.36
839.268	-0.43
839.564	2.29
839.86	-6.62
840.155	-1.82
840.451	-3.11
840.746	10.9
841.042	-7.84
841.337	1.59
841.632	13.19
841.928	4.66
842.223	-0.11
842.518	6.15
842.813	3.01
843.108	-8.18
843.403	4.96
843.698	-2.44
843.993	2.03
844.287	9.8
844.582	6.95
844.877	-0.28
845.171	7.6
845.466	-5.55
845.761	5.07
846.055	-4.03
846.349	-18.16
846.644	-1.4
846.938	-11.41
847.232	-9.96
847.526	8.88
847.82	-9.75
848.114	-13.1
848.408	0.7
848.702	-3.72
848.996	6.34
849.29	5.33
849.584	-7.93
849.877	19
850.171	15.5
850.465	-18.86
850.758	11.11
851.052	-2.73
851.345	6.88
851.638	12.26
851.932	-17.17
852.225	-26.61
852.518	0.01
852.811	-3.48
853.104	-7.66
853.397	-4.08
853.69	7.73
853.983	-25.94
854.276	-4.3
854.569	-23.99
854.861	11.04
855.154	-27.54
855.447	-2.39
855.739	20.38
856.032	-4.1
856.324	-0.24
856.616	6.26
856.909	18.09
857.201	4.57
857.493	-3.22
857.785	-6.97
858.077	-22.47
858.369	-4.8
858.661	30.15
858.953	-10.13
859.245	-17.33
859.537	2.47
859.829	9.5
860.12	-14.16
860.412	-12
860.703	4.55
860.995	-16.46
861.286	-11.01
861.578	-21.78
861.869	-0.6
862.16	-40.16
862.452	-29.12
862.743	8.41
863.034	-4.37
863.325	16.79
863.616	15.82
863.907	2.9
864.198	9.65
864.488	-37.39
864.779	5.28
865.07	22.35
865.36	-12.52
865.651	3.86
865.941	17.99
866.232	-11.78
866.522	13.17
866.813	15.9
867.103	-18.39
867.393	-5.86
867.683	-6.82
867.973	-18.57
868.263	12.08
868.553	-5.06
868.843	-39.85
869.133	-14.2
869.423	-5.55
869.713	-19.09
870.002	-4.02
870.292	1.97
870.582	-10.27
870.871	-13.05
871.161	-9.66
871.45	-2.71
871.739	-46.39
872.029	-15.07
872.318	-12.1
872.607	-16.99
872.896	2.62
873.185	18.94
873.474	-4.93
873.763	-36.66
874.052	34.16
874.341	-29.11
874.63	-13.78
874.918	2.44
875.207	8.35
875.496	-12.14
875.784	-6.58
876.073	-9.86
876.361	-13.1
876.649	14.95
876.938	-7.63
877.226	26.43
877.514	-13.77
877.802	9.47
878.09	-22.26
878.378	-11.22
878.666	-30.07
878.954	42.78
879.242	0.53
879.53	-49.93
879.817	-16.7
880.105	-41.3
880.392	-15.78
880.68	-21.95
880.967	3.79
881.255	-7.65
881.542	-26.05
881.83	-8.07
882.117	-12.63
882.404	-12.97
882.691	-3.13
882.978	-20.73
883.265	0.48
883.552	-11.77
883.839	3.51
884.126	-14.63
884.413	4.75
884.699	5.71
884.986	2.74
885.273	2.1
885.559	2.1
885.846	2.1
