Data from 0178_forehead_Reflection__2__038.txt Node

Date: Mon Aug 28 18:56:41 CDT 2023
User: ToomeyLab
Spectrometer: FLMS14357
Trigger mode: 0
Integration Time (sec): 1.000000E-2
Scans to average: 100
Electric dark correction enabled: true
Nonlinearity correction enabled: false
Boxcar width: 0
XAxis mode: Wavelengths
Number of Pixels in Spectrum: 2048
>>>>>Begin Spectral Data<<<<<
189.047	68.23
189.435	68.23
189.823	68.23
190.211	-3572.09
190.599	-102.5
190.987	128.33
191.375	-76.63
191.763	76.95
192.151	-32.3
192.538	11.31
192.926	-0.75
193.314	1000.45
193.702	128.85
194.089	12.82
194.477	3670.59
194.864	-44.7
195.252	68.84
195.639	-4649.57
196.027	91.61
196.414	395.52
196.801	38.92
197.189	104.66
197.576	-326.57
197.963	-15.53
198.351	11.08
198.738	132.53
199.125	36.18
199.512	67.8
199.899	51.7
200.286	92.67
200.673	8.88
201.06	21.2
201.447	39.87
201.833	16.66
202.22	9.85
202.607	32.75
202.994	27.86
203.38	82.96
203.767	-15.81
204.154	-3.28
204.54	19.82
204.927	-1.52
205.313	41.39
205.699	12.51
206.086	48.88
206.472	6.91
206.858	2.81
207.245	24.45
207.631	28.8
208.017	23.75
208.403	29.47
208.789	-10.51
209.175	1.17
209.561	47.9
209.947	2.98
210.333	31.91
210.719	39.31
211.105	58.78
211.491	9.11
211.876	55.78
212.262	57.35
212.648	31.95
213.034	-26.7
213.419	48.55
213.805	33.27
214.19	36.35
214.576	29.46
214.961	-5.3
215.346	-4.35
215.732	61.07
216.117	-22.79
216.502	29.15
216.888	-11.23
217.273	15.68
217.658	16.79
218.043	42.51
218.428	16.84
218.813	17.74
219.198	26.42
219.583	13.37
219.968	20.45
220.353	-0.65
220.738	11.5
221.122	11.71
221.507	-12.24
221.892	15.75
222.276	10.3
222.661	5.19
223.046	31.35
223.43	14.82
223.815	20.69
224.199	19.49
224.583	11.83
224.968	16.56
225.352	21.49
225.736	8.09
226.121	4.06
226.505	10.49
226.889	10.11
227.273	16.82
227.657	7.83
228.041	12.15
228.425	9.51
228.809	11.81
229.193	9.24
229.577	12.9
229.961	7.83
230.344	7.88
230.728	7.5
231.112	6.38
231.495	7.16
231.879	5.8
232.263	6.38
232.646	6.11
233.03	8.66
233.413	9.91
233.797	7.71
234.18	7.14
234.563	8.54
234.946	8.51
235.33	5.98
235.713	5.49
236.096	8.98
236.479	7.57
236.862	8.16
237.245	5.37
237.628	9.9
238.011	9.29
238.394	8.27
238.777	8.31
239.16	6.75
239.543	7.36
239.925	9.86
240.308	5.49
240.691	7.18
241.073	6.78
241.456	6.98
241.838	6.01
242.221	9.89
242.603	7.87
242.986	7.53
243.368	7.17
243.75	6.85
244.133	6.24
244.515	6.51
244.897	6.42
245.279	7.08
245.661	6.76
246.043	6.5
246.425	6.41
246.807	8.47
247.189	6.81
247.571	6.56
247.953	7.14
248.335	6.62
248.717	6.49
249.098	6.6
249.48	6.51
249.862	6.65
250.243	6.49
250.625	7.16
251.006	7.21
251.388	6.53
251.769	7.48
252.151	7.49
252.532	7.03
252.913	7.87
253.295	6.23
253.676	6.47
254.057	6.78
254.438	6.58
254.819	6.71
255.2	6.49
255.581	7.68
255.962	6.99
256.343	7.81
256.724	6.16
257.105	7.03
257.486	7.47
257.867	7.54
258.247	6.22
258.628	7.69
259.009	6.52
259.389	6.75
259.77	6.94
260.15	6.46
260.531	6.5
260.911	6.56
261.292	6.46
261.672	6.26
262.052	6.33
262.432	6.38
262.813	6.59
263.193	6.41
263.573	6.49
263.953	6.93
264.333	7.24
264.713	6.04
265.093	6.71
265.473	6.82
265.853	6.27
266.233	6.79
266.612	7.88
266.992	6.56
267.372	7.2
267.752	6.7
268.131	6.64
268.511	5.53
268.89	6.93
269.27	5.94
269.649	6.28
270.029	6.64
270.408	6.86
270.787	6.75
271.167	6.52
271.546	6.3
271.925	6.62
272.304	6.86
272.683	6.24
273.062	6.03
273.441	6.32
273.82	6.05
274.199	5.92
274.578	6.31
274.957	6.34
275.336	6.89
275.715	6.57
276.093	6.3
276.472	6.6
276.851	5.68
277.229	6.94
277.608	6.08
277.986	6
278.365	6.73
278.743	6.37
279.122	6.3
279.5	6.31
279.878	6.18
280.257	6.1
280.635	6.75
281.013	6.64
281.391	5.96
281.769	5.89
282.147	6.48
282.525	6.13
282.903	6.65
283.281	5.99
283.659	6.83
284.037	6.16
284.415	6.39
284.792	6.32
285.17	6.27
285.548	5.79
285.925	6.81
286.303	6.15
286.68	6.25
287.058	6.61
287.435	5.89
287.813	6.37
288.19	6.49
288.567	6.28
288.945	6.39
289.322	6.6
289.699	6.74
290.076	7.31
290.453	6.49
290.83	6.52
291.207	6.36
291.584	6.49
291.961	6.95
292.338	6.59
292.715	6.28
293.092	6.59
293.469	6.71
293.845	6.51
294.222	6.8
294.599	6.95
294.975	7
295.352	6.9
295.728	7.26
296.105	6.49
296.481	7.17
296.858	7.18
297.234	7.03
297.61	6.97
297.986	7.21
298.363	7.66
298.739	7.29
299.115	7.2
299.491	7.25
299.867	7.12
300.243	7.13
300.619	7.43
300.995	7.9
301.371	7.41
301.746	7.7
302.122	7.83
302.498	7.66
302.874	7.96
303.249	8.07
303.625	7.97
304	7.67
304.376	7.45
304.751	7.55
305.127	7.85
305.502	8.2
305.878	8.42
306.253	8.24
306.628	8.22
307.003	8.55
307.378	8.39
307.754	8.43
308.129	8.65
308.504	9.05
308.879	8.82
309.254	8.85
309.629	8.9
310.003	8.59
310.378	8.86
310.753	8.53
311.128	9.23
311.502	9.28
311.877	8.53
312.252	9.19
312.626	9.18
313.001	9.04
313.375	9.38
313.75	9.08
314.124	9.15
314.498	9.48
314.873	9.66
315.247	9.59
315.621	9.08
315.995	9.96
316.369	10.38
316.743	9.07
317.117	9.9
317.491	8.82
317.865	9.48
318.239	9.75
318.613	10.26
318.987	10.04
319.361	10.55
319.734	10.06
320.108	10.42
320.482	9.36
320.855	9.99
321.229	9.64
321.602	10.25
321.976	10.27
322.349	11.17
322.723	10.46
323.096	10.6
323.469	9.91
323.843	10.4
324.216	11.21
324.589	11.03
324.962	11.09
325.335	11.14
325.708	10.89
326.081	10.67
326.454	11.3
326.827	11
327.2	10.66
327.573	11.2
327.945	11.05
328.318	11.92
328.691	11.01
329.063	10.89
329.436	11.08
329.809	11.71
330.181	10.37
330.553	11.37
330.926	11.23
331.298	11.72
331.671	11.77
332.043	11.84
332.415	12.33
332.787	11.77
333.159	11.48
333.532	11.53
333.904	11.81
334.276	11.58
334.648	11.89
335.02	11.93
335.391	11.68
335.763	11.98
336.135	11.88
336.507	11.79
336.879	11.81
337.25	12.39
337.622	12.74
337.993	12.35
338.365	12.4
338.736	12.67
339.108	12.32
339.479	12.28
339.851	12.92
340.222	12.69
340.593	12.36
340.964	12.54
341.336	12.46
341.707	12.27
342.078	12.15
342.449	12.92
342.82	12.98
343.191	12.79
343.562	12.76
343.933	12.66
344.303	12.91
344.674	12.6
345.045	13.08
345.416	12.99
345.786	13.03
346.157	13.02
346.527	12.97
346.898	12.94
347.268	13.08
347.639	12.94
348.009	13.06
348.38	13.79
348.75	13.35
349.12	13.59
349.49	13.69
349.861	13.23
350.231	13.3
350.601	14.09
350.971	13.79
351.341	13.63
351.711	13.99
352.081	13.56
352.45	14.03
352.82	13.8
353.19	14.55
353.56	14.12
353.929	14.07
354.299	14.16
354.669	14.05
355.038	13.86
355.408	14.21
355.777	14.29
356.147	14.45
356.516	14.76
356.885	14.28
357.254	14.16
357.624	14.3
357.993	14.27
358.362	14.4
358.731	14.43
359.1	14.87
359.469	15
359.838	14.26
360.207	14.49
360.576	14.88
360.945	14.96
361.314	14.73
361.682	14.98
362.051	15.06
362.42	15.04
362.788	14.87
363.157	15.11
363.525	14.83
363.894	15.02
364.262	15.11
364.631	14.78
364.999	14.92
365.367	15.51
365.735	15.49
366.104	15.32
366.472	15.16
366.84	15.54
367.208	15.56
367.576	15.53
367.944	15.61
368.312	15.85
368.68	15.72
369.048	15.51
369.416	15.74
369.783	15.55
370.151	15.8
370.519	16.02
370.886	15.7
371.254	15.83
371.621	15.79
371.989	16.22
372.356	15.93
372.724	16.53
373.091	16.4
373.458	16.35
373.826	16.49
374.193	16.53
374.56	16.46
374.927	16.41
375.294	16.43
375.661	16.77
376.028	16.63
376.395	16.21
376.762	17.24
377.129	16.8
377.496	16.99
377.863	16.84
378.229	17.01
378.596	17.01
378.963	17.19
379.329	17.16
379.696	16.99
380.062	16.84
380.429	17.14
380.795	17.35
381.161	17.2
381.528	17.44
381.894	17.5
382.26	17.6
382.626	17.36
382.993	17.72
383.359	17.92
383.725	17.89
384.091	17.68
384.457	17.78
384.823	17.55
385.188	18.02
385.554	17.4
385.92	17.96
386.286	17.83
386.651	17.83
387.017	18.37
387.383	18.16
387.748	18.04
388.114	17.93
388.479	17.9
388.845	18.26
389.21	18.16
389.575	18.28
389.94	18.24
390.306	18.52
390.671	18.09
391.036	18.46
391.401	18.77
391.766	18.66
392.131	18.73
392.496	18.51
392.861	18.81
393.226	18.72
393.591	18.52
393.956	18.93
394.32	18.84
394.685	18.97
395.05	19.14
395.414	18.73
395.779	19.26
396.143	19.18
396.508	19.21
396.872	19.4
397.236	19.03
397.601	19.31
397.965	19.5
398.329	19.52
398.694	19.74
399.058	19.75
399.422	19.97
399.786	19.57
400.15	19.7
400.514	19.87
400.878	19.94
401.242	19.8
401.605	19.83
401.969	19.77
402.333	19.8
402.697	19.85
403.06	19.98
403.424	20.28
403.787	19.93
404.151	20.11
404.514	20.06
404.878	20.1
405.241	20.48
405.604	20.36
405.968	20.25
406.331	20.64
406.694	20.52
407.057	20.53
407.42	20.31
407.783	20.5
408.146	20.49
408.509	20.49
408.872	20.67
409.235	20.71
409.598	20.62
409.961	20.87
410.323	20.97
410.686	21.05
411.049	21.07
411.411	21.21
411.774	21.04
412.136	21.05
412.499	20.86
412.861	21.1
413.223	21.11
413.586	21.08
413.948	21.61
414.31	21.11
414.672	21.41
415.035	21.23
415.397	21.52
415.759	21.31
416.121	21.82
416.483	21.71
416.845	21.78
417.206	21.93
417.568	21.91
417.93	21.96
418.292	21.76
418.653	21.58
419.015	21.55
419.377	21.74
419.738	22.05
420.1	21.75
420.461	21.86
420.822	21.68
421.184	21.82
421.545	21.93
421.906	21.93
422.267	21.83
422.629	21.66
422.99	21.72
423.351	21.87
423.712	21.84
424.073	21.91
424.434	22.16
424.795	22.21
425.155	22.15
425.516	22.24
425.877	22.19
426.238	22.06
426.598	22.04
426.959	22.36
427.32	22.29
427.68	22.5
428.041	22.51
428.401	22.73
428.761	22.91
429.122	22.8
429.482	23.24
429.842	23.23
430.202	23.29
430.563	23.35
430.923	23.47
431.283	23.41
431.643	23.39
432.003	23.59
432.363	23.61
432.722	23.48
433.082	23.62
433.442	23.76
433.802	23.41
434.161	23.67
434.521	23.67
434.881	23.51
435.24	23.57
435.6	23.75
435.959	23.63
436.319	23.66
436.678	23.93
437.037	23.95
437.396	23.94
437.756	24.06
438.115	24.35
438.474	24.32
438.833	24.37
439.192	24.5
439.551	24.15
439.91	24.38
440.269	24.4
440.628	24.57
440.987	24.4
441.345	24.33
441.704	24.29
442.063	24.35
442.421	24.39
442.78	24.64
443.138	24.5
443.497	24.34
443.855	24.64
444.214	24.74
444.572	24.94
444.93	24.92
445.288	24.94
445.647	25.26
446.005	25.26
446.363	24.98
446.721	25.13
447.079	25.01
447.437	25.12
447.795	24.82
448.153	24.88
448.51	24.68
448.868	24.94
449.226	24.86
449.584	25.05
449.941	25.29
450.299	25.28
450.656	25.56
451.014	25.55
451.371	25.49
451.729	25.73
452.086	25.79
452.443	26.17
452.801	26.06
453.158	26.16
453.515	26.15
453.872	26.13
454.229	26.25
454.586	26.25
454.943	26.02
455.3	26.22
455.657	26.28
456.014	26.4
456.371	26.14
456.727	26.19
457.084	26.31
457.441	26.36
457.797	26.36
458.154	26.47
458.51	26.77
458.867	26.87
459.223	26.77
459.58	26.75
459.936	26.91
460.292	26.83
460.648	26.7
461.005	26.52
461.361	26.74
461.717	26.62
462.073	26.43
462.429	26.37
462.785	26.45
463.141	26.66
463.496	26.89
463.852	27.01
464.208	27.2
464.564	27.43
464.919	27.39
465.275	27.62
465.631	27.51
465.986	27.83
466.342	27.99
466.697	27.74
467.052	27.57
467.408	27.43
467.763	27.86
468.118	27.79
468.473	27.9
468.829	27.72
469.184	27.87
469.539	28.02
469.894	27.67
470.249	27.87
470.603	27.84
470.958	28.19
471.313	28.06
471.668	28.17
472.023	28.29
472.377	28.31
472.732	28.35
473.086	28.35
473.441	28.77
473.795	28.75
474.15	28.75
474.504	28.82
474.859	28.83
475.213	28.51
475.567	28.59
475.921	28.81
476.275	28.91
476.63	29.05
476.984	28.8
477.338	29.19
477.692	29.19
478.045	29.36
478.399	29.16
478.753	29.16
479.107	29.16
479.461	29.19
479.814	29.33
480.168	29.3
480.521	29.29
480.875	29.44
481.228	29.33
481.582	29.23
481.935	29.26
482.289	29.56
482.642	29.71
482.995	29.67
483.348	29.61
483.701	29.51
484.055	29.57
484.408	29.44
484.761	29.33
485.114	29.38
485.466	29.11
485.819	28.87
486.172	28.74
486.525	28.76
486.878	28.69
487.23	28.78
487.583	29.08
487.936	29.33
488.288	29.66
488.641	29.74
488.993	29.77
489.345	29.57
489.698	29.39
490.05	29.36
490.402	29.29
490.754	29.41
491.107	29.55
491.459	29.69
491.811	30.11
492.163	30.35
492.515	30.51
492.866	30.56
493.218	30.42
493.57	30.08
493.922	29.84
494.274	29.85
494.625	29.89
494.977	30.15
495.328	30.44
495.68	30.79
496.031	31.07
496.383	31.13
496.734	31.3
497.086	31.44
497.437	31.52
497.788	31.5
498.139	31.51
498.49	31.51
498.842	31.35
499.193	31.31
499.544	31.28
499.894	31.46
500.245	31.52
500.596	31.76
500.947	31.64
501.298	31.8
501.648	31.85
501.999	32
502.35	32.01
502.7	32.13
503.051	32.35
503.401	32.19
503.752	32.29
504.102	32.39
504.452	32.32
504.803	32.48
505.153	32.3
505.503	32.41
505.853	32.46
506.203	32.59
506.553	32.73
506.903	32.67
507.253	32.7
507.603	32.45
507.953	32.88
508.303	32.79
508.652	33.01
509.002	33.22
509.352	32.95
509.701	33.08
510.051	32.9
510.4	32.97
510.75	32.95
511.099	32.94
511.449	32.87
511.798	32.95
512.147	33.08
512.496	33.24
512.846	33.48
513.195	33.52
513.544	33.47
513.893	33.6
514.242	33.46
514.591	33.53
514.939	33.37
515.288	33.63
515.637	33.9
515.986	33.74
516.334	33.99
516.683	34.17
517.032	34.12
517.38	34.11
517.729	34.12
518.077	34.28
518.426	34.16
518.774	34.33
519.122	34.31
519.47	34.26
519.819	34.36
520.167	34.09
520.515	33.93
520.863	33.85
521.211	33.83
521.559	33.96
521.907	34.1
522.255	34.12
522.602	34.43
522.95	34.5
523.298	34.84
523.645	34.89
523.993	35.16
524.341	35.16
524.688	35.2
525.036	35.13
525.383	35.15
525.73	35.25
526.078	35.38
526.425	35.47
526.772	35.48
527.119	35.4
527.466	35.13
527.814	34.96
528.161	34.81
528.508	34.84
528.854	35.23
529.201	35.36
529.548	35.36
529.895	35.37
530.242	35.21
530.588	34.78
530.935	34.73
531.282	34.59
531.628	34.61
531.975	34.75
532.321	34.8
532.667	35.03
533.014	35.45
533.36	35.59
533.706	35.71
534.052	35.86
534.399	35.81
534.745	36.12
535.091	35.74
535.437	35.55
535.783	35.61
536.129	35.53
536.474	35.71
536.82	35.94
537.166	36
537.512	36.36
537.857	36.8
538.203	36.63
538.549	36.46
538.894	36.29
539.239	36.32
539.585	36.45
539.93	36.54
540.276	36.61
540.621	36.99
540.966	37.1
541.311	37.33
541.656	37.47
542.001	37.46
542.346	37.69
542.691	37.27
543.036	37.32
543.381	36.81
543.726	36.51
544.071	36.63
544.415	36.63
544.76	36.78
545.105	36.97
545.449	36.97
545.794	37.15
546.138	37.42
546.483	37.5
546.827	37.7
547.171	38.05
547.516	37.84
547.86	37.94
548.204	38.01
548.548	38.02
548.892	37.84
549.236	37.8
549.58	37.88
549.924	38.29
550.268	38.23
550.612	38.36
550.956	38.68
551.3	38.79
551.643	38.87
551.987	38.87
552.33	38.84
552.674	39.08
553.017	39.3
553.361	39.33
553.704	39.36
554.048	39.32
554.391	39.16
554.734	39.35
555.077	39.08
555.42	39.2
555.764	39.31
556.107	39.33
556.45	39.51
556.793	39.58
557.135	39.61
557.478	39.94
557.821	39.81
558.164	39.91
558.507	39.99
558.849	40.35
559.192	40.05
559.534	39.82
559.877	40.05
560.219	40.27
560.562	40.16
560.904	40.18
561.246	40.48
561.589	40.29
561.931	40.49
562.273	40.13
562.615	40.58
562.957	40.66
563.299	40.42
563.641	40.37
563.983	40.66
564.325	40.93
564.667	40.59
565.008	40.87
565.35	40.83
565.692	41.04
566.033	40.87
566.375	40.79
566.716	41.13
567.058	41.41
567.399	41.08
567.741	41.21
568.082	41.12
568.423	40.84
568.764	40.89
569.105	40.84
569.447	41.07
569.788	41.09
570.129	41.47
570.47	41.32
570.811	41.51
571.151	41.62
571.492	41.42
571.833	41.47
572.174	41.52
572.514	41.65
572.855	41.79
573.195	41.78
573.536	42
573.876	41.83
574.217	41.91
574.557	41.82
574.898	42.06
575.238	41.83
575.578	42.05
575.918	42.08
576.258	42.05
576.598	42.07
576.938	42.04
577.278	42.22
577.618	42.53
577.958	42.32
578.298	42.7
578.638	42.49
578.977	42.41
579.317	42.45
579.657	42.59
579.996	42.47
580.336	42.77
580.675	42.99
581.014	43.4
581.354	43.19
581.693	43.41
582.032	43.44
582.372	43.49
582.711	43.37
583.05	43.42
583.389	43.31
583.728	43.33
584.067	43.52
584.406	43.55
584.745	43.48
585.083	43.67
585.422	43.45
585.761	43.58
586.1	43.58
586.438	44
586.777	43.87
587.115	43.84
587.454	43.95
587.792	44.32
588.13	44.16
588.469	44.38
588.807	44.3
589.145	44.3
589.483	44.03
589.821	44.25
590.159	44.1
590.497	44.34
590.835	44.44
591.173	44.41
591.511	44.45
591.849	44.38
592.187	44.43
592.524	44.18
592.862	44.61
593.2	44.28
593.537	44.62
593.875	44.97
594.212	45.22
594.55	44.97
594.887	44.99
595.224	45.32
595.561	44.82
595.899	44.94
596.236	45.3
596.573	45.56
596.91	45.46
597.247	45.48
597.584	45.46
597.921	45.35
598.258	45.27
598.594	45.28
598.931	45.32
599.268	45.11
599.604	44.97
599.941	45.15
600.277	45
600.614	45.27
600.95	45.54
601.287	45.58
601.623	46.03
601.959	45.99
602.296	45.95
602.632	45.89
602.968	46.27
603.304	46.07
603.64	46.02
603.976	46.06
604.312	46.46
604.648	46.47
604.984	46.3
605.319	46.17
605.655	46.39
605.991	46.22
606.326	46.09
606.662	45.9
606.998	45.88
607.333	45.78
607.668	46.1
608.004	46.05
608.339	46.31
608.674	46.64
609.01	46.77
609.345	46.99
609.68	46.55
610.015	46.99
610.35	47.13
610.685	46.96
611.02	46.93
611.355	47.18
611.689	46.42
612.024	46.73
612.359	47.21
612.694	46.88
613.028	47
613.363	46.88
613.697	47.25
614.032	47.53
614.366	47.28
614.7	47.51
615.035	47.21
615.369	47.52
615.703	47.76
616.037	47.68
616.371	47.93
616.705	47.82
617.039	47.85
617.373	47.68
617.707	47.9
618.041	47.97
618.375	47.95
618.709	48.06
619.042	48.32
619.376	48.53
619.71	48.2
620.043	48.44
620.377	48.73
620.71	48.22
621.043	48.71
621.377	47.86
621.71	48.43
622.043	48.13
622.376	48.36
622.709	48.51
623.043	48.62
623.376	48.8
623.709	48.39
624.041	49.08
624.374	48.91
624.707	48.62
625.04	48.97
625.373	48.78
625.705	48.97
626.038	49.31
626.37	49.1
626.703	49.02
627.035	48.96
627.368	49.63
627.7	49.44
628.032	49.36
628.365	49.14
628.697	49.34
629.029	49.1
629.361	49.3
629.693	49.01
630.025	49.23
630.357	49.1
630.689	49.52
631.021	49.3
631.353	49.84
631.684	49.7
632.016	49.63
632.348	49.53
632.679	49.75
633.011	49.78
633.342	49.77
633.674	49.74
634.005	50.08
634.336	49.8
634.668	50.55
634.999	50.74
635.33	50.08
635.661	50.07
635.992	49.71
636.323	50.49
636.654	49.96
636.985	50.1
637.316	50.12
637.647	50.44
637.977	49.92
638.308	50.1
638.639	50.42
638.969	50.91
639.3	50.64
639.63	50.75
639.961	51.11
640.291	50.4
640.622	51.05
640.952	50.69
641.282	51.12
641.612	51.16
641.943	50.75
642.273	51.32
642.603	50.91
642.933	50.72
643.263	50.92
643.592	51.17
643.922	51.36
644.252	51.35
644.582	51.99
644.911	51.63
645.241	51.49
645.571	51.49
645.9	52.42
646.23	51.61
646.559	51.19
646.888	51.74
647.218	51.6
647.547	51.71
647.876	52.31
648.205	51.97
648.534	52.2
648.863	51.87
649.192	51.88
649.521	52.08
649.85	51.51
650.179	51.52
650.508	52.25
650.837	51.84
651.165	52.27
651.494	51.77
651.822	52.74
652.151	51.95
652.479	52.04
652.808	52.33
653.136	52.14
653.465	51.97
653.793	52.59
654.121	52.9
654.449	53.09
654.777	52.2
655.105	52.62
655.433	52.38
655.761	52.45
656.089	52.69
656.417	52.73
656.745	52.51
657.073	52.99
657.4	52.73
657.728	53.03
658.056	53.21
658.383	52.61
658.711	53.52
659.038	53.22
659.365	53.66
659.693	52.95
660.02	53.66
660.347	54.05
660.674	52.91
661.001	53.33
661.329	53.48
661.656	53.3
661.982	53.06
662.309	53.21
662.636	53.22
662.963	53.48
663.29	53.59
663.616	53.82
663.943	53.33
664.27	54
664.596	53.71
664.923	54.31
665.249	53.63
665.576	53.76
665.902	53.61
666.228	52.88
666.554	53.89
666.881	53.91
667.207	53.74
667.533	53.65
667.859	53.65
668.185	54.4
668.511	54.7
668.837	53.95
669.162	54.47
669.488	53.82
669.814	54.5
670.139	54.6
670.465	54.82
670.791	54.67
671.116	54.2
671.442	54.17
671.767	54.35
672.092	55
672.418	54.31
672.743	54.97
673.068	54.93
673.393	54.41
673.718	54.68
674.043	54.41
674.368	55.31
674.693	54.9
675.018	55.1
675.343	54.56
675.667	55.17
675.992	54.86
676.317	54.78
676.641	55.75
676.966	55.01
677.29	54.44
677.615	55.56
677.939	55.29
678.264	54.51
678.588	55.64
678.912	55.27
679.236	55.29
679.56	55.06
679.885	55.24
680.209	55.43
680.532	55.72
680.856	55.2
681.18	55.57
681.504	55.87
681.828	55.62
682.152	55.67
682.475	55.97
682.799	55.78
683.122	55.97
683.446	55.51
683.769	56.09
684.093	55.64
684.416	56.1
684.739	55.77
685.062	55.86
685.386	56.46
685.709	56.34
686.032	55.71
686.355	55.67
686.678	56.05
687.001	56.33
687.324	55.72
687.646	55.59
687.969	55.6
688.292	56.07
688.614	56.24
688.937	56.21
689.26	56.2
689.582	55.91
689.904	55.76
690.227	56.25
690.549	56.11
690.871	56.81
691.194	55.74
691.516	56.54
691.838	56.16
692.16	57.32
692.482	56.79
692.804	57.18
693.126	56.47
693.448	56.87
693.769	56.59
694.091	56.49
694.413	56.75
694.735	57.48
695.056	56.1
695.378	56.85
695.699	57.43
696.021	57.43
696.342	57.56
696.663	57.45
696.984	56.76
697.306	55.79
697.627	57.46
697.948	57.93
698.269	57.22
698.59	57.64
698.911	57.46
699.232	58.62
699.553	57.39
699.873	57.53
700.194	57.21
700.515	57.52
700.835	57.71
701.156	57.3
701.477	57.21
701.797	57.86
702.117	56.89
702.438	58.11
702.758	57.35
703.078	57.9
703.398	58.13
703.719	58.58
704.039	58.1
704.359	57.12
704.679	57.37
704.999	58.51
705.319	56.86
705.638	59.18
705.958	58.13
706.278	57.7
706.597	57.82
706.917	58.66
707.237	57.93
707.556	58.38
707.876	57.79
708.195	59.24
708.514	58.33
708.834	59.41
709.153	58.6
709.472	58.37
709.791	57.56
710.11	58.73
710.429	58.95
710.748	58.29
711.067	58.33
711.386	58.68
711.705	58.36
712.023	58.76
712.342	58.78
712.661	59.37
712.979	58.33
713.298	58.32
713.616	58.51
713.935	58.44
714.253	58.43
714.572	58.08
714.89	58.96
715.208	59.72
715.526	58.62
715.844	58.72
716.162	59.52
716.48	58.26
716.798	59.2
717.116	58.61
717.434	60.06
717.752	58.35
718.069	59.36
718.387	58.52
718.705	59.43
719.022	58.85
719.34	58.5
719.657	59.41
719.975	59.88
720.292	59.78
720.609	59.78
720.927	58.87
721.244	59.96
721.561	57.87
721.878	60.01
722.195	59.94
722.512	60.15
722.829	60.23
723.146	59.8
723.463	59.28
723.779	59.83
724.096	58.74
724.413	60.97
724.729	60.07
725.046	58.52
725.362	60.63
725.679	59.65
725.995	59.53
726.311	59.3
726.628	60.53
726.944	60.01
727.26	60.6
727.576	60.29
727.892	59.81
728.208	60.49
728.524	60.13
728.84	59.94
729.156	60.41
729.472	61.54
729.787	60.97
730.103	59.59
730.419	61.32
730.734	59.52
731.05	60.26
731.365	61.02
731.681	61.95
731.996	60.73
732.311	60.22
732.626	60.95
732.942	60.99
733.257	61.64
733.572	60.23
733.887	60.6
734.202	60.49
734.517	61.38
734.832	61.49
735.146	61.34
735.461	60.37
735.776	59.92
736.091	60.78
736.405	60.67
736.72	61.44
737.034	60.37
737.349	60.22
737.663	61.12
737.977	60.71
738.292	61.66
738.606	61.35
738.92	61.24
739.234	61.48
739.548	60.84
739.862	61.39
740.176	61.54
740.49	61.94
740.804	62.24
741.117	59.7
741.431	61.86
741.745	60.63
742.058	61.6
742.372	62.92
742.685	62.34
742.999	60.89
743.312	60.97
743.626	61.4
743.939	61.49
744.252	60.89
744.565	61.15
744.878	62.98
745.191	62.18
745.505	61.53
745.817	62.49
746.13	60.82
746.443	62.53
746.756	61.57
747.069	60.92
747.381	62.8
747.694	62.42
748.007	61.87
748.319	61.64
748.632	61.71
748.944	61.17
749.256	62.84
749.569	61.17
749.881	63.21
750.193	62.45
750.505	64.97
750.817	62.5
751.129	63.03
751.441	63.37
751.753	62.11
752.065	62.31
752.377	62.17
752.689	61.99
753	62.53
753.312	64.61
753.624	62.28
753.935	61.63
754.247	63.34
754.558	63.38
754.869	62.73
755.181	64.27
755.492	62.87
755.803	61.91
756.114	61.81
756.425	62.08
756.736	62.88
757.047	60.85
757.358	63.53
757.669	63.41
757.98	63.58
758.291	63.11
758.601	62.32
758.912	62.18
759.223	61.78
759.533	61.4
759.844	62.97
760.154	62.67
760.464	62.93
760.775	64.04
761.085	63.73
761.395	62.02
761.705	62.49
762.016	62.15
762.326	64.73
762.636	60.45
762.945	61.81
763.255	63.12
763.565	62.38
763.875	63.96
764.185	62.95
764.494	62.53
764.804	65.52
765.113	63.03
765.423	64.17
765.732	63.99
766.042	63.04
766.351	62.38
766.66	62.47
766.97	63.4
767.279	64.03
767.588	62.77
767.897	63.2
768.206	64.7
768.515	63.99
768.824	63.33
769.133	64.5
769.441	62.94
769.75	64.92
770.059	64.77
770.367	64.28
770.676	62.33
770.984	64.87
771.293	63.64
771.601	64.93
771.91	62.76
772.218	64.25
772.526	65.67
772.834	62.61
773.142	66.9
773.45	62.79
773.758	62.44
774.066	65.17
774.374	62.7
774.682	66.83
774.99	64.06
775.298	66.04
775.605	64.99
775.913	66
776.22	63.16
776.528	68.93
776.835	63.23
777.143	65.64
777.45	63.14
777.757	65.62
778.065	65.2
778.372	66.3
778.679	62.67
778.986	62.06
779.293	65.34
779.6	64.48
779.907	66.29
780.214	66.34
780.52	66.59
780.827	66.26
781.134	64.4
781.44	65.28
781.747	67.99
782.053	68.76
782.36	63.5
782.666	63.44
782.973	63.92
783.279	61.56
783.585	66.09
783.891	63.2
784.197	64.46
784.503	63.41
784.809	66.81
785.115	65.75
785.421	63.65
785.727	65.49
786.033	64.13
786.339	64.02
786.644	68.61
786.95	67.67
787.255	67.94
787.561	62.72
787.866	65.19
788.172	64.38
788.477	64.12
788.782	72.4
789.088	66.49
789.393	65.97
789.698	63.83
790.003	70.01
790.308	67.97
790.613	64.82
790.918	64.4
791.223	61.58
791.527	66.96
791.832	61.76
792.137	65.64
792.441	64.59
792.746	65.28
793.05	64.01
793.355	66.36
793.659	67.59
793.963	65.8
794.268	61.53
794.572	64.2
794.876	69.5
795.18	67.51
795.484	66.51
795.788	60.37
796.092	64.2
796.396	67.33
796.7	67.76
797.004	66.37
797.307	70.12
797.611	65.29
797.915	69.07
798.218	67.4
798.522	68.22
798.825	67.45
799.128	68.83
799.432	65.52
799.735	67.34
800.038	64.36
800.341	69.29
800.644	66.38
800.947	61.19
801.25	67.83
801.553	64.18
801.856	67.75
802.159	61.52
802.462	67.87
802.764	65.32
803.067	66.33
803.37	66.11
803.672	68.98
803.975	64.52
804.277	67.86
804.579	61.08
804.882	61.36
805.184	67.51
805.486	65.85
805.788	63.17
806.09	66.76
806.392	63.83
806.694	67.57
806.996	65.33
807.298	69.16
807.6	64.33
807.902	65.66
808.203	63.96
808.505	68.6
808.807	67.71
809.108	68.66
809.409	68.25
809.711	65.18
810.012	65.06
810.313	63.56
810.615	73.28
810.916	66.38
811.217	65.91
811.518	68.93
811.819	60.59
812.12	65.42
812.421	67.98
812.722	69.79
813.023	67.33
813.323	66.59
813.624	66.12
813.925	65.54
814.225	65.67
814.526	70.07
814.826	71.89
815.126	68.87
815.427	68.95
815.727	66.25
816.027	66.13
816.327	70.88
816.627	66.83
816.927	66.32
817.227	69.92
817.527	63.44
817.827	68.55
818.127	69.3
818.427	65.54
818.727	69.09
819.026	67.01
819.326	63.95
819.625	63.24
819.925	69.73
820.224	69.48
820.524	73.91
820.823	68.41
821.122	62.48
821.421	69.29
821.72	70.54
822.019	67.27
822.318	69.27
822.617	65.43
822.916	70.82
823.215	67.66
823.514	66.08
823.813	69.15
824.111	69.5
824.41	68.83
824.709	67.28
825.007	67.18
825.306	67.84
825.604	68.25
825.902	67.89
826.201	68.35
826.499	69.11
826.797	66.65
827.095	68.99
827.393	67.42
827.691	66.84
827.989	68.23
828.287	67.53
828.585	69.26
828.882	68.42
829.18	68.93
829.478	67.87
829.775	68.74
830.073	67.22
830.37	68.39
830.668	68.13
830.965	69.66
831.263	67.09
831.56	67.85
831.857	67.7
832.154	68
832.451	67.47
832.748	67.53
833.045	67.47
833.342	67.43
833.639	65.62
833.936	65.42
834.232	67.15
834.529	69.37
834.826	69.28
835.122	66.17
835.419	69.29
835.715	68.11
836.012	70.22
836.308	70.59
836.604	68.8
836.901	64.98
837.197	69.16
837.493	65.75
837.789	67.94
838.085	69.03
838.381	69.79
838.677	69.42
838.972	67.75
839.268	69.1
839.564	67.48
839.86	71.11
840.155	66.82
840.451	65.84
840.746	72.44
841.042	67.95
841.337	64.42
841.632	65.31
841.928	68.24
842.223	64.88
842.518	68.88
842.813	66.95
843.108	72.74
843.403	72.3
843.698	71.89
843.993	61.47
844.287	70.12
844.582	71.6
844.877	68.48
845.171	70.88
845.466	58.29
845.761	69.35
846.055	61.81
846.349	70.87
846.644	66.35
846.938	69.33
847.232	60.68
847.526	69.31
847.82	68.57
848.114	59.9
848.408	75.77
848.702	81.55
848.996	72.37
849.29	75.13
849.584	62.66
849.877	67.06
850.171	68.56
850.465	78.3
850.758	70.29
851.052	67.23
851.345	67.08
851.638	65.45
851.932	52.7
852.225	75.6
852.518	74.89
852.811	72.31
853.104	62.03
853.397	78.42
853.69	80.77
853.983	65.99
854.276	60.16
854.569	61.14
854.861	63.81
855.154	63.5
855.447	73.4
855.739	68.99
856.032	64.09
856.324	69.22
856.616	57.83
856.909	68.33
857.201	67.37
857.493	67.82
857.785	73.69
858.077	56.85
858.369	72.36
858.661	80.42
858.953	57.82
859.245	65.9
859.537	60.15
859.829	66.45
860.12	79.63
860.412	51.38
860.703	66.6
860.995	55.2
861.286	64.79
861.578	69.81
861.869	66.15
862.16	86.43
862.452	85.86
862.743	76.82
863.034	57.05
863.325	54.73
863.616	69.68
863.907	56.68
864.198	70.93
864.488	97.96
864.779	80.92
865.07	49.9
865.36	72.73
865.651	64.32
865.941	76.27
866.232	46.09
866.522	65.53
866.813	71.47
867.103	61.36
867.393	66.73
867.683	69.31
867.973	69.85
868.263	64.31
868.553	60.29
868.843	67.24
869.133	75
869.423	79.72
869.713	59.29
870.002	69.18
870.292	78.9
870.582	76.2
870.871	61.92
871.161	60.96
871.45	64.04
871.739	54.19
872.029	42.36
872.318	49.09
872.607	71.45
872.896	64.81
873.185	76.93
873.474	59.78
873.763	66.17
874.052	60.62
874.341	63.45
874.63	79.75
874.918	77.37
875.207	56.16
875.496	67.94
875.784	61.07
876.073	50.71
876.361	97.06
876.649	54.78
876.938	61.42
877.226	65.69
877.514	64.58
877.802	80.53
878.09	70.16
878.378	73.21
878.666	65.72
878.954	73.57
879.242	58.7
879.53	38.89
879.817	69.75
880.105	62.82
880.392	61.69
880.68	45.02
880.967	86.13
881.255	53.86
881.542	75.55
881.83	92.57
882.117	69.32
882.404	79.92
882.691	61.18
882.978	55.93
883.265	62.01
883.552	69.27
883.839	73.39
884.126	67.89
884.413	85.76
884.699	69.28
884.986	78.02
885.273	72.29
885.559	72.29
885.846	72.29
