Data from 0008_chest_Reflection__1__348.txt Node

Date: Thu Dec 15 19:22:11 CST 2022
User: ToomeyLab
Spectrometer: FLMS14357
Trigger mode: 0
Integration Time (sec): 1.000000E-2
Scans to average: 100
Electric dark correction enabled: true
Nonlinearity correction enabled: false
Boxcar width: 0
XAxis mode: Wavelengths
Number of Pixels in Spectrum: 2048
>>>>>Begin Spectral Data<<<<<
189.047	751.44
189.435	751.44
189.823	751.44
190.211	69.24
190.599	34.74
190.987	0.33
191.375	-75.32
191.763	8.14
192.151	85.86
192.538	9.82
192.926	685.63
193.314	76.34
193.702	-25.44
194.089	-20.11
194.477	99.81
194.864	36.12
195.252	29.15
195.639	141.34
196.027	146.15
196.414	55.13
196.801	-288.26
197.189	291.62
197.576	35.1
197.963	165.8
198.351	2.96
198.738	-31.27
199.125	-145.25
199.512	6.37
199.899	-119.44
200.286	-83
200.673	36.16
201.06	66.66
201.447	-2.93
201.833	-13.75
202.22	9.65
202.607	-67.32
202.994	19.64
203.38	-6.01
203.767	23.5
204.154	-30.13
204.54	16.16
204.927	1.73
205.313	41.08
205.699	42.29
206.086	14.07
206.472	1.65
206.858	8.91
207.245	-24.36
207.631	37.06
208.017	16.39
208.403	-62.38
208.789	4.95
209.175	62.13
209.561	-61
209.947	5.97
210.333	-21.48
210.719	-9.28
211.105	12.34
211.491	3.06
211.876	-37.9
212.262	7.7
212.648	-6.89
213.034	-33.73
213.419	-26.99
213.805	-60.66
214.19	-28.91
214.576	-38.37
214.961	-5.15
215.346	-28.64
215.732	-10.08
216.117	-17.52
216.502	-25.82
216.888	0.41
217.273	-1.26
217.658	-27.18
218.043	-36.77
218.428	-26.37
218.813	7.83
219.198	-26.05
219.583	-48.15
219.968	-11.5
220.353	-8.92
220.738	-7.99
221.122	-23.95
221.507	-1.22
221.892	-33.59
222.276	-26.68
222.661	-25.49
223.046	-33.51
223.43	-3.96
223.815	3
224.199	-5.58
224.583	-1.11
224.968	-0.46
225.352	-15.49
225.736	1.37
226.121	1.13
226.505	-5.3
226.889	-2.62
227.273	-11.72
227.657	3.05
228.041	6.65
228.425	-6.39
228.809	0.15
229.193	1.58
229.577	0.57
229.961	1.56
230.344	2.8
230.728	2.66
231.112	3.11
231.495	0.24
231.879	1.04
232.263	2.31
232.646	1.64
233.03	3.95
233.413	1.59
233.797	0.18
234.18	1.21
234.563	1.27
234.946	2.87
235.33	0.6
235.713	3.77
236.096	1.87
236.479	3.61
236.862	0.21
237.245	-1.02
237.628	2.6
238.011	1.39
238.394	0.79
238.777	0.71
239.16	1.64
239.543	3.06
239.925	1.59
240.308	0.34
240.691	0.73
241.073	1.52
241.456	2.57
241.838	1.75
242.221	1.65
242.603	1.68
242.986	2.36
243.368	2.4
243.75	2.56
244.133	2.41
244.515	2.04
244.897	2.38
245.279	1.56
245.661	1.85
246.043	1.22
246.425	1.81
246.807	1.24
247.189	1.64
247.571	1.73
247.953	2
248.335	2.31
248.717	2.38
249.098	2.26
249.48	2.17
249.862	2.22
250.243	2.58
250.625	2.24
251.006	2.85
251.388	1.25
251.769	1.2
252.151	1.99
252.532	1.83
252.913	2.45
253.295	1.84
253.676	2.13
254.057	2.2
254.438	1.71
254.819	1.64
255.2	2.8
255.581	3.32
255.962	2.96
256.343	3.2
256.724	2.28
257.105	1.93
257.486	2.12
257.867	2.81
258.247	2.05
258.628	1.68
259.009	1.39
259.389	1.6
259.77	1.57
260.15	2.57
260.531	2.13
260.911	1.73
261.292	2.18
261.672	2.26
262.052	2.02
262.432	1.8
262.813	2.32
263.193	2.54
263.573	1.9
263.953	1.36
264.333	2.44
264.713	2.48
265.093	1.19
265.473	2
265.853	1.78
266.233	1.81
266.612	1.74
266.992	1.62
267.372	1.99
267.752	2.25
268.131	2.04
268.511	1.5
268.89	2.64
269.27	1.49
269.649	1.8
270.029	1.32
270.408	1.52
270.787	2.24
271.167	2.34
271.546	2.49
271.925	2.39
272.304	1.75
272.683	1.42
273.062	2.04
273.441	1.52
273.82	2.13
274.199	1.96
274.578	2.24
274.957	1.92
275.336	1.65
275.715	2.16
276.093	1.45
276.472	1.28
276.851	2.05
277.229	2.37
277.608	1.49
277.986	2.3
278.365	2.37
278.743	2.09
279.122	1.28
279.5	1.45
279.878	1.72
280.257	1.9
280.635	2.27
281.013	1.62
281.391	1.81
281.769	2.17
282.147	1.54
282.525	1.17
282.903	1.32
283.281	2.33
283.659	2.42
284.037	1.5
284.415	1.55
284.792	2.13
285.17	1.95
285.548	1.04
285.925	1.41
286.303	1.87
286.68	1.99
287.058	2.03
287.435	1.86
287.813	2.01
288.19	1.36
288.567	1.91
288.945	1.6
289.322	2.45
289.699	2.38
290.076	1.7
290.453	1.58
290.83	1.75
291.207	1.8
291.584	1.89
291.961	1.83
292.338	1.79
292.715	1.37
293.092	1.9
293.469	1.86
293.845	1.74
294.222	2.45
294.599	1.6
294.975	1.18
295.352	1.82
295.728	2.15
296.105	1.87
296.481	1.68
296.858	1.74
297.234	1.62
297.61	1.93
297.986	2.22
298.363	1.85
298.739	1.93
299.115	2.03
299.491	2.22
299.867	1.75
300.243	1.53
300.619	1.18
300.995	1.67
301.371	2.03
301.746	1.7
302.122	1.46
302.498	1.43
302.874	2.08
303.249	1.73
303.625	1.47
304	1.63
304.376	1.82
304.751	1.87
305.127	1.65
305.502	1.8
305.878	2.03
306.253	1.39
306.628	1.75
307.003	1.55
307.378	2.24
307.754	1.69
308.129	1.67
308.504	2.01
308.879	2.11
309.254	1.81
309.629	1.7
310.003	1.57
310.378	2.11
310.753	1.91
311.128	1.42
311.502	1.83
311.877	1.65
312.252	1.85
312.626	1.96
313.001	2.05
313.375	1.95
313.75	1.94
314.124	2.09
314.498	1.83
314.873	1.67
315.247	1.97
315.621	1.71
315.995	1.55
316.369	1.17
316.743	1.5
317.117	1.64
317.491	2.38
317.865	1.9
318.239	2.42
318.613	1.62
318.987	1.53
319.361	2.09
319.734	1.52
320.108	1.77
320.482	2.12
320.855	1.89
321.229	2.02
321.602	2.03
321.976	1.33
322.349	2.22
322.723	2.31
323.096	1.8
323.469	1.98
323.843	1.25
324.216	1.98
324.589	1.94
324.962	1.44
325.335	2.12
325.708	1.87
326.081	1.77
326.454	2.27
326.827	1.92
327.2	1.79
327.573	2.04
327.945	1.38
328.318	1.93
328.691	2.13
329.063	1.8
329.436	1.38
329.809	2.24
330.181	2.39
330.553	2.04
330.926	2.04
331.298	1.71
331.671	1.65
332.043	1.57
332.415	1.92
332.787	1.66
333.159	1.31
333.532	1.66
333.904	2.04
334.276	1.76
334.648	2.04
335.02	1.73
335.391	1.6
335.763	2.15
336.135	2.05
336.507	1.53
336.879	1.71
337.25	1.97
337.622	2
337.993	1.72
338.365	2.15
338.736	2
339.108	2.06
339.479	1.75
339.851	2.11
340.222	2.2
340.593	1.97
340.964	1.74
341.336	2
341.707	1.64
342.078	2.02
342.449	2.11
342.82	1.92
343.191	2.26
343.562	2.08
343.933	1.74
344.303	2.04
344.674	1.8
345.045	1.83
345.416	2.05
345.786	1.57
346.157	1.95
346.527	2.08
346.898	1.68
347.268	2.04
347.639	2.03
348.009	2.14
348.38	2.02
348.75	1.89
349.12	2.09
349.49	2.18
349.861	1.75
350.231	1.81
350.601	1.85
350.971	1.97
351.341	2.25
351.711	2.05
352.081	1.91
352.45	1.75
352.82	1.52
353.19	1.94
353.56	2.08
353.929	2.02
354.299	2.24
354.669	1.84
355.038	2.31
355.408	2.08
355.777	2.25
356.147	1.93
356.516	1.92
356.885	1.89
357.254	1.88
357.624	1.78
357.993	1.91
358.362	2.17
358.731	2.27
359.1	2.1
359.469	2.23
359.838	2.23
360.207	1.8
360.576	2.3
360.945	2.24
361.314	2.2
361.682	1.74
362.051	1.86
362.42	1.97
362.788	2.1
363.157	2.15
363.525	2.26
363.894	1.84
364.262	2.16
364.631	2.11
364.999	2.13
365.367	1.71
365.735	1.74
366.104	2.13
366.472	2.09
366.84	2.07
367.208	2.32
367.576	2.13
367.944	2.06
368.312	1.65
368.68	2.07
369.048	1.81
369.416	1.91
369.783	1.84
370.151	2.25
370.519	2.64
370.886	2.23
371.254	2.26
371.621	2.34
371.989	2.56
372.356	1.9
372.724	2.21
373.091	2.01
373.458	2.17
373.826	2.3
374.193	2.4
374.56	2.41
374.927	2.16
375.294	2.24
375.661	2.3
376.028	2
376.395	2.37
376.762	1.96
377.129	2.03
377.496	2.16
377.863	2.43
378.229	2.45
378.596	2.3
378.963	2.12
379.329	2.27
379.696	2.18
380.062	2.1
380.429	1.81
380.795	2.44
381.161	1.93
381.528	1.94
381.894	2.24
382.26	2.09
382.626	2.16
382.993	2.63
383.359	2.07
383.725	1.88
384.091	2.2
384.457	2.05
384.823	2.17
385.188	2.47
385.554	2.29
385.92	2.11
386.286	2.01
386.651	2.16
387.017	2.42
387.383	2.05
387.748	2.44
388.114	2.36
388.479	2.11
388.845	2.02
389.21	2.34
389.575	2.42
389.94	2.66
390.306	2.35
390.671	2.4
391.036	2.18
391.401	2.24
391.766	2.24
392.131	2.41
392.496	2.4
392.861	2.43
393.226	2.35
393.591	2.24
393.956	2.45
394.32	2.32
394.685	2.3
395.05	2.44
395.414	2.4
395.779	2.68
396.143	2.3
396.508	2.3
396.872	2.19
397.236	2.5
397.601	2.61
397.965	2.45
398.329	2.22
398.694	2.11
399.058	2.52
399.422	2.33
399.786	2.37
400.15	2.31
400.514	2.57
400.878	2.29
401.242	2.5
401.605	2.26
401.969	2.23
402.333	2.22
402.697	2.56
403.06	2.32
403.424	2.61
403.787	2.27
404.151	2.32
404.514	2.43
404.878	2.37
405.241	2.42
405.604	2.35
405.968	2.38
406.331	2.37
406.694	2.52
407.057	2.34
407.42	2.43
407.783	2.58
408.146	2.4
408.509	2.55
408.872	2.31
409.235	2.69
409.598	2.3
409.961	2.53
410.323	2.33
410.686	2.46
411.049	2.35
411.411	2.44
411.774	2.49
412.136	2.44
412.499	2.67
412.861	2.18
413.223	2.32
413.586	2.49
413.948	2.57
414.31	2.52
414.672	2.56
415.035	2.51
415.397	2.27
415.759	2.08
416.121	2.67
416.483	2.33
416.845	2.44
417.206	2.44
417.568	2.43
417.93	2.49
418.292	2.33
418.653	2.26
419.015	2.43
419.377	2.36
419.738	2.42
420.1	2.46
420.461	2.42
420.822	2.52
421.184	2.43
421.545	2.56
421.906	2.51
422.267	2.4
422.629	2.39
422.99	2.45
423.351	2.4
423.712	2.39
424.073	2.44
424.434	2.61
424.795	2.39
425.155	2.29
425.516	2.38
425.877	2.54
426.238	2.48
426.598	2.49
426.959	2.43
427.32	2.47
427.68	2.51
428.041	2.47
428.401	2.27
428.761	2.58
429.122	2.55
429.482	2.4
429.842	2.54
430.202	2.58
430.563	2.47
430.923	2.46
431.283	2.56
431.643	2.56
432.003	2.56
432.363	2.51
432.722	2.4
433.082	2.44
433.442	2.64
433.802	2.45
434.161	2.59
434.521	2.53
434.881	2.52
435.24	2.53
435.6	2.45
435.959	2.64
436.319	2.59
436.678	2.61
437.037	2.51
437.396	2.54
437.756	2.48
438.115	2.59
438.474	2.43
438.833	2.49
439.192	2.45
439.551	2.46
439.91	2.65
440.269	2.49
440.628	2.45
440.987	2.57
441.345	2.51
441.704	2.51
442.063	2.45
442.421	2.56
442.78	2.58
443.138	2.48
443.497	2.45
443.855	2.53
444.214	2.4
444.572	2.57
444.93	2.53
445.288	2.61
445.647	2.4
446.005	2.51
446.363	2.55
446.721	2.56
447.079	2.46
447.437	2.49
447.795	2.6
448.153	2.57
448.51	2.55
448.868	2.47
449.226	2.58
449.584	2.48
449.941	2.58
450.299	2.48
450.656	2.56
451.014	2.61
451.371	2.61
451.729	2.57
452.086	2.55
452.443	2.8
452.801	2.59
453.158	2.72
453.515	2.46
453.872	2.57
454.229	2.41
454.586	2.46
454.943	2.68
455.3	2.59
455.657	2.45
456.014	2.58
456.371	2.64
456.727	2.69
457.084	2.7
457.441	2.63
457.797	2.52
458.154	2.63
458.51	2.49
458.867	2.66
459.223	2.5
459.58	2.7
459.936	2.55
460.292	2.46
460.648	2.61
461.005	2.59
461.361	2.62
461.717	2.64
462.073	2.67
462.429	2.63
462.785	2.77
463.141	2.58
463.496	2.5
463.852	2.68
464.208	2.68
464.564	2.53
464.919	2.73
465.275	2.58
465.631	2.87
465.986	2.76
466.342	2.54
466.697	2.58
467.052	2.96
467.408	2.87
467.763	2.55
468.118	2.62
468.473	2.67
468.829	2.71
469.184	2.75
469.539	2.55
469.894	2.68
470.249	2.71
470.603	2.68
470.958	2.73
471.313	2.72
471.668	2.74
472.023	2.76
472.377	2.7
472.732	2.82
473.086	2.56
473.441	2.6
473.795	3
474.15	2.72
474.504	2.73
474.859	2.43
475.213	2.74
475.567	2.73
475.921	2.72
476.275	2.8
476.63	2.72
476.984	2.65
477.338	2.97
477.692	2.77
478.045	2.72
478.399	2.77
478.753	2.62
479.107	2.77
479.461	2.63
479.814	2.7
480.168	2.67
480.521	2.86
480.875	2.85
481.228	2.81
481.582	2.78
481.935	2.87
482.289	2.66
482.642	2.75
482.995	2.72
483.348	2.7
483.701	2.78
484.055	2.7
484.408	2.68
484.761	2.59
485.114	2.56
485.466	2.55
485.819	2.55
486.172	2.62
486.525	2.64
486.878	2.69
487.23	2.64
487.583	2.68
487.936	2.65
488.288	2.66
488.641	2.69
488.993	2.64
489.345	2.64
489.698	2.64
490.05	2.66
490.402	2.72
490.754	2.73
491.107	2.69
491.459	2.79
491.811	2.72
492.163	2.7
492.515	2.68
492.866	2.7
493.218	2.66
493.57	2.72
493.922	2.71
494.274	2.78
494.625	2.89
494.977	2.84
495.328	2.85
495.68	2.75
496.031	2.93
496.383	2.79
496.734	2.84
497.086	2.87
497.437	2.71
497.788	2.88
498.139	2.81
498.49	2.85
498.842	2.89
499.193	2.76
499.544	2.95
499.894	2.75
500.245	2.86
500.596	2.88
500.947	2.9
501.298	2.88
501.648	2.84
501.999	2.8
502.35	2.9
502.7	2.99
503.051	2.87
503.401	2.88
503.752	2.79
504.102	2.9
504.452	2.84
504.803	2.82
505.153	2.92
505.503	2.86
505.853	2.99
506.203	2.93
506.553	2.82
506.903	2.91
507.253	2.95
507.603	2.92
507.953	2.94
508.303	2.89
508.652	2.81
509.002	3
509.352	2.94
509.701	2.82
510.051	2.98
510.4	3.01
510.75	2.87
511.099	2.8
511.449	2.97
511.798	2.91
512.147	2.97
512.496	3.03
512.846	2.89
513.195	2.92
513.544	3.1
513.893	2.92
514.242	2.93
514.591	2.84
514.939	3.03
515.288	3.06
515.637	2.99
515.986	3.02
516.334	3.07
516.683	3.14
517.032	2.84
517.38	2.96
517.729	3.14
518.077	2.9
518.426	3.13
518.774	3.03
519.122	2.99
519.47	3
519.819	3.07
520.167	3.02
520.515	2.98
520.863	3.05
521.211	3.04
521.559	3.03
521.907	3.08
522.255	3.04
522.602	2.99
522.95	3.16
523.298	3.09
523.645	3.23
523.993	3.07
524.341	2.98
524.688	3.14
525.036	3.05
525.383	3.09
525.73	3.05
526.078	3.2
526.425	3.14
526.772	3.07
527.119	3.15
527.466	3.12
527.814	3.11
528.161	3.05
528.508	3.17
528.854	3.07
529.201	3.08
529.548	3.02
529.895	3.03
530.242	2.97
530.588	2.96
530.935	3.01
531.282	3.03
531.628	3.08
531.975	3.07
532.321	3.09
532.667	3.16
533.014	3.22
533.36	3.23
533.706	3.18
534.052	3.2
534.399	3.16
534.745	3.13
535.091	3.08
535.437	3.13
535.783	3.23
536.129	3.23
536.474	3.27
536.82	3.28
537.166	3.25
537.512	3.25
537.857	3.19
538.203	3.22
538.549	3.17
538.894	3.25
539.239	3.24
539.585	3.32
539.93	3.33
540.276	3.33
540.621	3.4
540.966	3.38
541.311	3.38
541.656	3.27
542.001	3.23
542.346	3.27
542.691	3.18
543.036	3.24
543.381	3.24
543.726	3.31
544.071	3.32
544.415	3.37
544.76	3.32
545.105	3.33
545.449	3.35
545.794	3.42
546.138	3.39
546.483	3.48
546.827	3.33
547.171	3.42
547.516	3.54
547.86	3.56
548.204	3.55
548.548	3.44
548.892	3.51
549.236	3.51
549.58	3.56
549.924	3.76
550.268	3.63
550.612	3.7
550.956	3.82
551.3	3.87
551.643	3.61
551.987	3.7
552.33	3.93
552.674	3.66
553.017	3.78
553.361	3.78
553.704	3.68
554.048	3.71
554.391	3.77
554.734	3.62
555.077	3.73
555.42	3.64
555.764	3.65
556.107	3.8
556.45	3.89
556.793	3.93
557.135	3.85
557.478	3.86
557.821	3.87
558.164	3.83
558.507	3.75
558.849	4
559.192	3.75
559.534	3.79
559.877	3.73
560.219	3.97
560.562	3.85
560.904	4.19
561.246	3.81
561.589	4.17
561.931	3.9
562.273	3.95
562.615	3.86
562.957	3.83
563.299	3.96
563.641	4.07
563.983	3.88
564.325	3.95
564.667	3.97
565.008	4.08
565.35	3.95
565.692	4.05
566.033	4.1
566.375	4.23
566.716	3.89
567.058	4.05
567.399	4.07
567.741	4.15
568.082	4.08
568.423	4.05
568.764	4.03
569.105	4.2
569.447	4.29
569.788	4.2
570.129	4.04
570.47	4.06
570.811	4.05
571.151	4.13
571.492	4.23
571.833	4.35
572.174	4.44
572.514	4.33
572.855	4.42
573.195	4.25
573.536	4.28
573.876	4.28
574.217	4.28
574.557	4.37
574.898	4.3
575.238	4.32
575.578	4.54
575.918	4.31
576.258	4.57
576.598	4.29
576.938	4.22
577.278	4.36
577.618	4.46
577.958	4.46
578.298	4.59
578.638	4.43
578.977	4.7
579.317	4.57
579.657	4.47
579.996	4.67
580.336	4.78
580.675	4.7
581.014	4.68
581.354	4.46
581.693	4.85
582.032	4.67
582.372	4.76
582.711	4.94
583.05	4.89
583.389	4.92
583.728	4.96
584.067	4.76
584.406	4.82
584.745	4.72
585.083	4.95
585.422	4.94
585.761	4.69
586.1	4.96
586.438	4.66
586.777	4.92
587.115	4.96
587.454	4.78
587.792	5.16
588.13	5.04
588.469	4.94
588.807	5.15
589.145	5.08
589.483	4.89
589.821	5.03
590.159	5.15
590.497	5.13
590.835	5.24
591.173	5.35
591.511	5.29
591.849	5.24
592.187	5.04
592.524	5.35
592.862	5.11
593.2	5.28
593.537	5.19
593.875	5.12
594.212	5.51
594.55	5.17
594.887	5.31
595.224	5.42
595.561	5.52
595.899	5.67
596.236	5.45
596.573	5.44
596.91	5.27
597.247	5.57
597.584	5.42
597.921	5.37
598.258	5.41
598.594	5.39
598.931	5.23
599.268	5.51
599.604	5.62
599.941	5.48
600.277	5.53
600.614	5.84
600.95	5.67
601.287	5.47
601.623	5.5
601.959	6.1
602.296	5.91
602.632	5.77
602.968	5.51
603.304	5.71
603.64	5.69
603.976	5.63
604.312	5.8
604.648	5.73
604.984	5.73
605.319	5.9
605.655	6
605.991	5.81
606.326	5.77
606.662	5.9
606.998	6.11
607.333	6.06
607.668	5.91
608.004	5.96
608.339	5.91
608.674	5.98
609.01	6.36
609.345	6.2
609.68	6.06
610.015	6.2
610.35	6.27
610.685	6.04
611.02	6.02
611.355	6.16
611.689	6.33
612.024	6.34
612.359	6.53
612.694	6.59
613.028	6.12
613.363	6.4
613.697	6.16
614.032	6.36
614.366	6.42
614.7	6.46
615.035	6.53
615.369	6.78
615.703	6.61
616.037	6.53
616.371	6.57
616.705	6.38
617.039	6.93
617.373	6.52
617.707	6.5
618.041	6.66
618.375	6.53
618.709	6.81
619.042	6.67
619.376	6.63
619.71	6.86
620.043	6.89
620.377	6.96
620.71	6.41
621.043	6.88
621.377	6.88
621.71	7.02
622.043	6.99
622.376	6.76
622.709	7.48
623.043	7.01
623.376	6.91
623.709	7.31
624.041	7.17
624.374	6.98
624.707	6.85
625.04	6.96
625.373	7.28
625.705	6.96
626.038	7.45
626.37	6.9
626.703	6.97
627.035	7.37
627.368	7.6
627.7	7.56
628.032	7.06
628.365	7.64
628.697	7.4
629.029	7.32
629.361	7.62
629.693	7.29
630.025	7.45
630.357	7.43
630.689	7.5
631.021	7.51
631.353	7.48
631.684	7.34
632.016	7.27
632.348	7.32
632.679	7.54
633.011	7.69
633.342	7.41
633.674	7.5
634.005	7.96
634.336	8.19
634.668	7.97
634.999	7.64
635.33	7.73
635.661	7.65
635.992	7.99
636.323	7.95
636.654	7.82
636.985	7.83
637.316	7.95
637.647	8.02
637.977	7.91
638.308	8.04
638.639	8.12
638.969	8.31
639.3	8.05
639.63	8.29
639.961	8.21
640.291	8.31
640.622	8.34
640.952	8.44
641.282	7.88
641.612	8.26
641.943	7.93
642.273	8.28
642.603	8.14
642.933	8.64
643.263	8.82
643.592	9.06
643.922	8.68
644.252	8.42
644.582	8.93
644.911	8.43
645.241	8.35
645.571	8.48
645.9	8.56
646.23	8.73
646.559	8.47
646.888	8.79
647.218	8.66
647.547	8.65
647.876	8.7
648.205	8.5
648.534	8.73
648.863	8.87
649.192	9.21
649.521	9.34
649.85	8.92
650.179	8.99
650.508	8.62
650.837	9.03
651.165	8.57
651.494	8.99
651.822	9.31
652.151	9.11
652.479	9.33
652.808	9.39
653.136	9.15
653.465	9.11
653.793	9.19
654.121	9
654.449	8.95
654.777	9.15
655.105	9.01
655.433	9.72
655.761	9.26
656.089	9.37
656.417	9.67
656.745	9.96
657.073	8.89
657.4	9.26
657.728	9.36
658.056	9.47
658.383	9.35
658.711	9.58
659.038	9.69
659.365	9.66
659.693	9.93
660.02	9.41
660.347	9.83
660.674	9.54
661.001	9.68
661.329	9.45
661.656	9.57
661.982	9.38
662.309	9.56
662.636	9.74
662.963	10.09
663.29	10.27
663.616	9.5
663.943	9.91
664.27	9.88
664.596	9.97
664.923	10.06
665.249	10.4
665.576	10.08
665.902	9.94
666.228	10.21
666.554	10.25
666.881	9.94
667.207	10.57
667.533	9.69
667.859	9.69
668.185	9.75
668.511	10.67
668.837	10.13
669.162	10.26
669.488	9.82
669.814	10.19
670.139	9.97
670.465	10.47
670.791	10.38
671.116	9.99
671.442	9.79
671.767	10.97
672.092	10.53
672.418	10.83
672.743	11.07
673.068	10.28
673.393	10.65
673.718	9.93
674.043	11.05
674.368	10.32
674.693	10.8
675.018	11.11
675.343	11.31
675.667	10.76
675.992	10.63
676.317	10.54
676.641	11.41
676.966	10.82
677.29	10.97
677.615	10.86
677.939	10.95
678.264	11.11
678.588	11.17
678.912	11.38
679.236	10.69
679.56	11.17
679.885	10.98
680.209	12.07
680.532	11.66
680.856	11.43
681.18	11.61
681.504	11.4
681.828	11.15
682.152	11.36
682.475	11.77
682.799	11.07
683.122	11.36
683.446	11.17
683.769	12.06
684.093	11.31
684.416	11.36
684.739	11.63
685.062	12.03
685.386	11.56
685.709	11.81
686.032	12.39
686.355	11.79
686.678	12.08
687.001	12.67
687.324	11.73
687.646	11.78
687.969	12.16
688.292	11.5
688.614	12.16
688.937	12.14
689.26	12.19
689.582	12.07
689.904	12.4
690.227	12.73
690.549	12.3
690.871	12.46
691.194	11.84
691.516	11.92
691.838	12.55
692.16	12.24
692.482	11.84
692.804	12.54
693.126	12.04
693.448	12.73
693.769	12.37
694.091	12.76
694.413	12.71
694.735	12.16
695.056	12.62
695.378	12.5
695.699	12.84
696.021	12.69
696.342	12.49
696.663	12.66
696.984	11.96
697.306	12.52
697.627	13.19
697.948	12.78
698.269	12.8
698.59	13.02
698.911	13.21
699.232	13.26
699.553	13.03
699.873	12.66
700.194	13.08
700.515	13.4
700.835	13.4
701.156	13.59
701.477	13.11
701.797	13.1
702.117	12.69
702.438	13.23
702.758	13.18
703.078	13.16
703.398	13.07
703.719	13.83
704.039	14.22
704.359	13.19
704.679	13.87
704.999	12.69
705.319	12.96
705.638	12.73
705.958	12.58
706.278	13.61
706.597	13.56
706.917	14.26
707.237	13.72
707.556	13.74
707.876	14.89
708.195	13.71
708.514	13.43
708.834	13.82
709.153	13.94
709.472	14.92
709.791	13.43
710.11	13.38
710.429	13.94
710.748	14.74
711.067	14.41
711.386	13.85
711.705	13.81
712.023	14.91
712.342	14.43
712.661	14.15
712.979	15.2
713.298	14.7
713.616	14.31
713.935	13.68
714.253	14.09
714.572	14.32
714.89	14.57
715.208	14.36
715.526	14.82
715.844	14.58
716.162	14.51
716.48	14.29
716.798	14.64
717.116	14.04
717.434	14.47
717.752	14.62
718.069	15.15
718.387	14.76
718.705	15.19
719.022	15.51
719.34	14.59
719.657	14.57
719.975	14.8
720.292	15.46
720.609	14.82
720.927	14.67
721.244	15.65
721.561	13.33
721.878	15.88
722.195	15.04
722.512	16.1
722.829	14.11
723.146	14.31
723.463	15.07
723.779	15.7
724.096	14.26
724.413	15.8
724.729	17.25
725.046	15.39
725.362	15.29
725.679	15.13
725.995	13.66
726.311	16.53
726.628	15.44
726.944	16.22
727.26	15.85
727.576	16.34
727.892	15.2
728.208	16.27
728.524	15.39
728.84	14.6
729.156	14.58
729.472	14.8
729.787	15.82
730.103	14.65
730.419	15.61
730.734	14.99
731.05	15.32
731.365	17.03
731.681	16.21
731.996	16.43
732.311	16.12
732.626	15.9
732.942	16.54
733.257	16.58
733.572	16.57
733.887	17.47
734.202	17.33
734.517	16.08
734.832	15.29
735.146	16.62
735.461	15.53
735.776	16.98
736.091	16.7
736.405	17.12
736.72	14.86
737.034	17.06
737.349	16.8
737.663	17.14
737.977	16.57
738.292	13.73
738.606	17.71
738.92	17.05
739.234	16.49
739.548	17.24
739.862	17.62
740.176	16.21
740.49	15.9
740.804	18.09
741.117	16.22
741.431	17.78
741.745	16.86
742.058	18.45
742.372	18.2
742.685	18.72
742.999	17.38
743.312	16.02
743.626	17.49
743.939	17.05
744.252	15.75
744.565	18.16
744.878	15.67
745.191	18.66
745.505	16.61
745.817	17.67
746.13	15.86
746.443	16.22
746.756	17.64
747.069	17.44
747.381	16.9
747.694	19.03
748.007	16.72
748.319	17.05
748.632	18.23
748.944	16.95
749.256	18.25
749.569	17.19
749.881	18.16
750.193	17.16
750.505	18.4
750.817	17.62
751.129	17.77
751.441	18.9
751.753	20.53
752.065	19.27
752.377	19.2
752.689	16.77
753	19.41
753.312	16.66
753.624	16.37
753.935	17.53
754.247	17.3
754.558	17.14
754.869	18.02
755.181	17.99
755.492	18.93
755.803	19.34
756.114	18.71
756.425	17.15
756.736	19.08
757.047	18.73
757.358	18.09
757.669	19.55
757.98	18.06
758.291	18.85
758.601	17.91
758.912	18.98
759.223	17.32
759.533	19.32
759.844	18
760.154	17.27
760.464	17.99
760.775	20.08
761.085	18.67
761.395	17.91
761.705	17.87
762.016	19.32
762.326	19.98
762.636	18.58
762.945	17.87
763.255	17.91
763.565	18.4
763.875	19.56
764.185	20.68
764.494	18.46
764.804	18.96
765.113	20.32
765.423	19.65
765.732	19.87
766.042	20.57
766.351	20.32
766.66	19.43
766.97	20.63
767.279	21.26
767.588	17.93
767.897	18.75
768.206	19
768.515	20.45
768.824	20.28
769.133	18.68
769.441	18
769.75	19.62
770.059	19.7
770.367	19.52
770.676	19.76
770.984	18.4
771.293	18.69
771.601	16.2
771.91	18.64
772.218	21.18
772.526	21.45
772.834	16.25
773.142	19.49
773.45	19.89
773.758	19.1
774.066	19.52
774.374	20.21
774.682	19.71
774.99	19.51
775.298	18.94
775.605	19.4
775.913	18.25
776.22	17.02
776.528	21.3
776.835	21.2
777.143	23.39
777.45	19.39
777.757	19.84
778.065	19.41
778.372	19.66
778.679	19.5
778.986	24.95
779.293	17.93
779.6	19.8
779.907	21.66
780.214	20.07
780.52	20.82
780.827	19.47
781.134	19.63
781.44	24.03
781.747	21.88
782.053	21.2
782.36	18.74
782.666	19.44
782.973	19.52
783.279	20.6
783.585	22.63
783.891	20.68
784.197	19.07
784.503	19.32
784.809	23.66
785.115	20.96
785.421	23.61
785.727	24.54
786.033	22.64
786.339	24.04
786.644	17.08
786.95	18.14
787.255	16.34
787.561	23.8
787.866	20.55
788.172	23.23
788.477	18.68
788.782	17.65
789.088	19.42
789.393	19.37
789.698	20.05
790.003	18.81
790.308	17.32
790.613	20.33
790.918	20.87
791.223	21.66
791.527	23.99
791.832	22.41
792.137	25.46
792.441	19.63
792.746	23.22
793.05	19.96
793.355	24.99
793.659	23.34
793.963	21.56
794.268	21.43
794.572	17.84
794.876	22.34
795.18	21.92
795.484	25.63
795.788	24.73
796.092	20.72
796.396	18.32
796.7	21.72
797.004	22.51
797.307	18.33
797.611	21.26
797.915	21.18
798.218	26.74
798.522	17.96
798.825	27.59
799.128	21.32
799.432	19.11
799.735	21.14
800.038	24.5
800.341	21.9
800.644	22.47
800.947	24.02
801.25	25.4
801.553	26.61
801.856	23.72
802.159	24.34
802.462	23.62
802.764	23.11
803.067	23.55
803.37	21.88
803.672	19.56
803.975	22.3
804.277	20.88
804.579	20.22
804.882	22.29
805.184	23.52
805.486	24.82
805.788	27.05
806.09	23.09
806.392	24.96
806.694	25.24
806.996	28.08
807.298	22.33
807.6	25.19
807.902	28.71
808.203	20.56
808.505	19.71
808.807	25.61
809.108	23.53
809.409	24.56
809.711	21.69
810.012	27.13
810.313	24.4
810.615	26
810.916	23.09
811.217	21.23
811.518	22.42
811.819	21
812.12	23.57
812.421	26.03
812.722	20.38
813.023	22.39
813.323	26.13
813.624	27.23
813.925	21.87
814.225	22.94
814.526	20.47
814.826	24.15
815.126	25.98
815.427	22.05
815.727	24.42
816.027	24.29
816.327	24.46
816.627	27.95
816.927	21.19
817.227	24.41
817.527	22.37
817.827	23.35
818.127	22.87
818.427	17.27
818.727	18.77
819.026	26.62
819.326	22.53
819.625	21.06
819.925	26.54
820.224	27.59
820.524	21.83
820.823	25.41
821.122	21.55
821.421	20.89
821.72	25.79
822.019	20.52
822.318	28.62
822.617	26.07
822.916	24.34
823.215	24.65
823.514	25.47
823.813	24.78
824.111	25.25
824.41	27.75
824.709	27.6
825.007	27.01
825.306	28.06
825.604	26.35
825.902	27.9
826.201	27.44
826.499	28.02
826.797	25.83
827.095	27.7
827.393	29.55
827.691	28.47
827.989	27.15
828.287	27.82
828.585	26.38
828.882	27.68
829.18	25.79
829.478	29.03
829.775	27.92
830.073	28.34
830.37	26.7
830.668	27.33
830.965	28.24
831.263	29.49
831.56	29.79
831.857	29.98
832.154	25.28
832.451	27.23
832.748	27.07
833.045	31.62
833.342	25.58
833.639	31.36
833.936	24.39
834.232	24.83
834.529	28.76
834.826	31.6
835.122	25.24
835.419	30.67
835.715	27.73
836.012	28.27
836.308	30.11
836.604	28.64
836.901	23.98
837.197	30.06
837.493	28.65
837.789	29.25
838.085	23.21
838.381	27.45
838.677	29.74
838.972	28.83
839.268	35.38
839.564	26.76
839.86	27.38
840.155	32.3
840.451	28.35
840.746	26.12
841.042	26.13
841.337	23.36
841.632	30.58
841.928	33.59
842.223	18.5
842.518	25.79
842.813	21.63
843.108	24.59
843.403	23.66
843.698	21.66
843.993	33.64
844.287	27.59
844.582	34.31
844.877	34.81
845.171	25.88
845.466	28.82
845.761	21.35
846.055	30.46
846.349	12.64
846.644	24.79
846.938	27.14
847.232	16.14
847.526	34.19
847.82	39.26
848.114	22.76
848.408	20.18
848.702	33.53
848.996	33.93
849.29	24.51
849.584	24.37
849.877	21.64
850.171	17.41
850.465	28.78
850.758	-3.54
851.052	12.61
851.345	23.16
851.638	28.15
851.932	32.07
852.225	16.94
852.518	24.93
852.811	1.15
853.104	19.89
853.397	12.81
853.69	60.85
853.983	19.08
854.276	28.1
854.569	16.5
854.861	17.13
855.154	46.74
855.447	19.1
855.739	-15.77
856.032	52.35
856.324	21.73
856.616	25.39
856.909	10.3
857.201	6.22
857.493	21.51
857.785	19.91
858.077	7.13
858.369	20.83
858.661	14.16
858.953	29.55
859.245	20.15
859.537	12.57
859.829	8.63
860.12	37.48
860.412	22.16
860.703	36.37
860.995	38.34
861.286	-31.97
861.578	12.22
861.869	25.11
862.16	14.59
862.452	23.14
862.743	17.32
863.034	36.73
863.325	33.77
863.616	43.93
863.907	36.13
864.198	30.46
864.488	6.02
864.779	16.68
865.07	35.21
865.36	24.86
865.651	32.18
865.941	25.06
866.232	39.01
866.522	18.85
866.813	52.6
867.103	19.26
867.393	22.7
867.683	18.78
867.973	12.74
868.263	14.15
868.553	36.92
868.843	15.23
869.133	23.28
869.423	10.45
869.713	1.83
870.002	32.5
870.292	28.9
870.582	-15.22
870.871	11.52
871.161	4.76
871.45	3.38
871.739	38.58
872.029	13.9
872.318	21.55
872.607	42.44
872.896	9.13
873.185	10.67
873.474	4.11
873.763	58.85
874.052	26.52
874.341	-23.38
874.63	30.66
874.918	21.74
875.207	22.03
875.496	30.09
875.784	38.82
876.073	8.31
876.361	60.38
876.649	-2.64
876.938	25.46
877.226	22.44
877.514	41.88
877.802	14.89
878.09	20.54
878.378	-0.8
878.666	27.08
878.954	26.58
879.242	8.67
879.53	52.08
879.817	13.86
880.105	39.96
880.392	20.88
880.68	0.03
880.967	13.52
881.255	25.46
881.542	9.24
881.83	30.4
882.117	49.13
882.404	21.57
882.691	41.06
882.978	34.74
883.265	29.34
883.552	28.25
883.839	41.06
884.126	39.07
884.413	32.85
884.699	32.71
884.986	37.7
885.273	34.62
885.559	34.62
885.846	34.62
