Data from 0008_forehead_Reflection__3__360.txt Node

Date: Thu Dec 15 19:25:37 CST 2022
User: ToomeyLab
Spectrometer: FLMS14357
Trigger mode: 0
Integration Time (sec): 1.000000E-2
Scans to average: 100
Electric dark correction enabled: true
Nonlinearity correction enabled: false
Boxcar width: 0
XAxis mode: Wavelengths
Number of Pixels in Spectrum: 2048
>>>>>Begin Spectral Data<<<<<
189.047	168.27
189.435	168.27
189.823	168.27
190.211	119.85
190.599	-12.19
190.987	89.31
191.375	-34.72
191.763	402.65
192.151	-8.21
192.538	60.02
192.926	-517.08
193.314	1520.54
193.702	55.98
194.089	12.15
194.477	74.46
194.864	13.16
195.252	273.2
195.639	98.42
196.027	124.55
196.414	103.16
196.801	1.18
197.189	21.39
197.576	-46.32
197.963	176.37
198.351	-0.72
198.738	-112.4
199.125	-188.17
199.512	6.74
199.899	-88.99
200.286	-29.99
200.673	21.05
201.06	-44.13
201.447	-0.62
201.833	13.8
202.22	-26.48
202.607	-196.46
202.994	-16.33
203.38	12.67
203.767	-41.38
204.154	15.62
204.54	4.37
204.927	5.05
205.313	20.6
205.699	6.16
206.086	-19.74
206.472	12.61
206.858	37.17
207.245	-33.2
207.631	-77.58
208.017	23.5
208.403	-89.75
208.789	-80.02
209.175	-64.89
209.561	-52.84
209.947	-21.8
210.333	-0.42
210.719	9.5
211.105	20.88
211.491	-2.19
211.876	-77.12
212.262	14.19
212.648	-17.24
213.034	-16.27
213.419	-32.25
213.805	-17.64
214.19	-3.83
214.576	-24.64
214.961	9.93
215.346	-30.46
215.732	-60.73
216.117	-23.7
216.502	-29.66
216.888	-6.01
217.273	2.06
217.658	-2.9
218.043	-24.66
218.428	-38.68
218.813	-5.1
219.198	-12.72
219.583	-6.46
219.968	-42.89
220.353	-40.32
220.738	2.33
221.122	-4.5
221.507	-18.27
221.892	-40.71
222.276	-25.57
222.661	-28.53
223.046	-46.77
223.43	12.71
223.815	-18.63
224.199	-1.84
224.583	-9.99
224.968	-4.31
225.352	-3.04
225.736	7.18
226.121	-5.24
226.505	-6.21
226.889	-7.1
227.273	-17.2
227.657	1.7
228.041	1.08
228.425	-4.52
228.809	0.3
229.193	1.72
229.577	1.32
229.961	0.47
230.344	3.09
230.728	2.66
231.112	3.04
231.495	0.84
231.879	1.24
232.263	2.59
232.646	1.06
233.03	3.58
233.413	0.87
233.797	-1.47
234.18	1.22
234.563	4.41
234.946	2.44
235.33	0.85
235.713	0.84
236.096	4.26
236.479	0.82
236.862	1.32
237.245	0.63
237.628	2.79
238.011	1.86
238.394	0.99
238.777	2.1
239.16	3.51
239.543	3.89
239.925	0.69
240.308	0.52
240.691	1.21
241.073	-0
241.456	2.23
241.838	2.29
242.221	1.73
242.603	2.67
242.986	2.4
243.368	2.35
243.75	2.11
244.133	2.35
244.515	2.29
244.897	2.07
245.279	1.19
245.661	2.79
246.043	1.88
246.425	2.13
246.807	2.37
247.189	1.6
247.571	2.11
247.953	2.07
248.335	2.12
248.717	2.58
249.098	2.33
249.48	1.87
249.862	2.54
250.243	2.19
250.625	1.9
251.006	2.55
251.388	2.12
251.769	2.5
252.151	1.63
252.532	1.05
252.913	2.27
253.295	1.79
253.676	2.19
254.057	2.08
254.438	2.52
254.819	1.86
255.2	2.14
255.581	3.85
255.962	3.16
256.343	2.91
256.724	1.66
257.105	1.66
257.486	0.66
257.867	1.83
258.247	2.45
258.628	2.24
259.009	1.01
259.389	1.45
259.77	2.26
260.15	2.77
260.531	2.1
260.911	2.26
261.292	2.39
261.672	2.26
262.052	2.22
262.432	1.57
262.813	2.15
263.193	1.76
263.573	2.39
263.953	2.19
264.333	2.3
264.713	1.9
265.093	2.28
265.473	2.27
265.853	1.9
266.233	1.97
266.612	1.6
266.992	1.5
267.372	2.43
267.752	2.47
268.131	1.67
268.511	2.33
268.89	2.5
269.27	1.58
269.649	2.12
270.029	1.54
270.408	2.37
270.787	2.31
271.167	2.4
271.546	2.87
271.925	1.74
272.304	1.62
272.683	1.88
273.062	2.24
273.441	1.82
273.82	2.53
274.199	2.29
274.578	2.08
274.957	1.72
275.336	2.29
275.715	2.43
276.093	1.43
276.472	2.13
276.851	1.76
277.229	1.89
277.608	1.79
277.986	2.31
278.365	2.22
278.743	2.06
279.122	2.17
279.5	1.4
279.878	2.59
280.257	1.72
280.635	1.89
281.013	1.2
281.391	2.36
281.769	2.43
282.147	1.78
282.525	1.79
282.903	1.89
283.281	2.71
283.659	2.21
284.037	1.57
284.415	1.99
284.792	1.86
285.17	1.79
285.548	1.81
285.925	1.58
286.303	2.45
286.68	2.22
287.058	2.08
287.435	1.98
287.813	2.06
288.19	1.8
288.567	2.04
288.945	2.27
289.322	2.3
289.699	1.99
290.076	1.71
290.453	1.74
290.83	2.36
291.207	1.96
291.584	2.44
291.961	1.97
292.338	2.05
292.715	1.72
293.092	2.82
293.469	2.18
293.845	2.17
294.222	2.57
294.599	1.65
294.975	1.51
295.352	2.51
295.728	2.21
296.105	2.66
296.481	2.37
296.858	1.96
297.234	2.21
297.61	2.56
297.986	2.78
298.363	2.45
298.739	2.74
299.115	2.11
299.491	2.54
299.867	1.82
300.243	2.39
300.619	1.79
300.995	2.22
301.371	2.41
301.746	2.6
302.122	1.61
302.498	2.1
302.874	2.53
303.249	2.57
303.625	2.32
304	2.34
304.376	2.71
304.751	2.55
305.127	2.16
305.502	2.13
305.878	2.73
306.253	2.01
306.628	2.39
307.003	2.26
307.378	1.9
307.754	2.51
308.129	2.44
308.504	2.51
308.879	2.67
309.254	2.64
309.629	2.59
310.003	2.25
310.378	2.78
310.753	3.01
311.128	2.44
311.502	2.45
311.877	2.54
312.252	2.68
312.626	2.8
313.001	2.53
313.375	2.67
313.75	2.68
314.124	2.56
314.498	2.68
314.873	2.29
315.247	2.71
315.621	2.63
315.995	2.51
316.369	1.98
316.743	2.48
317.117	2.64
317.491	2.7
317.865	1.67
318.239	3.4
318.613	2.63
318.987	2.6
319.361	2.33
319.734	2.6
320.108	2.93
320.482	3.14
320.855	2.43
321.229	2.77
321.602	2.85
321.976	2.31
322.349	3.41
322.723	3.07
323.096	2.61
323.469	2.3
323.843	2.51
324.216	3.07
324.589	2.97
324.962	2.75
325.335	2.42
325.708	2.76
326.081	3.08
326.454	3.28
326.827	2.89
327.2	2.35
327.573	3.21
327.945	2.82
328.318	2.72
328.691	2.79
329.063	2.7
329.436	2.71
329.809	2.79
330.181	3.62
330.553	3.16
330.926	3.32
331.298	3.35
331.671	3.59
332.043	3.12
332.415	3.31
332.787	2.96
333.159	2.6
333.532	2.82
333.904	3.31
334.276	3.25
334.648	2.87
335.02	2.85
335.391	2.82
335.763	3.17
336.135	3.1
336.507	2.47
336.879	3.1
337.25	3.18
337.622	3.07
337.993	2.72
338.365	3.23
338.736	3.39
339.108	3.3
339.479	2.75
339.851	3.07
340.222	3.26
340.593	2.83
340.964	3.47
341.336	3.17
341.707	3.1
342.078	3.04
342.449	3.37
342.82	3.33
343.191	3.42
343.562	3.34
343.933	2.8
344.303	3.05
344.674	3.21
345.045	3.64
345.416	3.88
345.786	3.32
346.157	3.21
346.527	3.29
346.898	2.89
347.268	3.58
347.639	3.38
348.009	3.37
348.38	3.25
348.75	3.65
349.12	3.31
349.49	3.5
349.861	3.33
350.231	3.19
350.601	3.6
350.971	3.19
351.341	3.41
351.711	3.11
352.081	3.46
352.45	3.06
352.82	3.03
353.19	3.5
353.56	3.17
353.929	3.72
354.299	3.79
354.669	3.62
355.038	3.69
355.408	3.35
355.777	3.62
356.147	3.31
356.516	3.35
356.885	3.23
357.254	3.33
357.624	3.49
357.993	3.57
358.362	3.77
358.731	3.85
359.1	3.63
359.469	3.81
359.838	3.54
360.207	3.83
360.576	3.89
360.945	3.82
361.314	3.81
361.682	3.58
362.051	3.64
362.42	3.62
362.788	3.91
363.157	3.49
363.525	3.75
363.894	3.56
364.262	3.74
364.631	4
364.999	3.56
365.367	3.41
365.735	3.43
366.104	3.7
366.472	3.54
366.84	3.57
367.208	4.2
367.576	4.03
367.944	3.97
368.312	3.94
368.68	4.4
369.048	3.87
369.416	3.46
369.783	3.49
370.151	4.36
370.519	4.23
370.886	4.11
371.254	3.99
371.621	4.26
371.989	4.12
372.356	3.89
372.724	3.87
373.091	3.89
373.458	3.78
373.826	3.95
374.193	3.97
374.56	4.06
374.927	4.07
375.294	4.2
375.661	4
376.028	3.98
376.395	3.93
376.762	3.88
377.129	3.9
377.496	4.37
377.863	4.35
378.229	4.59
378.596	4.13
378.963	4.19
379.329	4.1
379.696	4.2
380.062	4.36
380.429	3.95
380.795	4.55
381.161	4.14
381.528	4.24
381.894	4.36
382.26	4.51
382.626	4.26
382.993	4.7
383.359	4.61
383.725	4.13
384.091	4.4
384.457	4.04
384.823	4.32
385.188	4.25
385.554	4.4
385.92	4.31
386.286	4.69
386.651	4.57
387.017	4.67
387.383	4.47
387.748	4.56
388.114	4.68
388.479	4.48
388.845	4.32
389.21	4.71
389.575	4.73
389.94	4.73
390.306	4.77
390.671	4.68
391.036	4.81
391.401	4.65
391.766	4.56
392.131	5.03
392.496	4.59
392.861	4.67
393.226	4.59
393.591	4.88
393.956	4.74
394.32	4.87
394.685	4.84
395.05	4.79
395.414	4.76
395.779	4.96
396.143	4.75
396.508	4.79
396.872	4.76
397.236	5.22
397.601	5.02
397.965	4.73
398.329	4.83
398.694	4.86
399.058	4.98
399.422	4.86
399.786	4.69
400.15	4.95
400.514	5.03
400.878	4.99
401.242	4.94
401.605	5.04
401.969	4.96
402.333	4.93
402.697	5.35
403.06	5.08
403.424	4.98
403.787	5.2
404.151	5.41
404.514	5.21
404.878	5.05
405.241	5.06
405.604	5
405.968	5.16
406.331	5.27
406.694	5.42
407.057	5.11
407.42	5.26
407.783	5.23
408.146	5.32
408.509	5.29
408.872	5.31
409.235	5.45
409.598	5.49
409.961	5.43
410.323	5.31
410.686	5.25
411.049	5.3
411.411	5.17
411.774	5.11
412.136	5.25
412.499	5.56
412.861	5.07
413.223	5.42
413.586	5.54
413.948	5.65
414.31	5.51
414.672	5.34
415.035	5.79
415.397	5.54
415.759	5.3
416.121	5.57
416.483	5.45
416.845	5.61
417.206	5.63
417.568	5.58
417.93	5.6
418.292	5.5
418.653	5.35
419.015	5.5
419.377	5.45
419.738	5.67
420.1	5.55
420.461	5.45
420.822	5.57
421.184	5.62
421.545	5.66
421.906	5.6
422.267	5.56
422.629	5.57
422.99	5.6
423.351	5.65
423.712	5.67
424.073	5.64
424.434	5.79
424.795	5.59
425.155	5.71
425.516	5.66
425.877	5.72
426.238	5.71
426.598	5.8
426.959	5.79
427.32	5.82
427.68	5.88
428.041	5.94
428.401	5.86
428.761	6.05
429.122	5.98
429.482	6.07
429.842	6.05
430.202	5.99
430.563	6.05
430.923	6.1
431.283	6.17
431.643	6.08
432.003	6.11
432.363	6.17
432.722	6.09
433.082	6.17
433.442	6.32
433.802	6.08
434.161	6.19
434.521	6.09
434.881	6.13
435.24	6.14
435.6	6.16
435.959	6.28
436.319	6.23
436.678	6.39
437.037	6.41
437.396	6.32
437.756	6.24
438.115	6.32
438.474	6.36
438.833	6.28
439.192	6.3
439.551	6.29
439.91	6.39
440.269	6.41
440.628	6.42
440.987	6.44
441.345	6.48
441.704	6.35
442.063	6.5
442.421	6.59
442.78	6.42
443.138	6.53
443.497	6.5
443.855	6.52
444.214	6.45
444.572	6.73
444.93	6.66
445.288	6.5
445.647	6.46
446.005	6.72
446.363	6.71
446.721	6.69
447.079	6.6
447.437	6.67
447.795	6.58
448.153	6.61
448.51	6.61
448.868	6.59
449.226	6.66
449.584	6.65
449.941	6.78
450.299	6.7
450.656	6.86
451.014	7.02
451.371	6.77
451.729	7.06
452.086	7.03
452.443	7.21
452.801	7.07
453.158	7.26
453.515	6.94
453.872	7.04
454.229	6.88
454.586	6.87
454.943	7.19
455.3	7.22
455.657	7.09
456.014	7.06
456.371	7.32
456.727	7.29
457.084	7.41
457.441	7.38
457.797	7.32
458.154	7.46
458.51	7.33
458.867	7.39
459.223	7.17
459.58	7.37
459.936	7.26
460.292	7.28
460.648	7.35
461.005	7.27
461.361	7.19
461.717	7.31
462.073	7.4
462.429	7.47
462.785	7.52
463.141	7.51
463.496	7.6
463.852	7.73
464.208	7.62
464.564	7.51
464.919	7.73
465.275	7.66
465.631	7.89
465.986	7.86
466.342	7.6
466.697	7.61
467.052	7.81
467.408	7.89
467.763	7.8
468.118	7.73
468.473	7.78
468.829	7.82
469.184	7.84
469.539	7.85
469.894	7.87
470.249	7.89
470.603	8.09
470.958	8.03
471.313	8.03
471.668	8.01
472.023	8.19
472.377	7.95
472.732	8.23
473.086	7.93
473.441	8.25
473.795	8.38
474.15	8.27
474.504	8.16
474.859	8.25
475.213	8.26
475.567	8.28
475.921	8.32
476.275	8.35
476.63	8.3
476.984	8.31
477.338	8.34
477.692	8.21
478.045	8.42
478.399	8.37
478.753	8.35
479.107	8.48
479.461	8.41
479.814	8.35
480.168	8.35
480.521	8.47
480.875	8.57
481.228	8.62
481.582	8.47
481.935	8.55
482.289	8.51
482.642	8.6
482.995	8.54
483.348	8.44
483.701	8.5
484.055	8.49
484.408	8.36
484.761	8.21
485.114	8.04
485.466	8.01
485.819	8.07
486.172	8.17
486.525	8.26
486.878	8.31
487.23	8.42
487.583	8.53
487.936	8.51
488.288	8.45
488.641	8.34
488.993	8.3
489.345	8.32
489.698	8.32
490.05	8.4
490.402	8.5
490.754	8.64
491.107	8.68
491.459	8.88
491.811	8.85
492.163	8.86
492.515	8.75
492.866	8.63
493.218	8.65
493.57	8.73
493.922	8.72
494.274	8.94
494.625	9.11
494.977	9.16
495.328	9.23
495.68	9.3
496.031	9.31
496.383	9.46
496.734	9.5
497.086	9.55
497.437	9.49
497.788	9.49
498.139	9.35
498.49	9.29
498.842	9.45
499.193	9.33
499.544	9.53
499.894	9.49
500.245	9.6
500.596	9.62
500.947	9.55
501.298	9.74
501.648	9.8
501.999	9.69
502.35	9.77
502.7	10.02
503.051	9.74
503.401	9.91
503.752	9.89
504.102	9.92
504.452	9.93
504.803	9.91
505.153	10.14
505.503	9.81
505.853	10.06
506.203	10.05
506.553	10.1
506.903	10.12
507.253	9.96
507.603	10.1
507.953	10.1
508.303	10.07
508.652	10.06
509.002	10.16
509.352	10.13
509.701	10.02
510.051	10.14
510.4	10.26
510.75	10.26
511.099	10.14
511.449	10.3
511.798	10.22
512.147	10.35
512.496	10.33
512.846	10.18
513.195	10.38
513.544	10.41
513.893	10.35
514.242	10.37
514.591	10.56
514.939	10.55
515.288	10.72
515.637	10.45
515.986	10.72
516.334	10.7
516.683	10.7
517.032	10.74
517.38	10.64
517.729	10.79
518.077	10.73
518.426	10.76
518.774	10.69
519.122	10.8
519.47	10.62
519.819	10.61
520.167	10.64
520.515	10.61
520.863	10.6
521.211	10.72
521.559	10.69
521.907	10.84
522.255	10.93
522.602	11
522.95	11.04
523.298	11.08
523.645	11.16
523.993	11.05
524.341	11.11
524.688	11.14
525.036	11.13
525.383	11.24
525.73	11.09
526.078	11.22
526.425	11.04
526.772	11.05
527.119	10.98
527.466	11.05
527.814	11.05
528.161	11.01
528.508	11.18
528.854	11.06
529.201	11.06
529.548	10.87
529.895	10.69
530.242	10.72
530.588	10.8
530.935	10.86
531.282	10.89
531.628	11.09
531.975	11.18
532.321	11.28
532.667	11.43
533.014	11.61
533.36	11.52
533.706	11.57
534.052	11.45
534.399	11.37
534.745	11.21
535.091	11.18
535.437	11.32
535.783	11.41
536.129	11.47
536.474	11.75
536.82	11.8
537.166	11.8
537.512	11.77
537.857	11.82
538.203	11.7
538.549	11.71
538.894	11.75
539.239	11.99
539.585	12.09
539.93	12.19
540.276	12.2
540.621	12.23
540.966	12.21
541.311	12.27
541.656	12.16
542.001	11.99
542.346	11.9
542.691	11.75
543.036	11.71
543.381	11.8
543.726	11.88
544.071	11.98
544.415	12.04
544.76	12.15
545.105	12.21
545.449	12.24
545.794	12.39
546.138	12.48
546.483	12.62
546.827	12.45
547.171	12.66
547.516	12.61
547.86	12.54
548.204	12.47
548.548	12.54
548.892	12.65
549.236	12.75
549.58	12.83
549.924	12.93
550.268	13.04
550.612	13.1
550.956	13.23
551.3	13.38
551.643	13.09
551.987	13.49
552.33	13.45
552.674	13.39
553.017	13.36
553.361	13.4
553.704	13.38
554.048	13.34
554.391	13.3
554.734	13.28
555.077	13.42
555.42	13.27
555.764	13.5
556.107	13.65
556.45	13.66
556.793	13.68
557.135	13.73
557.478	13.88
557.821	13.74
558.164	13.98
558.507	13.67
558.849	14.01
559.192	13.87
559.534	13.99
559.877	13.77
560.219	14.09
560.562	13.89
560.904	14.1
561.246	14.1
561.589	14.23
561.931	14.06
562.273	13.95
562.615	14.08
562.957	14.14
563.299	14.29
563.641	14.31
563.983	14.05
564.325	14.3
564.667	14.25
565.008	14.26
565.35	14.33
565.692	14.34
566.033	14.47
566.375	14.38
566.716	14.27
567.058	14.28
567.399	14.36
567.741	14.36
568.082	14.23
568.423	14.28
568.764	14.4
569.105	14.61
569.447	14.42
569.788	14.48
570.129	14.68
570.47	14.48
570.811	14.41
571.151	14.66
571.492	14.8
571.833	14.54
572.174	14.83
572.514	14.79
572.855	14.79
573.195	14.7
573.536	14.78
573.876	14.73
574.217	14.78
574.557	14.7
574.898	14.77
575.238	15.15
575.578	15.05
575.918	15.06
576.258	15.15
576.598	15.14
576.938	14.83
577.278	15.14
577.618	15.09
577.958	15.07
578.298	15.07
578.638	15.35
578.977	15.32
579.317	15.37
579.657	15.3
579.996	15.62
580.336	15.64
580.675	15.54
581.014	16.01
581.354	15.52
581.693	15.88
582.032	15.91
582.372	15.8
582.711	15.74
583.05	15.87
583.389	15.76
583.728	16.11
584.067	15.95
584.406	16.03
584.745	15.84
585.083	15.71
585.422	16.15
585.761	16.05
586.1	16.05
586.438	16.04
586.777	16.1
587.115	16.15
587.454	15.92
587.792	16.25
588.13	16.26
588.469	16.24
588.807	16.46
589.145	16.42
589.483	16.21
589.821	16.31
590.159	16.39
590.497	16.58
590.835	16.53
591.173	16.38
591.511	16.43
591.849	16.3
592.187	16.44
592.524	16.76
592.862	16.39
593.2	16.79
593.537	16.62
593.875	16.62
594.212	16.67
594.55	16.96
594.887	16.73
595.224	16.86
595.561	16.84
595.899	16.9
596.236	16.93
596.573	16.69
596.91	16.67
597.247	16.97
597.584	17.04
597.921	16.85
598.258	16.84
598.594	16.8
598.931	16.82
599.268	16.84
599.604	16.93
599.941	17.07
600.277	17.14
600.614	17.21
600.95	17.09
601.287	16.89
601.623	16.95
601.959	17.33
602.296	17.24
602.632	17.31
602.968	17.63
603.304	17.56
603.64	17.15
603.976	17.23
604.312	17.51
604.648	17.55
604.984	17.21
605.319	17.43
605.655	17.42
605.991	17.19
606.326	17.2
606.662	17.19
606.998	17.35
607.333	17.34
607.668	17.45
608.004	17.51
608.339	17.67
608.674	17.85
609.01	17.9
609.345	17.8
609.68	17.77
610.015	17.98
610.35	18.06
610.685	17.61
611.02	17.66
611.355	17.73
611.689	17.89
612.024	17.98
612.359	17.93
612.694	18.14
613.028	17.89
613.363	18.19
613.697	18.21
614.032	18.03
614.366	18.15
614.7	18.56
615.035	18.44
615.369	18.48
615.703	18.42
616.037	18.18
616.371	18.65
616.705	18.65
617.039	18.68
617.373	18.62
617.707	18.84
618.041	18.54
618.375	18.41
618.709	18.7
619.042	18.76
619.376	18.86
619.71	18.76
620.043	18.87
620.377	18.75
620.71	18.75
621.043	19.11
621.377	19.2
621.71	19.39
622.043	18.88
622.376	19
622.709	18.98
623.043	19.03
623.376	19.06
623.709	19.1
624.041	18.75
624.374	19.43
624.707	19.22
625.04	19.32
625.373	19.79
625.705	19.56
626.038	19.17
626.37	19
626.703	19.36
627.035	19.49
627.368	19.45
627.7	19.43
628.032	19.18
628.365	19.63
628.697	19.58
629.029	19.36
629.361	19.71
629.693	19.26
630.025	19.51
630.357	19.83
630.689	19.54
631.021	20.04
631.353	19.96
631.684	19.7
632.016	19.55
632.348	19.72
632.679	19.95
633.011	19.98
633.342	20.08
633.674	19.67
634.005	20.01
634.336	20.39
634.668	20.04
634.999	19.96
635.33	20.13
635.661	19.79
635.992	20.41
636.323	19.86
636.654	20.18
636.985	20.15
637.316	20.08
637.647	20.23
637.977	20.26
638.308	20.4
638.639	20.08
638.969	20.59
639.3	20.31
639.63	20.53
639.961	20.46
640.291	20.17
640.622	20.65
640.952	20.63
641.282	20.28
641.612	20.69
641.943	20.38
642.273	20.64
642.603	20.61
642.933	21.05
643.263	21.04
643.592	21.1
643.922	20.95
644.252	21.25
644.582	20.95
644.911	20.85
645.241	20.48
645.571	20.95
645.9	21.49
646.23	21.67
646.559	20.43
646.888	21.45
647.218	20.97
647.547	21.08
647.876	21.16
648.205	20.61
648.534	21.09
648.863	21.55
649.192	21.62
649.521	21.44
649.85	21.61
650.179	21.57
650.508	21.27
650.837	21.48
651.165	21.53
651.494	21.53
651.822	21.48
652.151	21.71
652.479	21.56
652.808	21.83
653.136	21.34
653.465	21.46
653.793	21.61
654.121	21.63
654.449	21.82
654.777	20.95
655.105	21.29
655.433	22.08
655.761	21.88
656.089	21.59
656.417	22.34
656.745	21.76
657.073	21.46
657.4	21.57
657.728	21.67
658.056	21.98
658.383	21.83
658.711	22.23
659.038	22.35
659.365	22.04
659.693	21.88
660.02	22.31
660.347	22.13
660.674	21.9
661.001	21.95
661.329	22.36
661.656	22.02
661.982	22.01
662.309	22.23
662.636	22.01
662.963	22.34
663.29	22.7
663.616	22.11
663.943	22.09
664.27	22.91
664.596	22.15
664.923	22.7
665.249	22.76
665.576	22.36
665.902	22.11
666.228	22.92
666.554	22.84
666.881	22.03
667.207	22.72
667.533	22.62
667.859	22.87
668.185	22.07
668.511	23.19
668.837	22.42
669.162	23.31
669.488	23.32
669.814	23.02
670.139	22.05
670.465	22.83
670.791	23.02
671.116	22.72
671.442	21.83
671.767	22.86
672.092	23.68
672.418	22.36
672.743	23.24
673.068	22.55
673.393	22.96
673.718	23.18
674.043	22.63
674.368	23.17
674.693	24.01
675.018	23.51
675.343	23.53
675.667	22.9
675.992	23.1
676.317	22.73
676.641	24.25
676.966	23.17
677.29	23.27
677.615	23.37
677.939	23.41
678.264	23.93
678.588	23.02
678.912	23.5
679.236	24.26
679.56	22.98
679.885	23.37
680.209	23.66
680.532	23.54
680.856	23.78
681.18	23.95
681.504	23.61
681.828	24.09
682.152	23.28
682.475	23.26
682.799	23.75
683.122	24.2
683.446	23.21
683.769	24.38
684.093	24.19
684.416	24.15
684.739	24.16
685.062	24.22
685.386	23.93
685.709	24.76
686.032	24.25
686.355	24.77
686.678	24.31
687.001	24.01
687.324	24.25
687.646	24.26
687.969	24.48
688.292	24.13
688.614	24.69
688.937	24.8
689.26	24.47
689.582	24.07
689.904	24.96
690.227	24.25
690.549	24.56
690.871	24.67
691.194	24
691.516	24.4
691.838	24.6
692.16	24.5
692.482	24.61
692.804	25.05
693.126	24.23
693.448	23.57
693.769	24.92
694.091	25.47
694.413	24.7
694.735	24.92
695.056	24.81
695.378	24.97
695.699	25.01
696.021	25.9
696.342	25
696.663	25.62
696.984	24.43
697.306	24.54
697.627	25.09
697.948	24.6
698.269	25.3
698.59	25.56
698.911	24.92
699.232	25.25
699.553	24.95
699.873	25.03
700.194	24.89
700.515	24.71
700.835	24.49
701.156	25.63
701.477	25.22
701.797	24.78
702.117	25.4
702.438	25.64
702.758	25.47
703.078	25.63
703.398	24.87
703.719	25.55
704.039	25.12
704.359	24.94
704.679	25.9
704.999	25.61
705.319	25.28
705.638	25.64
705.958	26.44
706.278	25.58
706.597	25.55
706.917	25.07
707.237	26.18
707.556	26.31
707.876	26.24
708.195	25.56
708.514	25.03
708.834	25.99
709.153	26.14
709.472	27.33
709.791	25.29
710.11	26.05
710.429	25.56
710.748	26.23
711.067	26.02
711.386	26.04
711.705	26.3
712.023	26.72
712.342	26.11
712.661	27.04
712.979	26.87
713.298	26.08
713.616	25.91
713.935	26.6
714.253	26
714.572	25.85
714.89	26.44
715.208	26.56
715.526	26.5
715.844	26.77
716.162	26.97
716.48	25.74
716.798	26.96
717.116	25.62
717.434	26.53
717.752	26.22
718.069	26.64
718.387	26.69
718.705	26.33
719.022	26.76
719.34	25.76
719.657	27.42
719.975	25.49
720.292	26.28
720.609	25.66
720.927	26.64
721.244	26.85
721.561	25.19
721.878	27.5
722.195	26.51
722.512	27.4
722.829	26.56
723.146	26.58
723.463	27.03
723.779	26.07
724.096	26.03
724.413	26.81
724.729	28.04
725.046	27.72
725.362	27.24
725.679	26.66
725.995	26.34
726.311	26.49
726.628	26.93
726.944	27.35
727.26	27.06
727.576	28.15
727.892	26.52
728.208	27.4
728.524	26.89
728.84	27.76
729.156	26.27
729.472	26.47
729.787	27.47
730.103	26.7
730.419	26.83
730.734	27.52
731.05	27.55
731.365	28.29
731.681	27.21
731.996	27.2
732.311	27.04
732.626	27.45
732.942	27.56
733.257	28.14
733.572	27.46
733.887	28.5
734.202	27.75
734.517	27.19
734.832	27.67
735.146	27.88
735.461	27.38
735.776	28.35
736.091	28.39
736.405	27.68
736.72	27.73
737.034	27.69
737.349	27.01
737.663	29.05
737.977	27.41
738.292	26.03
738.606	29.06
738.92	28.96
739.234	26.89
739.548	28.2
739.862	28.84
740.176	28.39
740.49	29.46
740.804	28.03
741.117	28.46
741.431	28.15
741.745	27.15
742.058	28.16
742.372	27.64
742.685	28.82
742.999	28.07
743.312	27.6
743.626	28.84
743.939	27.91
744.252	28.93
744.565	28.59
744.878	26.3
745.191	28.68
745.505	29.28
745.817	29.64
746.13	29.03
746.443	27.75
746.756	28.15
747.069	28.81
747.381	28.26
747.694	28.09
748.007	27.88
748.319	27.58
748.632	26.85
748.944	27.84
749.256	29.2
749.569	28.77
749.881	28.98
750.193	28.56
750.505	29.99
750.817	28.92
751.129	28.01
751.441	28.52
751.753	29.69
752.065	29.77
752.377	27.86
752.689	28.66
753	30.06
753.312	27.64
753.624	27.99
753.935	27.47
754.247	28.63
754.558	28.95
754.869	29.57
755.181	28.88
755.492	28.95
755.803	29
756.114	27.38
756.425	27.89
756.736	28.54
757.047	29.51
757.358	29.91
757.669	28.55
757.98	27.65
758.291	28.63
758.601	29.04
758.912	29.63
759.223	28.08
759.533	29.32
759.844	28.04
760.154	29.34
760.464	30.45
760.775	30.42
761.085	28.02
761.395	28.81
761.705	30.37
762.016	29.71
762.326	27.95
762.636	31.63
762.945	29.26
763.255	29.25
763.565	29.7
763.875	28.46
764.185	28.43
764.494	28.78
764.804	29.43
765.113	31.26
765.423	30.7
765.732	29.62
766.042	29.78
766.351	30.44
766.66	30.36
766.97	29.42
767.279	29.53
767.588	29.3
767.897	28.78
768.206	29.11
768.515	30.82
768.824	28.47
769.133	29.36
769.441	29.52
769.75	30.2
770.059	29.24
770.367	29.11
770.676	28.13
770.984	29.04
771.293	29.04
771.601	26.61
771.91	28.16
772.218	29.89
772.526	29.03
772.834	27.4
773.142	29.56
773.45	29.63
773.758	28.58
774.066	29.51
774.374	28.8
774.682	30.53
774.99	29.58
775.298	29.8
775.605	27.23
775.913	28.25
776.22	28.98
776.528	25.76
776.835	28.99
777.143	33.82
777.45	29.25
777.757	29.71
778.065	28.15
778.372	28.59
778.679	29.63
778.986	31.46
779.293	28.62
779.6	31.51
779.907	31.21
780.214	28.81
780.52	30.87
780.827	27.01
781.134	28.49
781.44	33.57
781.747	30.32
782.053	27.53
782.36	31.9
782.666	28.64
782.973	29.29
783.279	33.5
783.585	32.44
783.891	30.92
784.197	28.08
784.503	29.82
784.809	29.17
785.115	31.3
785.421	30.81
785.727	31.89
786.033	30.06
786.339	31.75
786.644	28.99
786.95	30.3
787.255	27.23
787.561	28.61
787.866	27.85
788.172	31.3
788.477	28.2
788.782	31.91
789.088	27.55
789.393	32.9
789.698	31.02
790.003	30.64
790.308	33.55
790.613	30.98
790.918	30.2
791.223	30.48
791.527	32.34
791.832	30.32
792.137	34.11
792.441	27.9
792.746	28.86
793.05	29.47
793.355	28.48
793.659	31.04
793.963	30.51
794.268	29.8
794.572	30.93
794.876	30.68
795.18	33.79
795.484	31.56
795.788	28.99
796.092	28.95
796.396	26.32
796.7	28.69
797.004	27.39
797.307	28.56
797.611	28.54
797.915	31.17
798.218	30.47
798.522	28.39
798.825	34.32
799.128	29.85
799.432	23.51
799.735	28.86
800.038	32.11
800.341	28.61
800.644	30.19
800.947	29.96
801.25	29.42
801.553	32.94
801.856	29.86
802.159	27.64
802.462	30.17
802.764	30.58
803.067	30.3
803.37	31.51
803.672	27.89
803.975	28.04
804.277	29.86
804.579	30.99
804.882	27.01
805.184	29.62
805.486	29.81
805.788	31.3
806.09	27.18
806.392	30.83
806.694	28.94
806.996	35.47
807.298	30.02
807.6	32.95
807.902	30.54
808.203	30.35
808.505	24.25
808.807	31.8
809.108	31.83
809.409	30.13
809.711	32.33
810.012	27.26
810.313	27.19
810.615	28.05
810.916	30.96
811.217	31.9
811.518	29.56
811.819	29.88
812.12	32.58
812.421	27.93
812.722	32.83
813.023	34.64
813.323	29.55
813.624	30.71
813.925	33.66
814.225	35.25
814.526	24.06
814.826	26.87
815.126	33
815.427	29.15
815.727	26.79
816.027	35.13
816.327	31.59
816.627	31.17
816.927	31.33
817.227	28.14
817.527	34.39
817.827	35.63
818.127	30.27
818.427	32.32
818.727	33.54
819.026	31.63
819.326	31.28
819.625	26.32
819.925	30.39
820.224	33.54
820.524	23.99
820.823	30.56
821.122	28.84
821.421	30.82
821.72	32.09
822.019	30.33
822.318	32.82
822.617	35.46
822.916	26.8
823.215	33.74
823.514	32.92
823.813	32.23
824.111	30.01
824.41	35.29
824.709	35.34
825.007	33.63
825.306	33.49
825.604	33.81
825.902	34.02
826.201	34.01
826.499	32.95
826.797	35.28
827.095	34.02
827.393	37.04
827.691	33.76
827.989	33.58
828.287	32.91
828.585	33
828.882	33.01
829.18	34.8
829.478	35.37
829.775	33.08
830.073	34
830.37	30.98
830.668	35.01
830.965	31.77
831.263	33.12
831.56	33.07
831.857	35.08
832.154	31.4
832.451	35.92
832.748	29.68
833.045	35.8
833.342	28.71
833.639	34.66
833.936	31.08
834.232	28.62
834.529	31.64
834.826	35.87
835.122	30.89
835.419	33.53
835.715	30.58
836.012	31.45
836.308	36.57
836.604	30.51
836.901	29.47
837.197	29.3
837.493	35.62
837.789	31.31
838.085	30.72
838.381	34.49
838.677	30.12
838.972	29.13
839.268	34.18
839.564	29.91
839.86	26.21
840.155	31.14
840.451	28.12
840.746	33.72
841.042	29.14
841.337	24.76
841.632	31.29
841.928	36.66
842.223	31.27
842.518	22.71
842.813	34.57
843.108	28.01
843.403	32.9
843.698	29.14
843.993	35
844.287	32.96
844.582	22.98
844.877	26.11
845.171	23.55
845.466	27.69
845.761	35.99
846.055	26.23
846.349	41.7
846.644	28.16
846.938	30.67
847.232	23.34
847.526	32.85
847.82	32.79
848.114	28.71
848.408	28.47
848.702	42.3
848.996	35.04
849.29	32.83
849.584	28.01
849.877	17.9
850.171	31.27
850.465	28.15
850.758	16.17
851.052	14.28
851.345	15.71
851.638	12.13
851.932	11.56
852.225	22.55
852.518	20.74
852.811	29.68
853.104	24.54
853.397	28.3
853.69	39.34
853.983	26.9
854.276	16.73
854.569	19.48
854.861	25.29
855.154	29.99
855.447	27.59
855.739	6.5
856.032	22.17
856.324	8.56
856.616	18.96
856.909	4.84
857.201	19.57
857.493	2.34
857.785	25.58
858.077	16.05
858.369	52.03
858.661	35.38
858.953	31.93
859.245	30.13
859.537	10.86
859.829	11.39
860.12	12.47
860.412	3.69
860.703	42.99
860.995	33.87
861.286	-23.66
861.578	29.13
861.869	28.67
862.16	24.48
862.452	9.75
862.743	20.16
863.034	33.18
863.325	9.34
863.616	32.12
863.907	37.85
864.198	17.72
864.488	17.46
864.779	17.04
865.07	22.49
865.36	26.7
865.651	35.08
865.941	4.69
866.232	21.79
866.522	36.93
866.813	57.64
867.103	5.35
867.393	5.03
867.683	-0.97
867.973	2.57
868.263	22.27
868.553	41.42
868.843	36.15
869.133	31.18
869.423	36.73
869.713	37.25
870.002	12.01
870.292	20.41
870.582	21.17
870.871	27.57
871.161	2.91
871.45	24.64
871.739	40.92
872.029	1.78
872.318	18.91
872.607	50.52
872.896	10.01
873.185	58.98
873.474	-2.7
873.763	39.92
874.052	23.26
874.341	28.96
874.63	19.99
874.918	24.91
875.207	4.39
875.496	30.8
875.784	21.98
876.073	15.56
876.361	29.06
876.649	30.54
876.938	-14.02
877.226	18.76
877.514	38.75
877.802	13.58
878.09	32.3
878.378	33.73
878.666	50.89
878.954	37.25
879.242	14.47
879.53	20.6
879.817	11.34
880.105	26.34
880.392	14.85
880.68	31.85
880.967	20.13
881.255	53.09
881.542	4.51
881.83	36.71
882.117	50.72
882.404	22.45
882.691	29
882.978	11.77
883.265	38.33
883.552	35.78
883.839	39.57
884.126	32.98
884.413	45.93
884.699	31.96
884.986	39.28
885.273	35.33
885.559	35.33
885.846	35.33
