Data from 0025_chest_Reflection__3__79.txt Node

Date: Thu Oct 20 20:57:35 CDT 2022
User: ToomeyLab
Spectrometer: FLMS14357
Trigger mode: 0
Integration Time (sec): 1.000000E-2
Scans to average: 100
Electric dark correction enabled: true
Nonlinearity correction enabled: false
Boxcar width: 0
XAxis mode: Wavelengths
Number of Pixels in Spectrum: 2048
>>>>>Begin Spectral Data<<<<<
189.047	296.5
189.435	296.5
189.823	296.5
190.211	75.17
190.599	16.81
190.987	1056.98
191.375	12.05
191.763	105.12
192.151	11.9
192.538	-197.22
192.926	100.08
193.314	102.83
193.702	20.48
194.089	29.55
194.477	-11.19
194.864	-2.87
195.252	18.7
195.639	134.85
196.027	297.85
196.414	-381.82
196.801	2.98
197.189	-966.43
197.576	108.31
197.963	-106.62
198.351	-30.8
198.738	44.88
199.125	0.43
199.512	17.12
199.899	-12.82
200.286	-14.03
200.673	28.4
201.06	40.96
201.447	23.89
201.833	11.85
202.22	11.58
202.607	14.02
202.994	31.87
203.38	-30.64
203.767	-46.25
204.154	-8.89
204.54	-12.27
204.927	13.75
205.313	-10.4
205.699	-28.47
206.086	-24.15
206.472	48.39
206.858	8.8
207.245	-2.04
207.631	-30.65
208.017	41.07
208.403	14.76
208.789	-43.75
209.175	-19.27
209.561	-21.98
209.947	30.46
210.333	-0.23
210.719	18.79
211.105	-23.95
211.491	5.54
211.876	12.45
212.262	-8.18
212.648	-36.27
213.034	11.39
213.419	-0.82
213.805	-32.43
214.19	-0.19
214.576	-14.38
214.961	27.09
215.346	1.95
215.732	-31.25
216.117	30.25
216.502	-63.06
216.888	-12.88
217.273	12.39
217.658	-1.5
218.043	11.18
218.428	-26.89
218.813	-11.88
219.198	-2.95
219.583	-8.73
219.968	1.73
220.353	12.45
220.738	7.5
221.122	17.5
221.507	-13.07
221.892	-21.54
222.276	5.99
222.661	6.23
223.046	4.25
223.43	7.21
223.815	-11.9
224.199	16.04
224.583	5.84
224.968	-2.2
225.352	2.07
225.736	7.44
226.121	10.16
226.505	-3.24
226.889	4.3
227.273	7.58
227.657	0.78
228.041	2.58
228.425	4.13
228.809	2.03
229.193	4.27
229.577	4.73
229.961	6.27
230.344	5.44
230.728	5.01
231.112	5.13
231.495	4.24
231.879	6.6
232.263	5.44
232.646	6.08
233.03	4.98
233.413	4.42
233.797	1.68
234.18	5.73
234.563	4.22
234.946	3.43
235.33	4.21
235.713	3.17
236.096	4.69
236.479	5.33
236.862	3.67
237.245	4.23
237.628	4.77
238.011	5.67
238.394	4.74
238.777	5.76
239.16	2.58
239.543	4.57
239.925	4.41
240.308	3.96
240.691	3.53
241.073	4.2
241.456	4.28
241.838	6.11
242.221	4.66
242.603	4.07
242.986	4.98
243.368	5.63
243.75	5.05
244.133	5.01
244.515	4.78
244.897	5.31
245.279	4.84
245.661	5.04
246.043	6.02
246.425	5.03
246.807	4.64
247.189	4.88
247.571	4.92
247.953	4.76
248.335	4.99
248.717	5.06
249.098	4.66
249.48	4.76
249.862	4.93
250.243	4.6
250.625	4.78
251.006	5.38
251.388	3.71
251.769	5.34
252.151	4.49
252.532	5.12
252.913	4.34
253.295	4.54
253.676	5.24
254.057	4.3
254.438	4.6
254.819	4.44
255.2	5.28
255.581	4.24
255.962	3.36
256.343	4.88
256.724	4.06
257.105	5.85
257.486	4.82
257.867	5.42
258.247	4.64
258.628	4.53
259.009	4.54
259.389	5.02
259.77	4.65
260.15	4.86
260.531	4.3
260.911	4.53
261.292	4.36
261.672	4.03
262.052	4.36
262.432	4.67
262.813	4.23
263.193	4.39
263.573	4.75
263.953	4.65
264.333	4.72
264.713	4.62
265.093	4.72
265.473	4.13
265.853	4.24
266.233	4.22
266.612	3.52
266.992	3.87
267.372	4.44
267.752	4.44
268.131	4.31
268.511	4.62
268.89	4.2
269.27	3.81
269.649	4.48
270.029	4.22
270.408	3.64
270.787	3.47
271.167	4.09
271.546	4.09
271.925	4.48
272.304	4.06
272.683	4.06
273.062	4.61
273.441	4.17
273.82	4.25
274.199	3.89
274.578	4.04
274.957	3.97
275.336	3.69
275.715	4.22
276.093	4.54
276.472	4.35
276.851	3.62
277.229	4.48
277.608	4.1
277.986	4.28
278.365	4
278.743	4.12
279.122	4.38
279.5	4.71
279.878	4.06
280.257	3.43
280.635	4.3
281.013	3.36
281.391	3.55
281.769	3.87
282.147	4
282.525	4.52
282.903	3.87
283.281	4.33
283.659	3.81
284.037	4.2
284.415	4.09
284.792	3.69
285.17	4.37
285.548	4.01
285.925	3.9
286.303	4.42
286.68	3.99
287.058	3.94
287.435	4.05
287.813	3.6
288.19	3.91
288.567	3.8
288.945	3.83
289.322	3.78
289.699	4.04
290.076	3.75
290.453	4.08
290.83	3.95
291.207	3.78
291.584	3.79
291.961	3.95
292.338	4.04
292.715	3.51
293.092	3.58
293.469	4.25
293.845	3.82
294.222	3.66
294.599	3.98
294.975	4.28
295.352	3.78
295.728	3.4
296.105	3.91
296.481	3.9
296.858	4.01
297.234	3.68
297.61	3.71
297.986	3.95
298.363	3.97
298.739	4.12
299.115	3.7
299.491	4.22
299.867	4.14
300.243	4.12
300.619	3.41
300.995	3.7
301.371	3.91
301.746	4
302.122	4.5
302.498	4.09
302.874	3.91
303.249	3.84
303.625	3.93
304	3.76
304.376	4.46
304.751	3.86
305.127	3.7
305.502	4.1
305.878	3.58
306.253	3.84
306.628	3.88
307.003	4.23
307.378	3.87
307.754	4.24
308.129	3.74
308.504	4.42
308.879	4
309.254	3.7
309.629	4.08
310.003	4.06
310.378	3.91
310.753	3.63
311.128	3.74
311.502	4.16
311.877	4.14
312.252	3.98
312.626	3.94
313.001	4.21
313.375	3.94
313.75	4
314.124	3.89
314.498	4.17
314.873	4.27
315.247	4.04
315.621	3.44
315.995	4.05
316.369	3.93
316.743	4.71
317.117	4.12
317.491	4.17
317.865	4.42
318.239	3.76
318.613	3.25
318.987	3.77
319.361	3.82
319.734	4.35
320.108	3.81
320.482	4.04
320.855	3.95
321.229	3.99
321.602	4.34
321.976	4.05
322.349	4.15
322.723	4.16
323.096	4.09
323.469	4.32
323.843	3.58
324.216	4.13
324.589	3.71
324.962	4.31
325.335	3.88
325.708	4.21
326.081	4.19
326.454	3.58
326.827	3.33
327.2	3.93
327.573	4.48
327.945	4.01
328.318	3.68
328.691	4.29
329.063	3.69
329.436	3.97
329.809	4
330.181	4.07
330.553	3.61
330.926	3.93
331.298	3.34
331.671	3.47
332.043	4.45
332.415	4.26
332.787	4.02
333.159	3.88
333.532	4.09
333.904	4.1
334.276	4
334.648	3.64
335.02	3.81
335.391	3.47
335.763	3.87
336.135	4.33
336.507	4.07
336.879	3.63
337.25	4.07
337.622	3.92
337.993	3.09
338.365	3.53
338.736	3.86
339.108	4.18
339.479	3.46
339.851	4.01
340.222	3.67
340.593	3.76
340.964	4.3
341.336	4.01
341.707	4.26
342.078	4.14
342.449	4.23
342.82	4.14
343.191	4.2
343.562	4.02
343.933	3.62
344.303	3.89
344.674	4.4
345.045	4.41
345.416	4.12
345.786	4.01
346.157	4.19
346.527	4.02
346.898	4.24
347.268	4.25
347.639	3.91
348.009	4.51
348.38	3.72
348.75	4.47
349.12	4.22
349.49	4.01
349.861	4.44
350.231	4.02
350.601	4.41
350.971	4.12
351.341	4.41
351.711	4.12
352.081	4.22
352.45	3.97
352.82	4.34
353.19	4.25
353.56	3.92
353.929	4.2
354.299	4.09
354.669	4.3
355.038	3.79
355.408	3.79
355.777	4.09
356.147	3.92
356.516	4.03
356.885	4.32
357.254	4.22
357.624	4.18
357.993	4.42
358.362	4.07
358.731	4.14
359.1	3.78
359.469	3.84
359.838	4.12
360.207	4.35
360.576	4.1
360.945	3.67
361.314	4.34
361.682	4.35
362.051	4.24
362.42	4.02
362.788	4.01
363.157	4.26
363.525	3.98
363.894	4.14
364.262	4.43
364.631	3.77
364.999	4.18
365.367	4.09
365.735	4.46
366.104	4.39
366.472	4.28
366.84	4.46
367.208	4.12
367.576	4.16
367.944	4.19
368.312	4.13
368.68	4.31
369.048	4.07
369.416	4.28
369.783	3.97
370.151	4.02
370.519	3.92
370.886	4.22
371.254	4.14
371.621	4.15
371.989	4.47
372.356	4.37
372.724	4.09
373.091	4.09
373.458	4.37
373.826	4.53
374.193	3.96
374.56	4.04
374.927	4.12
375.294	4.17
375.661	4.19
376.028	3.78
376.395	4.25
376.762	4.35
377.129	4.32
377.496	4.17
377.863	4.1
378.229	4.46
378.596	4.27
378.963	4.23
379.329	4.47
379.696	4.33
380.062	4.24
380.429	4.26
380.795	4.22
381.161	4.24
381.528	4.36
381.894	4.3
382.26	4.2
382.626	4.16
382.993	4.25
383.359	4.03
383.725	4.61
384.091	4.53
384.457	4.17
384.823	4.32
385.188	4.2
385.554	4.29
385.92	4.17
386.286	4.53
386.651	4.25
387.017	4.31
387.383	4.11
387.748	4.22
388.114	4.6
388.479	4.64
388.845	4.08
389.21	4.18
389.575	4.27
389.94	4.29
390.306	4.58
390.671	4.28
391.036	4.56
391.401	4.49
391.766	3.95
392.131	4.08
392.496	4.21
392.861	4.34
393.226	4.2
393.591	4.46
393.956	4.49
394.32	4.43
394.685	4.74
395.05	4.52
395.414	4.32
395.779	4.44
396.143	4.36
396.508	4.45
396.872	4.48
397.236	4.36
397.601	4.62
397.965	4.51
398.329	4.46
398.694	4.45
399.058	4.3
399.422	4.38
399.786	4.3
400.15	4.51
400.514	4.63
400.878	4.44
401.242	4.26
401.605	4.2
401.969	4.47
402.333	4.41
402.697	4.38
403.06	4.43
403.424	4.24
403.787	4.44
404.151	4.63
404.514	4.39
404.878	4.46
405.241	4.66
405.604	4.39
405.968	4.36
406.331	4.54
406.694	4.23
407.057	4.28
407.42	4.34
407.783	4.26
408.146	4.39
408.509	4.39
408.872	4.36
409.235	4.45
409.598	4.27
409.961	4.43
410.323	4.21
410.686	4.6
411.049	4.64
411.411	4.61
411.774	4.55
412.136	4.55
412.499	4.42
412.861	4.64
413.223	4.63
413.586	4.85
413.948	4.59
414.31	4.48
414.672	4.59
415.035	4.79
415.397	4.44
415.759	4.41
416.121	4.7
416.483	4.47
416.845	4.66
417.206	4.34
417.568	4.56
417.93	4.34
418.292	4.65
418.653	4.61
419.015	4.54
419.377	4.56
419.738	4.56
420.1	4.53
420.461	4.43
420.822	4.42
421.184	4.49
421.545	4.46
421.906	4.43
422.267	4.51
422.629	4.39
422.99	4.46
423.351	4.33
423.712	4.38
424.073	4.53
424.434	4.5
424.795	4.54
425.155	4.32
425.516	4.49
425.877	4.51
426.238	4.43
426.598	4.44
426.959	4.54
427.32	4.48
427.68	4.55
428.041	4.49
428.401	4.47
428.761	4.63
429.122	4.61
429.482	4.61
429.842	4.4
430.202	4.81
430.563	4.47
430.923	4.46
431.283	4.65
431.643	4.69
432.003	4.76
432.363	4.65
432.722	4.6
433.082	4.52
433.442	4.53
433.802	4.66
434.161	4.61
434.521	4.53
434.881	4.58
435.24	4.5
435.6	4.58
435.959	4.5
436.319	4.53
436.678	4.64
437.037	4.67
437.396	4.53
437.756	4.67
438.115	4.82
438.474	4.71
438.833	4.57
439.192	4.7
439.551	4.56
439.91	4.66
440.269	4.58
440.628	4.72
440.987	4.62
441.345	4.61
441.704	4.65
442.063	4.59
442.421	4.58
442.78	4.66
443.138	4.52
443.497	4.61
443.855	4.76
444.214	4.64
444.572	4.79
444.93	4.75
445.288	4.67
445.647	4.58
446.005	4.51
446.363	4.54
446.721	4.56
447.079	4.6
447.437	4.63
447.795	4.69
448.153	4.59
448.51	4.66
448.868	4.64
449.226	4.58
449.584	4.68
449.941	4.7
450.299	4.65
450.656	4.57
451.014	4.57
451.371	4.6
451.729	4.66
452.086	4.62
452.443	4.64
452.801	4.6
453.158	4.76
453.515	4.55
453.872	4.73
454.229	4.66
454.586	4.82
454.943	4.58
455.3	4.64
455.657	4.66
456.014	4.47
456.371	4.7
456.727	4.71
457.084	4.58
457.441	4.77
457.797	4.83
458.154	4.87
458.51	4.69
458.867	4.66
459.223	4.67
459.58	4.76
459.936	4.78
460.292	4.75
460.648	4.6
461.005	4.84
461.361	4.63
461.717	4.57
462.073	4.66
462.429	4.63
462.785	4.63
463.141	4.82
463.496	4.77
463.852	4.64
464.208	4.83
464.564	4.74
464.919	4.71
465.275	4.6
465.631	4.92
465.986	4.84
466.342	4.77
466.697	4.7
467.052	4.97
467.408	4.77
467.763	4.9
468.118	4.79
468.473	4.8
468.829	4.7
469.184	4.9
469.539	4.77
469.894	4.73
470.249	4.77
470.603	4.81
470.958	4.8
471.313	4.72
471.668	4.82
472.023	4.76
472.377	4.88
472.732	4.82
473.086	4.76
473.441	4.78
473.795	4.79
474.15	4.94
474.504	4.97
474.859	4.8
475.213	4.83
475.567	4.85
475.921	4.78
476.275	4.84
476.63	4.75
476.984	4.85
477.338	4.91
477.692	4.94
478.045	4.81
478.399	4.93
478.753	4.91
479.107	4.93
479.461	4.87
479.814	4.9
480.168	4.83
480.521	4.83
480.875	4.95
481.228	4.89
481.582	4.81
481.935	4.82
482.289	4.84
482.642	4.97
482.995	4.92
483.348	4.73
483.701	4.8
484.055	4.8
484.408	4.78
484.761	4.69
485.114	4.69
485.466	4.68
485.819	4.63
486.172	4.6
486.525	4.6
486.878	4.72
487.23	4.77
487.583	4.72
487.936	4.7
488.288	4.76
488.641	4.7
488.993	4.67
489.345	4.69
489.698	4.68
490.05	4.71
490.402	4.66
490.754	4.7
491.107	4.78
491.459	4.87
491.811	4.86
492.163	4.83
492.515	4.77
492.866	4.78
493.218	4.78
493.57	4.7
493.922	4.76
494.274	4.76
494.625	4.79
494.977	4.86
495.328	4.93
495.68	4.83
496.031	4.98
496.383	4.9
496.734	5.04
497.086	4.94
497.437	5.06
497.788	5.01
498.139	4.83
498.49	4.96
498.842	4.92
499.193	4.86
499.544	4.98
499.894	5.03
500.245	4.96
500.596	4.93
500.947	4.84
501.298	5.02
501.648	4.92
501.999	4.95
502.35	5.04
502.7	5.09
503.051	5.07
503.401	5.05
503.752	4.97
504.102	5.02
504.452	5.1
504.803	5.02
505.153	5.14
505.503	5.03
505.853	5.04
506.203	4.98
506.553	5.09
506.903	5.14
507.253	5.05
507.603	4.96
507.953	5.04
508.303	5.11
508.652	5.14
509.002	5.13
509.352	5.05
509.701	5.18
510.051	5.16
510.4	5.09
510.75	5.08
511.099	5.14
511.449	5
511.798	5.09
512.147	5.1
512.496	5.07
512.846	5.19
513.195	5.13
513.544	5.11
513.893	5.01
514.242	5.24
514.591	5.11
514.939	5.08
515.288	5.06
515.637	5.19
515.986	5.34
516.334	5.26
516.683	5.31
517.032	5.14
517.38	5.18
517.729	5.11
518.077	5.25
518.426	5.13
518.774	5.19
519.122	5.27
519.47	5.16
519.819	5.28
520.167	5.22
520.515	5.18
520.863	5.21
521.211	5.18
521.559	5.26
521.907	5.31
522.255	5.28
522.602	5.29
522.95	5.32
523.298	5.27
523.645	5.36
523.993	5.4
524.341	5.19
524.688	5.42
525.036	5.36
525.383	5.4
525.73	5.31
526.078	5.35
526.425	5.31
526.772	5.44
527.119	5.31
527.466	5.44
527.814	5.35
528.161	5.38
528.508	5.32
528.854	5.32
529.201	5.43
529.548	5.36
529.895	5.3
530.242	5.28
530.588	5.24
530.935	5.26
531.282	5.23
531.628	5.33
531.975	5.37
532.321	5.35
532.667	5.37
533.014	5.52
533.36	5.6
533.706	5.51
534.052	5.53
534.399	5.48
534.745	5.47
535.091	5.53
535.437	5.43
535.783	5.45
536.129	5.46
536.474	5.51
536.82	5.6
537.166	5.65
537.512	5.62
537.857	5.64
538.203	5.64
538.549	5.6
538.894	5.57
539.239	5.68
539.585	5.79
539.93	5.75
540.276	5.83
540.621	5.8
540.966	5.75
541.311	5.89
541.656	5.76
542.001	5.84
542.346	5.73
542.691	5.65
543.036	5.74
543.381	5.73
543.726	5.66
544.071	5.68
544.415	5.77
544.76	5.79
545.105	5.75
545.449	5.88
545.794	5.94
546.138	5.97
546.483	5.89
546.827	6.02
547.171	6.11
547.516	6.01
547.86	5.89
548.204	6.03
548.548	5.93
548.892	6.01
549.236	6.01
549.58	6.03
549.924	6.21
550.268	6.05
550.612	6.12
550.956	6.19
551.3	6.2
551.643	6.27
551.987	6.21
552.33	6.26
552.674	6.26
553.017	6.19
553.361	6.13
553.704	6.42
554.048	6.35
554.391	6.2
554.734	6.22
555.077	6.18
555.42	6.27
555.764	6.49
556.107	6.31
556.45	6.53
556.793	6.4
557.135	6.56
557.478	6.44
557.821	6.65
558.164	6.66
558.507	6.62
558.849	6.46
559.192	6.47
559.534	6.46
559.877	6.43
560.219	6.49
560.562	6.68
560.904	6.52
561.246	6.57
561.589	6.61
561.931	6.87
562.273	6.56
562.615	6.67
562.957	6.8
563.299	6.85
563.641	6.73
563.983	6.72
564.325	6.82
564.667	6.85
565.008	6.68
565.35	6.88
565.692	6.78
566.033	7.1
566.375	6.82
566.716	6.92
567.058	6.88
567.399	7.05
567.741	6.93
568.082	6.98
568.423	6.95
568.764	7.05
569.105	7.04
569.447	7.1
569.788	7.14
570.129	7.14
570.47	7.08
570.811	6.91
571.151	7.38
571.492	7.15
571.833	7.31
572.174	7.19
572.514	7.42
572.855	7.36
573.195	7.45
573.536	7.36
573.876	7.45
574.217	7.26
574.557	7.32
574.898	7.51
575.238	7.38
575.578	7.29
575.918	7.45
576.258	7.55
576.598	7.46
576.938	7.59
577.278	7.56
577.618	7.57
577.958	7.55
578.298	7.49
578.638	7.73
578.977	7.8
579.317	7.73
579.657	7.61
579.996	7.75
580.336	7.74
580.675	7.8
581.014	7.81
581.354	7.96
581.693	7.89
582.032	7.89
582.372	7.83
582.711	7.65
583.05	7.81
583.389	7.86
583.728	8.13
584.067	8.25
584.406	8.33
584.745	8.03
585.083	7.95
585.422	8.31
585.761	8.15
586.1	8.12
586.438	8.34
586.777	8.23
587.115	8.29
587.454	8.24
587.792	8.51
588.13	8.22
588.469	8.44
588.807	8.56
589.145	8.55
589.483	8.48
589.821	8.5
590.159	8.44
590.497	8.57
590.835	8.61
591.173	8.54
591.511	8.52
591.849	8.81
592.187	8.66
592.524	8.85
592.862	8.75
593.2	8.81
593.537	8.91
593.875	8.64
594.212	8.92
594.55	8.73
594.887	8.98
595.224	9.21
595.561	8.98
595.899	8.93
596.236	9.11
596.573	9.07
596.91	9.11
597.247	9.19
597.584	9.15
597.921	9.23
598.258	9.06
598.594	9.25
598.931	9.22
599.268	9.04
599.604	9.17
599.941	9.22
600.277	9.22
600.614	9.37
600.95	9.55
601.287	9.63
601.623	9.53
601.959	9.55
602.296	9.69
602.632	9.34
602.968	9.34
603.304	9.64
603.64	9.32
603.976	9.87
604.312	9.77
604.648	9.58
604.984	9.81
605.319	9.85
605.655	9.66
605.991	9.85
606.326	10.01
606.662	9.74
606.998	10.01
607.333	9.66
607.668	9.97
608.004	9.95
608.339	9.97
608.674	10.01
609.01	9.78
609.345	9.9
609.68	10.1
610.015	10.47
610.35	10.2
610.685	10.35
611.02	10.23
611.355	10.54
611.689	10.32
612.024	10.3
612.359	10.21
612.694	10.44
613.028	10.49
613.363	10.58
613.697	10.28
614.032	10.48
614.366	10.45
614.7	10.38
615.035	10.63
615.369	10.49
615.703	10.75
616.037	10.66
616.371	11.02
616.705	10.78
617.039	10.82
617.373	11.05
617.707	10.85
618.041	11.08
618.375	10.57
618.709	11.49
619.042	11.15
619.376	11.16
619.71	11.17
620.043	10.91
620.377	11.48
620.71	11.19
621.043	11.24
621.377	11.43
621.71	10.86
622.043	10.98
622.376	11.22
622.709	11.49
623.043	11.59
623.376	11.36
623.709	11.63
624.041	11.61
624.374	11.25
624.707	11.5
625.04	11.47
625.373	11.56
625.705	11.59
626.038	11.83
626.37	11.65
626.703	11.81
627.035	11.63
627.368	11.84
627.7	12.02
628.032	12.15
628.365	12.08
628.697	12.1
629.029	12.23
629.361	12.21
629.693	12.33
630.025	12.3
630.357	12.4
630.689	12.28
631.021	12
631.353	12.45
631.684	12.38
632.016	12.3
632.348	12.84
632.679	12.54
633.011	12.2
633.342	12.66
633.674	12.74
634.005	12.28
634.336	13
634.668	12.17
634.999	12.78
635.33	13.1
635.661	13.13
635.992	12.66
636.323	12.97
636.654	12.81
636.985	13.03
637.316	12.86
637.647	12.84
637.977	12.82
638.308	13.02
638.639	13.07
638.969	13.07
639.3	13.13
639.63	13.44
639.961	12.84
640.291	13.03
640.622	13.05
640.952	13.24
641.282	13.74
641.612	12.79
641.943	13.45
642.273	13.27
642.603	13.9
642.933	13.58
643.263	13.66
643.592	13.6
643.922	13.93
644.252	13.3
644.582	13.4
644.911	13.85
645.241	13.89
645.571	13.79
645.9	13.37
646.23	13.59
646.559	13.59
646.888	13.83
647.218	13.98
647.547	13.88
647.876	13.96
648.205	14.1
648.534	13.81
648.863	14.03
649.192	14.53
649.521	14.5
649.85	14.24
650.179	14.41
650.508	14.55
650.837	14.38
651.165	14.46
651.494	14.69
651.822	14.55
652.151	14.45
652.479	14.51
652.808	14.96
653.136	14.77
653.465	14.4
653.793	14.9
654.121	14.83
654.449	14.7
654.777	14.91
655.105	14.88
655.433	14.8
655.761	14.59
656.089	14.78
656.417	14.61
656.745	14.59
657.073	15.32
657.4	14.71
657.728	14.87
658.056	14.4
658.383	15.5
658.711	14.91
659.038	15.46
659.365	15.35
659.693	15.3
660.02	15.69
660.347	15.6
660.674	15.47
661.001	15.8
661.329	15.53
661.656	15.26
661.982	15.5
662.309	15.95
662.636	15.6
662.963	15.65
663.29	15.95
663.616	15.94
663.943	16.07
664.27	15.77
664.596	15.75
664.923	15.66
665.249	15.85
665.576	15.65
665.902	15.73
666.228	16.57
666.554	16.09
666.881	16.21
667.207	15.52
667.533	16.4
667.859	16.12
668.185	16.48
668.511	15.69
668.837	16.45
669.162	16.04
669.488	16.2
669.814	16.51
670.139	16.12
670.465	16.66
670.791	16.64
671.116	16.81
671.442	16.54
671.767	16.75
672.092	17.01
672.418	15.99
672.743	16.52
673.068	17.18
673.393	17.31
673.718	16.94
674.043	15.72
674.368	17.26
674.693	17.15
675.018	17.33
675.343	17.95
675.667	17.19
675.992	17.17
676.317	17.6
676.641	18.06
676.966	17.09
677.29	17.56
677.615	16.85
677.939	16.81
678.264	17.12
678.588	17.76
678.912	18.03
679.236	17.52
679.56	17.3
679.885	17.61
680.209	17.6
680.532	18.05
680.856	17.62
681.18	17.95
681.504	18.2
681.828	17.61
682.152	17.36
682.475	18.15
682.799	17.42
683.122	17.74
683.446	18.1
683.769	17.96
684.093	18.01
684.416	18.7
684.739	18.53
685.062	18.03
685.386	17.81
685.709	17.68
686.032	17.91
686.355	17.98
686.678	18.49
687.001	18.55
687.324	18.84
687.646	18.53
687.969	18.65
688.292	18.68
688.614	18.52
688.937	19.05
689.26	18.66
689.582	18.5
689.904	18.7
690.227	19.08
690.549	19.21
690.871	19.16
691.194	19.09
691.516	18.89
691.838	19.59
692.16	19.85
692.482	18.65
692.804	19.45
693.126	18.25
693.448	19.52
693.769	19.69
694.091	19.93
694.413	20.01
694.735	18.99
695.056	19.47
695.378	19.62
695.699	19.13
696.021	20.21
696.342	18.48
696.663	19.44
696.984	19.27
697.306	19.45
697.627	19.6
697.948	19.57
698.269	19.45
698.59	18.86
698.911	19.23
699.232	19.58
699.553	19.89
699.873	19.71
700.194	20.18
700.515	20.01
700.835	20.18
701.156	20.25
701.477	20.11
701.797	20.02
702.117	20.7
702.438	20.04
702.758	20.88
703.078	19.89
703.398	20.14
703.719	21.58
704.039	20.78
704.359	19.78
704.679	20.38
704.999	20.55
705.319	20.17
705.638	21.05
705.958	19.35
706.278	20.93
706.597	21.33
706.917	20.78
707.237	21.93
707.556	20.65
707.876	20.9
708.195	20.47
708.514	20.89
708.834	20.42
709.153	20.78
709.472	21.38
709.791	20.82
710.11	21.04
710.429	21.12
710.748	21.37
711.067	21.76
711.386	20.64
711.705	21.5
712.023	22.01
712.342	22.02
712.661	20.78
712.979	21.94
713.298	22.5
713.616	21.53
713.935	21.48
714.253	22.18
714.572	21.21
714.89	21.51
715.208	21.91
715.526	22.58
715.844	21.93
716.162	22.35
716.48	21.94
716.798	22.17
717.116	21.56
717.434	22.53
717.752	22.63
718.069	22.09
718.387	22.43
718.705	22.76
719.022	22.8
719.34	22.85
719.657	22.38
719.975	22.34
720.292	23.05
720.609	22.16
720.927	23.24
721.244	23.48
721.561	23.02
721.878	22.45
722.195	23.24
722.512	22.67
722.829	22.78
723.146	22.13
723.463	23.28
723.779	22.8
724.096	22.68
724.413	21.45
724.729	23.35
725.046	23.14
725.362	22.5
725.679	22.48
725.995	22.79
726.311	23.98
726.628	22.94
726.944	22.8
727.26	23.2
727.576	22.21
727.892	24.09
728.208	24.03
728.524	23.54
728.84	23.04
729.156	23.73
729.472	22.28
729.787	24.6
730.103	24.07
730.419	24.31
730.734	23.82
731.05	24.23
731.365	25.56
731.681	23.4
731.996	23.79
732.311	24.11
732.626	24.01
732.942	24.9
733.257	23.41
733.572	24.59
733.887	23.72
734.202	24.23
734.517	24.15
734.832	26.14
735.146	24.65
735.461	24.24
735.776	25.06
736.091	24.6
736.405	24.97
736.72	25.12
737.034	23.75
737.349	24.3
737.663	24.27
737.977	25.26
738.292	23.2
738.606	25.12
738.92	25.57
739.234	24.61
739.548	24.93
739.862	24.7
740.176	25.71
740.49	24.77
740.804	24.38
741.117	25.45
741.431	25.28
741.745	25.49
742.058	25.4
742.372	27.17
742.685	24.17
742.999	26.2
743.312	25.65
743.626	25.83
743.939	25.52
744.252	24.99
744.565	26.54
744.878	27.06
745.191	24.33
745.505	25.68
745.817	27.02
746.13	26.23
746.443	24.81
746.756	26.24
747.069	25.93
747.381	25.34
747.694	26.35
748.007	26.29
748.319	27.02
748.632	26.3
748.944	25.55
749.256	24.77
749.569	26.05
749.881	26.03
750.193	26.57
750.505	27.55
750.817	25.9
751.129	25.51
751.441	24.98
751.753	27.19
752.065	25.81
752.377	28.35
752.689	29.63
753	27.58
753.312	28.31
753.624	24.67
753.935	26.06
754.247	26.85
754.558	26.74
754.869	25.28
755.181	28.12
755.492	27.26
755.803	27.52
756.114	26.68
756.425	27.41
756.736	25.92
757.047	28.93
757.358	27.52
757.669	26.91
757.98	29.24
758.291	27.19
758.601	27.73
758.912	28.19
759.223	27.26
759.533	28.26
759.844	25.01
760.154	28.37
760.464	27.79
760.775	27.39
761.085	26.41
761.395	27.54
761.705	27.73
762.016	26.28
762.326	26.05
762.636	28.18
762.945	28.04
763.255	27.88
763.565	27.33
763.875	28.62
764.185	28.8
764.494	28.35
764.804	30
765.113	28.11
765.423	28.71
765.732	28.59
766.042	28.26
766.351	28.92
766.66	28.33
766.97	29.74
767.279	28.86
767.588	28.49
767.897	29.36
768.206	29.07
768.515	28.16
768.824	29.95
769.133	28.76
769.441	30.69
769.75	29.11
770.059	29.66
770.367	29.78
770.676	28
770.984	29.55
771.293	30.3
771.601	27.7
771.91	29.4
772.218	29.04
772.526	30
772.834	29.29
773.142	30.22
773.45	27.33
773.758	25.74
774.066	28.48
774.374	30.58
774.682	29.69
774.99	28.69
775.298	27.43
775.605	31.75
775.913	28.68
776.22	30.1
776.528	29.95
776.835	29.35
777.143	28.53
777.45	29.92
777.757	27.82
778.065	29.07
778.372	27.84
778.679	30.01
778.986	28.89
779.293	30.05
779.6	28.27
779.907	29.36
780.214	33.52
780.52	32.91
780.827	30.14
781.134	31.54
781.44	28.42
781.747	28.28
782.053	31.09
782.36	32.34
782.666	29.87
782.973	29.36
783.279	30.17
783.585	32.68
783.891	30.12
784.197	25.11
784.503	28.88
784.809	33.73
785.115	32.36
785.421	31.84
785.727	31.07
786.033	27.61
786.339	30.48
786.644	32.49
786.95	31.87
787.255	30.96
787.561	28.27
787.866	26.89
788.172	29.67
788.477	29.7
788.782	29.56
789.088	32.03
789.393	31.23
789.698	30.72
790.003	28.24
790.308	29.55
790.613	32.27
790.918	30.93
791.223	33.16
791.527	27.66
791.832	32.53
792.137	33.97
792.441	32.08
792.746	36.14
793.05	30.21
793.355	28.82
793.659	31.75
793.963	34.47
794.268	32.36
794.572	32.81
794.876	32.81
795.18	28.7
795.484	31.17
795.788	30.41
796.092	33.38
796.396	31.87
796.7	29.15
797.004	32.51
797.307	33.68
797.611	33.42
797.915	34.51
798.218	30.85
798.522	33.08
798.825	27.04
799.128	30.03
799.432	34.87
799.735	30.59
800.038	31.13
800.341	28.74
800.644	32.97
800.947	30.6
801.25	32.51
801.553	28.17
801.856	32.77
802.159	31.14
802.462	33.38
802.764	35.71
803.067	28.01
803.37	33.08
803.672	30.03
803.975	30.2
804.277	34.61
804.579	29.92
804.882	33.81
805.184	31.81
805.486	32.44
805.788	35.05
806.09	28.76
806.392	33.09
806.694	33.49
806.996	31.5
807.298	32.98
807.6	30.2
807.902	28.46
808.203	31.42
808.505	27.5
808.807	35.27
809.108	34.18
809.409	29.41
809.711	29.52
810.012	36.38
810.313	32.46
810.615	27.61
810.916	36.34
811.217	30.98
811.518	30.69
811.819	31.22
812.12	34.98
812.421	33.87
812.722	36.09
813.023	37.71
813.323	36.35
813.624	35.09
813.925	25.01
814.225	38.02
814.526	30.08
814.826	35.4
815.126	29.94
815.427	32.78
815.727	38.51
816.027	35.85
816.327	40.8
816.627	35.52
816.927	36.35
817.227	35.81
817.527	34.7
817.827	35.02
818.127	35.54
818.427	38.28
818.727	37.83
819.026	36.84
819.326	34.97
819.625	33.3
819.925	35.21
820.224	33.07
820.524	31.77
820.823	28.49
821.122	36
821.421	34.31
821.72	35.23
822.019	35.84
822.318	35.29
822.617	36.74
822.916	33.02
823.215	37.86
823.514	39.79
823.813	35.88
824.111	36.83
824.41	37.12
824.709	38.06
825.007	37.89
825.306	37.59
825.604	37.13
825.902	36.81
826.201	36.43
826.499	36.44
826.797	37.12
827.095	37.43
827.393	37.11
827.691	38.02
827.989	36.64
828.287	38.1
828.585	35.42
828.882	35.88
829.18	36.43
829.478	38.41
829.775	38.85
830.073	39.81
830.37	39.63
830.668	38.32
830.965	36.95
831.263	35.11
831.56	36.14
831.857	34.23
832.154	36.16
832.451	36.21
832.748	32.42
833.045	34.66
833.342	39.58
833.639	31.27
833.936	39.69
834.232	35.86
834.529	35.91
834.826	34.16
835.122	40.24
835.419	40.22
835.715	35.95
836.012	38.34
836.308	38.16
836.604	40.67
836.901	39.74
837.197	35.86
837.493	36.93
837.789	40.75
838.085	33.29
838.381	39.93
838.677	34.1
838.972	37.55
839.268	39.11
839.564	40.25
839.86	36.39
840.155	40.51
840.451	27.84
840.746	37.97
841.042	40.43
841.337	36.9
841.632	41.31
841.928	34.6
842.223	40.24
842.518	35.98
842.813	40.52
843.108	33.76
843.403	32.62
843.698	34.41
843.993	28.79
844.287	32.44
844.582	39.95
844.877	36.02
845.171	30.71
845.466	18.51
845.761	33.82
846.055	28
846.349	35.45
846.644	32.79
846.938	33.89
847.232	26.79
847.526	25.95
847.82	35.24
848.114	25.3
848.408	44.76
848.702	37.9
848.996	38.94
849.29	32.33
849.584	31.63
849.877	31.24
850.171	30.3
850.465	23.84
850.758	28.99
851.052	38.42
851.345	21.38
851.638	38.8
851.932	25.88
852.225	48.36
852.518	17.54
852.811	31.71
853.104	42.21
853.397	23.99
853.69	32.02
853.983	33.19
854.276	20.02
854.569	38.32
854.861	34.9
855.154	31.91
855.447	39.81
855.739	26.72
856.032	25.65
856.324	40.47
856.616	42.11
856.909	20.86
857.201	34.37
857.493	37.63
857.785	34.37
858.077	32.59
858.369	18.49
858.661	39.75
858.953	50.97
859.245	30.9
859.537	18.76
859.829	-3.31
860.12	22.02
860.412	25.08
860.703	30.08
860.995	37.48
861.286	17.07
861.578	22.37
861.869	32.66
862.16	41.06
862.452	20.59
862.743	29.49
863.034	44.76
863.325	40.1
863.616	52.46
863.907	56.56
864.198	31.92
864.488	19.09
864.779	13.58
865.07	26.6
865.36	42.8
865.651	40.69
865.941	34.35
866.232	33.53
866.522	31.08
866.813	63.71
867.103	23.81
867.393	44.54
867.683	16.19
867.973	38.76
868.263	21.66
868.553	36.7
868.843	28.53
869.133	18.15
869.423	35.11
869.713	23.71
870.002	37.54
870.292	34.24
870.582	31.31
870.871	34.54
871.161	22.36
871.45	28.88
871.739	12.82
872.029	29.84
872.318	41.26
872.607	22.75
872.896	29.81
873.185	23.31
873.474	25.3
873.763	40.91
874.052	40.14
874.341	28.07
874.63	31.81
874.918	41.36
875.207	36.57
875.496	39.54
875.784	4.15
876.073	21.43
876.361	40.65
876.649	12.52
876.938	53.17
877.226	34.77
877.514	21.35
877.802	31.78
878.09	50.74
878.378	19.93
878.666	32.08
878.954	29.96
879.242	13.78
879.53	17.88
879.817	45.58
880.105	19.03
880.392	35.76
880.68	15.4
880.967	28.72
881.255	13.83
881.542	14.96
881.83	28.88
882.117	48.1
882.404	44.58
882.691	45.65
882.978	53.13
883.265	37.47
883.552	25.6
883.839	36.55
884.126	34.58
884.413	48.3
884.699	44.43
884.986	47.26
885.273	47.8
885.559	47.8
885.846	47.8
