Data from 0025_forehead_Reflection__4__90.txt Node

Date: Thu Oct 20 21:00:34 CDT 2022
User: ToomeyLab
Spectrometer: FLMS14357
Trigger mode: 0
Integration Time (sec): 1.000000E-2
Scans to average: 100
Electric dark correction enabled: true
Nonlinearity correction enabled: false
Boxcar width: 0
XAxis mode: Wavelengths
Number of Pixels in Spectrum: 2048
>>>>>Begin Spectral Data<<<<<
189.047	-50.93
189.435	-50.93
189.823	-50.93
190.211	57.2
190.599	6.15
190.987	912.82
191.375	-144.93
191.763	-193.34
192.151	-67.3
192.538	-726.68
192.926	-153.94
193.314	23.87
193.702	42.6
194.089	269.69
194.477	79.39
194.864	-129.5
195.252	61.9
195.639	87.99
196.027	228.21
196.414	112.35
196.801	20.89
197.189	160.19
197.576	-15.9
197.963	34.84
198.351	-64.63
198.738	19.8
199.125	15.53
199.512	17.19
199.899	10.79
200.286	-5.02
200.673	15.52
201.06	52.31
201.447	8.92
201.833	56.58
202.22	-4.92
202.607	-19.81
202.994	13.73
203.38	-17.09
203.767	23.35
204.154	2.26
204.54	-34.76
204.927	7.85
205.313	12.86
205.699	3.81
206.086	-15.12
206.472	42.48
206.858	0.27
207.245	-4.53
207.631	-57.36
208.017	26.76
208.403	-11.51
208.789	-14.74
209.175	11.41
209.561	-13.51
209.947	-8.47
210.333	-5.25
210.719	-2.07
211.105	-33.79
211.491	-13.79
211.876	25.86
212.262	17.37
212.648	-13.45
213.034	9.43
213.419	-15.29
213.805	-1.76
214.19	-52.71
214.576	-0.68
214.961	0.48
215.346	-40.22
215.732	-42.88
216.117	22.18
216.502	-39.87
216.888	0.67
217.273	24.16
217.658	8.61
218.043	22.98
218.428	-19.75
218.813	-3.91
219.198	19.63
219.583	-7.05
219.968	1.7
220.353	1.83
220.738	5.8
221.122	20.07
221.507	2.53
221.892	-3.25
222.276	4.63
222.661	-13.08
223.046	1.15
223.43	3.39
223.815	-2.13
224.199	16.91
224.583	9.93
224.968	9.36
225.352	8.3
225.736	6.25
226.121	8.02
226.505	4.04
226.889	-1.11
227.273	8.76
227.657	4.8
228.041	0.41
228.425	4.47
228.809	4.2
229.193	1.82
229.577	3.48
229.961	3.59
230.344	2.48
230.728	2.55
231.112	2.42
231.495	1.86
231.879	3.01
232.263	3.16
232.646	2.4
233.03	2.55
233.413	4.82
233.797	1.04
234.18	1.86
234.563	2.91
234.946	2.61
235.33	0.9
235.713	2.15
236.096	2.2
236.479	2.88
236.862	1.43
237.245	1.63
237.628	2.95
238.011	3.41
238.394	1.27
238.777	2.55
239.16	1.83
239.543	0.87
239.925	3.48
240.308	2.38
240.691	2.19
241.073	3.97
241.456	2.64
241.838	3.38
242.221	2.11
242.603	2.33
242.986	2.84
243.368	3.6
243.75	3.2
244.133	2.72
244.515	2.81
244.897	3.18
245.279	3.07
245.661	3.97
246.043	3.02
246.425	3.43
246.807	3.32
247.189	2.74
247.571	2.92
247.953	3.03
248.335	3.6
248.717	3.3
249.098	3.38
249.48	3.54
249.862	3.2
250.243	3.29
250.625	3.18
251.006	4.24
251.388	2.26
251.769	4.23
252.151	4.1
252.532	3.44
252.913	3.46
253.295	3.64
253.676	4.08
254.057	3.43
254.438	3.66
254.819	3.57
255.2	4.59
255.581	3.62
255.962	3.13
256.343	3.15
256.724	3.53
257.105	4.56
257.486	3.65
257.867	3.43
258.247	3.95
258.628	3.93
259.009	3.6
259.389	3.69
259.77	3.37
260.15	3.17
260.531	3.23
260.911	3.37
261.292	3.32
261.672	2.95
262.052	3.29
262.432	3.45
262.813	3.07
263.193	3.54
263.573	3.94
263.953	3.15
264.333	3.15
264.713	4.01
265.093	4.02
265.473	3.16
265.853	3.15
266.233	3.25
266.612	3.31
266.992	2.77
267.372	2.9
267.752	2.95
268.131	2.97
268.511	3.01
268.89	2.84
269.27	2.6
269.649	3.1
270.029	3.07
270.408	2.94
270.787	2.82
271.167	3.02
271.546	2.76
271.925	3.09
272.304	3.64
272.683	3.32
273.062	3.19
273.441	3.58
273.82	3.61
274.199	2.78
274.578	2.77
274.957	2.72
275.336	3.2
275.715	3.49
276.093	3.35
276.472	3.35
276.851	3.04
277.229	2.81
277.608	3.08
277.986	2.71
278.365	3
278.743	2.84
279.122	2.93
279.5	3.36
279.878	3.32
280.257	2.92
280.635	3.65
281.013	2.78
281.391	2.39
281.769	3.02
282.147	3.31
282.525	3.67
282.903	3.38
283.281	3.1
283.659	2.84
284.037	3.62
284.415	3.45
284.792	2.86
285.17	3.09
285.548	3.05
285.925	2.62
286.303	3.33
286.68	3.28
287.058	3.16
287.435	3
287.813	2.84
288.19	3.07
288.567	3.15
288.945	3.02
289.322	3.3
289.699	3.47
290.076	3.12
290.453	3.4
290.83	3.33
291.207	3.01
291.584	3.25
291.961	3.18
292.338	3.58
292.715	3.25
293.092	3.55
293.469	3.69
293.845	3.38
294.222	3.96
294.599	4.06
294.975	4.07
295.352	3.51
295.728	3.42
296.105	4.23
296.481	3.85
296.858	4.48
297.234	3.8
297.61	3.68
297.986	4.24
298.363	4.17
298.739	4.31
299.115	4.13
299.491	4.3
299.867	3.84
300.243	4.29
300.619	4.17
300.995	4.08
301.371	4.29
301.746	4.16
302.122	4.26
302.498	4.63
302.874	3.77
303.249	4.3
303.625	4.21
304	3.91
304.376	4.9
304.751	4.74
305.127	4.35
305.502	4.54
305.878	4.25
306.253	4.12
306.628	4.55
307.003	4.67
307.378	4.68
307.754	4.8
308.129	4.35
308.504	4.85
308.879	5.35
309.254	4.74
309.629	5.3
310.003	4.8
310.378	4.69
310.753	4.79
311.128	5.05
311.502	5.45
311.877	4.77
312.252	5.09
312.626	4.89
313.001	5.34
313.375	5.21
313.75	4.54
314.124	5.04
314.498	5.13
314.873	5.11
315.247	5.56
315.621	5.51
315.995	5.53
316.369	4.93
316.743	5.61
317.117	5.43
317.491	5.43
317.865	5.75
318.239	5.47
318.613	5.51
318.987	5.26
319.361	5.16
319.734	5.46
320.108	5.02
320.482	5.58
320.855	5.98
321.229	5.7
321.602	6.08
321.976	6.17
322.349	5.91
322.723	5.78
323.096	5.72
323.469	6.3
323.843	5.46
324.216	5.48
324.589	5.7
324.962	5.82
325.335	4.87
325.708	6.14
326.081	5.88
326.454	5.53
326.827	5.57
327.2	5.92
327.573	6.09
327.945	5.72
328.318	5.74
328.691	5.87
329.063	5.85
329.436	5.73
329.809	6.78
330.181	5.82
330.553	5.8
330.926	6.08
331.298	5.9
331.671	5.84
332.043	6.26
332.415	6.54
332.787	6.14
333.159	6.24
333.532	6.23
333.904	6.37
334.276	6.01
334.648	5.88
335.02	6.11
335.391	6.02
335.763	6.49
336.135	6.66
336.507	6.08
336.879	6.41
337.25	5.95
337.622	6.09
337.993	5.94
338.365	6.08
338.736	6.19
339.108	6.75
339.479	5.69
339.851	6.3
340.222	6.09
340.593	6.29
340.964	6.66
341.336	6.01
341.707	6.75
342.078	6.54
342.449	6.77
342.82	6.84
343.191	6.84
343.562	6.77
343.933	6.86
344.303	6.43
344.674	6.67
345.045	6.96
345.416	6.5
345.786	6.65
346.157	6.62
346.527	6.34
346.898	6.46
347.268	6.76
347.639	6.15
348.009	7.23
348.38	6.42
348.75	6.76
349.12	6.86
349.49	6.41
349.861	6.45
350.231	6.65
350.601	6.9
350.971	6.87
351.341	6.97
351.711	6.68
352.081	7.29
352.45	7.05
352.82	6.55
353.19	6.81
353.56	6.74
353.929	7.13
354.299	6.51
354.669	6.93
355.038	6.87
355.408	6.67
355.777	6.69
356.147	6.92
356.516	6.82
356.885	7.26
357.254	6.88
357.624	7.16
357.993	7.12
358.362	6.75
358.731	6.91
359.1	6.63
359.469	6.98
359.838	6.9
360.207	6.76
360.576	6.96
360.945	6.68
361.314	7.33
361.682	7.27
362.051	6.95
362.42	7.05
362.788	6.96
363.157	6.99
363.525	6.72
363.894	6.86
364.262	7.02
364.631	6.86
364.999	7.37
365.367	7.03
365.735	7.18
366.104	7.22
366.472	7.23
366.84	7.52
367.208	7.09
367.576	7.35
367.944	7
368.312	7.34
368.68	7.43
369.048	7.34
369.416	7.33
369.783	7.51
370.151	7.4
370.519	7.43
370.886	7.63
371.254	7.42
371.621	7.2
371.989	7.8
372.356	7.8
372.724	7.29
373.091	7.5
373.458	7.41
373.826	7.44
374.193	7.25
374.56	7.5
374.927	7.49
375.294	7.4
375.661	7.23
376.028	7.51
376.395	7.44
376.762	7.89
377.129	7.82
377.496	7.53
377.863	7.54
378.229	7.57
378.596	7.65
378.963	7.46
379.329	7.73
379.696	7.74
380.062	7.76
380.429	8
380.795	7.4
381.161	7.94
381.528	7.97
381.894	7.78
382.26	7.63
382.626	7.8
382.993	7.71
383.359	7.91
383.725	8.02
384.091	8.07
384.457	7.97
384.823	8.2
385.188	7.78
385.554	7.98
385.92	7.85
386.286	8.3
386.651	7.93
387.017	8.09
387.383	8.09
387.748	8.05
388.114	8.1
388.479	8.16
388.845	8.05
389.21	8.1
389.575	8.18
389.94	8.2
390.306	8.18
390.671	8.35
391.036	8.26
391.401	8.58
391.766	8.28
392.131	8.31
392.496	8.33
392.861	8.26
393.226	8.25
393.591	8.47
393.956	8.54
394.32	8.66
394.685	8.53
395.05	8.53
395.414	8.39
395.779	8.51
396.143	8.35
396.508	8.43
396.872	8.48
397.236	8.49
397.601	8.62
397.965	8.69
398.329	8.55
398.694	8.68
399.058	8.68
399.422	8.58
399.786	8.5
400.15	8.76
400.514	8.92
400.878	8.62
401.242	8.57
401.605	8.72
401.969	8.48
402.333	8.92
402.697	8.8
403.06	8.79
403.424	8.95
403.787	8.9
404.151	8.99
404.514	8.84
404.878	8.84
405.241	8.93
405.604	8.82
405.968	8.73
406.331	8.87
406.694	9.01
407.057	8.9
407.42	8.73
407.783	8.85
408.146	8.88
408.509	9.02
408.872	9.09
409.235	9.02
409.598	8.81
409.961	8.95
410.323	8.77
410.686	9.17
411.049	9.21
411.411	9.18
411.774	9.09
412.136	9.2
412.499	9.07
412.861	9.08
413.223	9.34
413.586	9.41
413.948	9.12
414.31	9.02
414.672	9.15
415.035	9.25
415.397	9.21
415.759	9.36
416.121	9.3
416.483	9.21
416.845	9.47
417.206	9.06
417.568	9.29
417.93	9.01
418.292	9.44
418.653	9.31
419.015	9.17
419.377	9.15
419.738	9.27
420.1	9.3
420.461	9.08
420.822	9.18
421.184	9.29
421.545	9.3
421.906	9.18
422.267	9.23
422.629	9.13
422.99	9.14
423.351	9.14
423.712	9.1
424.073	9.27
424.434	9.2
424.795	9.34
425.155	9.31
425.516	9.28
425.877	9.22
426.238	9.28
426.598	9.34
426.959	9.44
427.32	9.32
427.68	9.54
428.041	9.37
428.401	9.53
428.761	9.67
429.122	9.53
429.482	9.58
429.842	9.72
430.202	9.75
430.563	9.71
430.923	9.67
431.283	9.67
431.643	9.68
432.003	9.74
432.363	9.61
432.722	9.72
433.082	9.81
433.442	9.66
433.802	9.91
434.161	9.8
434.521	9.58
434.881	9.73
435.24	9.75
435.6	9.81
435.959	9.69
436.319	9.95
436.678	9.85
437.037	9.96
437.396	9.81
437.756	9.76
438.115	10.04
438.474	9.97
438.833	9.98
439.192	10.18
439.551	10.03
439.91	9.93
440.269	10.03
440.628	10.12
440.987	9.92
441.345	10.09
441.704	10.12
442.063	9.81
442.421	10.01
442.78	10.03
443.138	9.89
443.497	10.1
443.855	10.09
444.214	10.1
444.572	10.11
444.93	10.02
445.288	10.15
445.647	10.18
446.005	10.16
446.363	10.13
446.721	10.11
447.079	10.04
447.437	10.15
447.795	10.13
448.153	10.05
448.51	10.03
448.868	9.99
449.226	9.95
449.584	10.2
449.941	10.28
450.299	10.26
450.656	10.22
451.014	10.28
451.371	10.19
451.729	10.39
452.086	10.47
452.443	10.35
452.801	10.42
453.158	10.6
453.515	10.42
453.872	10.38
454.229	10.34
454.586	10.48
454.943	10.42
455.3	10.4
455.657	10.53
456.014	10.41
456.371	10.42
456.727	10.58
457.084	10.48
457.441	10.75
457.797	10.77
458.154	10.69
458.51	10.67
458.867	10.61
459.223	10.78
459.58	10.68
459.936	10.85
460.292	10.64
460.648	10.75
461.005	10.66
461.361	10.53
461.717	10.49
462.073	10.54
462.429	10.73
462.785	10.53
463.141	10.67
463.496	10.64
463.852	10.67
464.208	10.65
464.564	10.88
464.919	10.75
465.275	10.84
465.631	10.9
465.986	11.22
466.342	10.87
466.697	10.85
467.052	11
467.408	11.11
467.763	10.97
468.118	11.08
468.473	11.03
468.829	11.06
469.184	11.05
469.539	10.93
469.894	11.03
470.249	10.95
470.603	11.04
470.958	11.04
471.313	11.07
471.668	11.1
472.023	10.95
472.377	11.12
472.732	11.02
473.086	11.19
473.441	11.01
473.795	11.32
474.15	11.37
474.504	11.23
474.859	11.2
475.213	11.15
475.567	11.28
475.921	11.23
476.275	11.33
476.63	11.25
476.984	11.41
477.338	11.35
477.692	11.37
478.045	11.15
478.399	11.33
478.753	11.33
479.107	11.37
479.461	11.3
479.814	11.38
480.168	11.38
480.521	11.34
480.875	11.42
481.228	11.58
481.582	11.52
481.935	11.36
482.289	11.51
482.642	11.45
482.995	11.42
483.348	11.48
483.701	11.3
484.055	11.35
484.408	11.29
484.761	11.2
485.114	11.12
485.466	10.99
485.819	10.85
486.172	10.8
486.525	10.93
486.878	11.08
487.23	11.15
487.583	11.32
487.936	11.41
488.288	11.36
488.641	11.25
488.993	11.21
489.345	11.16
489.698	11.14
490.05	11.09
490.402	11.13
490.754	11.24
491.107	11.46
491.459	11.55
491.811	11.54
492.163	11.63
492.515	11.67
492.866	11.48
493.218	11.35
493.57	11.27
493.922	11.36
494.274	11.42
494.625	11.41
494.977	11.68
495.328	11.75
495.68	11.97
496.031	11.97
496.383	11.94
496.734	12.01
497.086	11.95
497.437	11.94
497.788	12.03
498.139	11.89
498.49	11.8
498.842	11.87
499.193	11.85
499.544	11.92
499.894	12.02
500.245	12.06
500.596	11.95
500.947	11.97
501.298	12.06
501.648	12.1
501.999	11.98
502.35	12.37
502.7	12.28
503.051	12.25
503.401	12.24
503.752	12.22
504.102	12.37
504.452	12.39
504.803	12.25
505.153	12.26
505.503	12.24
505.853	12.36
506.203	12.33
506.553	12.3
506.903	12.45
507.253	12.44
507.603	12.28
507.953	12.41
508.303	12.43
508.652	12.39
509.002	12.46
509.352	12.31
509.701	12.61
510.051	12.39
510.4	12.35
510.75	12.4
511.099	12.46
511.449	12.31
511.798	12.47
512.147	12.49
512.496	12.41
512.846	12.6
513.195	12.54
513.544	12.53
513.893	12.51
514.242	12.56
514.591	12.62
514.939	12.66
515.288	12.71
515.637	12.76
515.986	12.84
516.334	12.69
516.683	12.73
517.032	12.79
517.38	12.74
517.729	12.93
518.077	12.91
518.426	12.59
518.774	12.69
519.122	12.81
519.47	12.77
519.819	12.74
520.167	12.66
520.515	12.65
520.863	12.7
521.211	12.62
521.559	12.6
521.907	12.78
522.255	12.74
522.602	12.77
522.95	12.92
523.298	13.05
523.645	13.11
523.993	13.09
524.341	13.02
524.688	13.03
525.036	12.96
525.383	13.13
525.73	12.97
526.078	13.02
526.425	13.15
526.772	12.99
527.119	12.92
527.466	12.93
527.814	12.85
528.161	12.95
528.508	12.86
528.854	12.9
529.201	12.9
529.548	12.91
529.895	12.81
530.242	12.69
530.588	12.59
530.935	12.59
531.282	12.49
531.628	12.64
531.975	12.76
532.321	12.94
532.667	13.02
533.014	13.11
533.36	13.19
533.706	13.21
534.052	13.18
534.399	13.08
534.745	13.11
535.091	13.05
535.437	12.87
535.783	12.94
536.129	13.06
536.474	13.16
536.82	13.28
537.166	13.38
537.512	13.47
537.857	13.4
538.203	13.42
538.549	13.28
538.894	13.35
539.239	13.43
539.585	13.48
539.93	13.6
540.276	13.67
540.621	13.76
540.966	13.68
541.311	13.83
541.656	13.67
542.001	13.64
542.346	13.57
542.691	13.43
543.036	13.33
543.381	13.22
543.726	13.28
544.071	13.29
544.415	13.45
544.76	13.52
545.105	13.49
545.449	13.62
545.794	13.72
546.138	13.55
546.483	13.73
546.827	13.89
547.171	13.9
547.516	13.78
547.86	13.82
548.204	14
548.548	13.76
548.892	13.79
549.236	13.97
549.58	13.86
549.924	14.06
550.268	14.03
550.612	14.27
550.956	14.19
551.3	14.34
551.643	14.33
551.987	14.24
552.33	14.26
552.674	14.26
553.017	14.37
553.361	14.23
553.704	14.55
554.048	14.36
554.391	14.34
554.734	14.36
555.077	14.19
555.42	14.49
555.764	14.48
556.107	14.41
556.45	14.62
556.793	14.5
557.135	14.55
557.478	14.57
557.821	14.66
558.164	14.68
558.507	14.66
558.849	14.53
559.192	14.47
559.534	14.64
559.877	14.76
560.219	14.58
560.562	14.74
560.904	14.8
561.246	14.8
561.589	14.8
561.931	14.88
562.273	14.71
562.615	14.87
562.957	14.86
563.299	14.69
563.641	14.79
563.983	14.79
564.325	14.83
564.667	14.77
565.008	14.86
565.35	15.07
565.692	14.88
566.033	15
566.375	14.91
566.716	14.97
567.058	15.15
567.399	14.96
567.741	14.91
568.082	14.77
568.423	14.94
568.764	14.73
569.105	14.96
569.447	15.12
569.788	15.06
570.129	15.17
570.47	14.95
570.811	15.14
571.151	15.2
571.492	15.21
571.833	15.12
572.174	15.12
572.514	15.39
572.855	14.98
573.195	15.37
573.536	15.13
573.876	15.12
574.217	15.1
574.557	15.21
574.898	15.2
575.238	15.01
575.578	15.02
575.918	15.3
576.258	15.13
576.598	15.2
576.938	15.46
577.278	15.19
577.618	15.19
577.958	15.47
578.298	15.31
578.638	15.45
578.977	15.65
579.317	15.53
579.657	15.51
579.996	15.57
580.336	15.54
580.675	15.4
581.014	15.66
581.354	15.72
581.693	15.57
582.032	15.73
582.372	15.55
582.711	15.57
583.05	15.74
583.389	15.44
583.728	15.87
584.067	15.64
584.406	16.13
584.745	15.64
585.083	15.84
585.422	15.94
585.761	16.03
586.1	15.88
586.438	16.03
586.777	15.93
587.115	15.66
587.454	15.93
587.792	16.27
588.13	16.03
588.469	16
588.807	16.09
589.145	16.05
589.483	15.93
589.821	15.84
590.159	15.97
590.497	15.88
590.835	16.15
591.173	16.14
591.511	15.9
591.849	16.2
592.187	16.17
592.524	16.25
592.862	16.21
593.2	16.14
593.537	16.18
593.875	16.4
594.212	16.2
594.55	16.43
594.887	16.35
595.224	16.24
595.561	16.21
595.899	16.07
596.236	16.28
596.573	16.47
596.91	16.41
597.247	16.46
597.584	16.19
597.921	16.54
598.258	16.46
598.594	16.5
598.931	16.4
599.268	16.06
599.604	16.51
599.941	16.38
600.277	16.27
600.614	16.44
600.95	16.57
601.287	16.84
601.623	16.52
601.959	16.6
602.296	16.66
602.632	16.49
602.968	16.46
603.304	16.72
603.64	16.7
603.976	16.64
604.312	16.66
604.648	16.76
604.984	16.76
605.319	16.78
605.655	16.54
605.991	16.8
606.326	16.74
606.662	16.47
606.998	16.69
607.333	16.36
607.668	16.77
608.004	16.93
608.339	16.65
608.674	16.7
609.01	16.9
609.345	16.99
609.68	17.05
610.015	17.02
610.35	17.1
610.685	17.06
611.02	16.95
611.355	17.03
611.689	16.73
612.024	17
612.359	16.8
612.694	16.9
613.028	17.19
613.363	17.16
613.697	17.25
614.032	16.97
614.366	17.07
614.7	17.04
615.035	17
615.369	16.75
615.703	17.24
616.037	17.02
616.371	17.16
616.705	17.45
617.039	17.55
617.373	17.38
617.707	17.05
618.041	17.66
618.375	17.19
618.709	17.7
619.042	17.65
619.376	17.48
619.71	17.48
620.043	17.41
620.377	17.68
620.71	17.34
621.043	17.23
621.377	17.57
621.71	17.47
622.043	17.7
622.376	17.42
622.709	17.65
623.043	17.28
623.376	17.33
623.709	17.62
624.041	17.67
624.374	17.41
624.707	17.58
625.04	17.7
625.373	17.72
625.705	17.65
626.038	17.66
626.37	17.86
626.703	17.63
627.035	17.62
627.368	17.64
627.7	17.81
628.032	17.91
628.365	18.03
628.697	17.81
629.029	17.8
629.361	17.85
629.693	17.95
630.025	18.03
630.357	17.94
630.689	17.95
631.021	17.65
631.353	17.72
631.684	17.93
632.016	17.98
632.348	18.19
632.679	18.04
633.011	17.9
633.342	17.82
633.674	18.65
634.005	17.9
634.336	18.29
634.668	17.81
634.999	18.33
635.33	18.1
635.661	18.42
635.992	18.23
636.323	18.38
636.654	18.01
636.985	17.88
637.316	18
637.647	18.33
637.977	18.34
638.308	18.32
638.639	18
638.969	18.39
639.3	17.98
639.63	18.32
639.961	18.1
640.291	18.18
640.622	18.42
640.952	18.92
641.282	18.39
641.612	18.13
641.943	18.88
642.273	18.5
642.603	18.61
642.933	18.54
643.263	18.73
643.592	18.18
643.922	18.64
644.252	18.48
644.582	18.71
644.911	18.6
645.241	18.87
645.571	18.53
645.9	18.19
646.23	18.7
646.559	18.39
646.888	18.78
647.218	18.61
647.547	18.66
647.876	18.37
648.205	18.87
648.534	18.66
648.863	18.29
649.192	18.79
649.521	19.11
649.85	19.08
650.179	18.74
650.508	18.64
650.837	18.75
651.165	18.63
651.494	18.82
651.822	19.09
652.151	19.13
652.479	19.15
652.808	18.96
653.136	18.92
653.465	19.11
653.793	19.06
654.121	19.38
654.449	18.99
654.777	19.23
655.105	19.18
655.433	19.16
655.761	18.96
656.089	18.71
656.417	19.22
656.745	19.22
657.073	19.55
657.4	19.09
657.728	19.04
658.056	18.69
658.383	19.59
658.711	19.45
659.038	19.27
659.365	19.19
659.693	19.08
660.02	19.22
660.347	19.55
660.674	19.37
661.001	19.4
661.329	19.31
661.656	18.93
661.982	19.32
662.309	19.16
662.636	19.23
662.963	19.46
663.29	19.51
663.616	19.59
663.943	19.75
664.27	20.03
664.596	19.08
664.923	19.12
665.249	19.22
665.576	19.61
665.902	19.6
666.228	19.56
666.554	19.27
666.881	20.4
667.207	18.96
667.533	19.83
667.859	19.34
668.185	19.74
668.511	19.07
668.837	19.56
669.162	19.41
669.488	19.66
669.814	19.47
670.139	19.08
670.465	19.78
670.791	19.54
671.116	19.8
671.442	19.13
671.767	20.27
672.092	19.99
672.418	19.98
672.743	20.12
673.068	19.9
673.393	20.36
673.718	20.12
674.043	19.31
674.368	20.89
674.693	19.99
675.018	19.96
675.343	20.02
675.667	20.32
675.992	19.99
676.317	20.49
676.641	20.95
676.966	19.59
677.29	19.92
677.615	19.92
677.939	20.35
678.264	20.18
678.588	20.85
678.912	19.61
679.236	19.89
679.56	20.21
679.885	19.78
680.209	19.91
680.532	20.13
680.856	20.18
681.18	19.96
681.504	19.93
681.828	20.49
682.152	20.2
682.475	20.58
682.799	19.79
683.122	20.22
683.446	20.29
683.769	20.65
684.093	20.13
684.416	20.85
684.739	20.49
685.062	20.12
685.386	19.67
685.709	19.83
686.032	20.39
686.355	20.06
686.678	20.85
687.001	20.75
687.324	20.47
687.646	20.14
687.969	20.82
688.292	20.8
688.614	20.67
688.937	21.05
689.26	20.64
689.582	20.6
689.904	20.83
690.227	20.62
690.549	20.74
690.871	21.17
691.194	20.62
691.516	20.21
691.838	20.39
692.16	20.97
692.482	20.1
692.804	20.74
693.126	20.36
693.448	21.27
693.769	20.64
694.091	21.13
694.413	20.98
694.735	21.56
695.056	20.68
695.378	20.83
695.699	20.67
696.021	21.77
696.342	20.24
696.663	21.33
696.984	20.8
697.306	20.69
697.627	21.19
697.948	20.22
698.269	20.58
698.59	20.94
698.911	21.36
699.232	21.5
699.553	21.34
699.873	20.97
700.194	21.37
700.515	21.42
700.835	21.19
701.156	20.93
701.477	21.09
701.797	21.15
702.117	21.58
702.438	21.69
702.758	21.34
703.078	21.46
703.398	21.71
703.719	22.12
704.039	21.4
704.359	20.76
704.679	21.62
704.999	21.68
705.319	21.18
705.638	21.33
705.958	20.99
706.278	21.74
706.597	21.68
706.917	21.64
707.237	21.75
707.556	22.15
707.876	22.2
708.195	21.28
708.514	21.39
708.834	20.88
709.153	21.34
709.472	21.6
709.791	21.32
710.11	21.38
710.429	21.16
710.748	21.87
711.067	21.25
711.386	22.22
711.705	22
712.023	21.4
712.342	21.95
712.661	21.46
712.979	22.22
713.298	22.01
713.616	22.09
713.935	21.36
714.253	22.35
714.572	22.11
714.89	20.85
715.208	22.43
715.526	23.09
715.844	21.82
716.162	21.69
716.48	21.94
716.798	22.04
717.116	21.89
717.434	22.15
717.752	22.68
718.069	21.74
718.387	21.67
718.705	21.6
719.022	21.98
719.34	21.9
719.657	21.24
719.975	22.31
720.292	23.02
720.609	22.18
720.927	22.93
721.244	22.26
721.561	22.56
721.878	22.88
722.195	21.79
722.512	21.73
722.829	22.06
723.146	22.94
723.463	22.48
723.779	22.18
724.096	21.47
724.413	22.13
724.729	22.12
725.046	21.21
725.362	21.65
725.679	22.16
725.995	21.62
726.311	23.26
726.628	22.49
726.944	22.59
727.26	21.7
727.576	21.78
727.892	21.85
728.208	22.25
728.524	23.37
728.84	23.38
729.156	22.62
729.472	21.99
729.787	24.34
730.103	23.62
730.419	22.49
730.734	23.28
731.05	22.85
731.365	22.44
731.681	22.92
731.996	22.33
732.311	22.55
732.626	23.64
732.942	22.72
733.257	22.25
733.572	23.34
733.887	21.98
734.202	21.76
734.517	22.46
734.832	22.84
735.146	22.59
735.461	22.48
735.776	22.82
736.091	23.42
736.405	23.61
736.72	23.22
737.034	23.73
737.349	22.58
737.663	22.04
737.977	23.72
738.292	21.16
738.606	21.55
738.92	22.32
739.234	22.8
739.548	22.4
739.862	21.84
740.176	23.26
740.49	23.23
740.804	21.74
741.117	23.55
741.431	21.16
741.745	21.79
742.058	23.18
742.372	22.99
742.685	22.56
742.999	22.72
743.312	22.4
743.626	22.68
743.939	23.51
744.252	24.24
744.565	24.47
744.878	25.01
745.191	20.89
745.505	21.89
745.817	25.01
746.13	23.37
746.443	24.36
746.756	23.35
747.069	22.14
747.381	23.17
747.694	23.63
748.007	23.12
748.319	22.99
748.632	24.06
748.944	23.68
749.256	21.91
749.569	23.91
749.881	23.02
750.193	23.82
750.505	23.67
750.817	25.14
751.129	23.05
751.441	23.15
751.753	24.39
752.065	23.51
752.377	24.07
752.689	23.21
753	24.12
753.312	24.43
753.624	24.93
753.935	23.53
754.247	23.62
754.558	22.45
754.869	22.69
755.181	24.1
755.492	23.32
755.803	24.51
756.114	22.95
756.425	24.18
756.736	24.44
757.047	22.61
757.358	23.41
757.669	21.46
757.98	24.44
758.291	24.18
758.601	25.56
758.912	23.56
759.223	23.71
759.533	25.61
759.844	23.97
760.154	24.46
760.464	25.58
760.775	23.53
761.085	22.84
761.395	23.87
761.705	24.15
762.016	24.65
762.326	22.91
762.636	24.2
762.945	22.61
763.255	22.6
763.565	23.13
763.875	23.61
764.185	25.86
764.494	23.72
764.804	24.08
765.113	24.37
765.423	23.38
765.732	24.27
766.042	23.95
766.351	24.31
766.66	24.96
766.97	25.79
767.279	23.97
767.588	25.48
767.897	24.41
768.206	23.2
768.515	23.17
768.824	24.54
769.133	23.04
769.441	23.52
769.75	22.51
770.059	24.82
770.367	24.23
770.676	22.55
770.984	27.14
771.293	23.02
771.601	23.35
771.91	26.35
772.218	22.04
772.526	25.36
772.834	25.66
773.142	23.95
773.45	22.33
773.758	24.29
774.066	21.88
774.374	26.52
774.682	23.4
774.99	24
775.298	23.27
775.605	25.1
775.913	23.1
776.22	26.3
776.528	28.01
776.835	26.05
777.143	25.76
777.45	22.21
777.757	23.65
778.065	22.74
778.372	23.44
778.679	25.08
778.986	23.28
779.293	22.48
779.6	23.13
779.907	25.08
780.214	28.58
780.52	28.79
780.827	25.8
781.134	24.83
781.44	22.55
781.747	26.78
782.053	24.31
782.36	24.85
782.666	26.15
782.973	24.57
783.279	22.75
783.585	25.37
783.891	25.55
784.197	22.95
784.503	26.68
784.809	27.73
785.115	24.69
785.421	25.45
785.727	21.08
786.033	23.54
786.339	22.71
786.644	24.27
786.95	26.72
787.255	24.43
787.561	23.33
787.866	27.43
788.172	22.38
788.477	25.26
788.782	23.87
789.088	26.82
789.393	25.25
789.698	22.2
790.003	24.71
790.308	25.06
790.613	24.86
790.918	25.93
791.223	26.49
791.527	24.38
791.832	24.71
792.137	24.1
792.441	25.09
792.746	26.49
793.05	25.98
793.355	20.15
793.659	24.88
793.963	28.15
794.268	26.18
794.572	26.41
794.876	23.66
795.18	23.42
795.484	25.39
795.788	23.82
796.092	26.38
796.396	25.37
796.7	20.39
797.004	26.61
797.307	23.46
797.611	22.32
797.915	29.97
798.218	22.38
798.522	25.06
798.825	23.17
799.128	24.83
799.432	24.69
799.735	24.73
800.038	22.96
800.341	27.88
800.644	25.14
800.947	25.4
801.25	24.67
801.553	22.98
801.856	26.78
802.159	25.64
802.462	24.27
802.764	28.03
803.067	23.7
803.37	22.95
803.672	22.86
803.975	27.81
804.277	27.25
804.579	24.83
804.882	24.26
805.184	26.81
805.486	23.9
805.788	23
806.09	22.05
806.392	26.68
806.694	26.55
806.996	23.75
807.298	22.13
807.6	27.94
807.902	24.01
808.203	19.57
808.505	19.32
808.807	28.25
809.108	29.55
809.409	19.73
809.711	21.07
810.012	20.42
810.313	23.54
810.615	19.68
810.916	27.59
811.217	26.17
811.518	29.65
811.819	29.3
812.12	26.13
812.421	30.32
812.722	27.79
813.023	24.31
813.323	29.15
813.624	32.25
813.925	20.28
814.225	25.09
814.526	25.28
814.826	26.57
815.126	28.73
815.427	26.79
815.727	21.22
816.027	24.2
816.327	28.2
816.627	27
816.927	25.09
817.227	27.59
817.527	24.91
817.827	25.59
818.127	31.42
818.427	31.75
818.727	29.85
819.026	29.26
819.326	25.57
819.625	24.37
819.925	25.87
820.224	25.43
820.524	32.79
820.823	24.8
821.122	30.08
821.421	22.29
821.72	23.91
822.019	27.77
822.318	26.58
822.617	25.26
822.916	25.86
823.215	28.18
823.514	31.65
823.813	25.83
824.111	27.28
824.41	27.85
824.709	27.31
825.007	28.41
825.306	28.24
825.604	27.85
825.902	28.2
826.201	28.58
826.499	27.16
826.797	28.32
827.095	27.36
827.393	28.83
827.691	28.43
827.989	27.44
828.287	27.7
828.585	25.1
828.882	28.25
829.18	26.46
829.478	27.45
829.775	29.85
830.073	28.23
830.37	30.04
830.668	26.84
830.965	28.03
831.263	27.65
831.56	26.7
831.857	24.34
832.154	26.56
832.451	28.55
832.748	25.93
833.045	22.51
833.342	26.48
833.639	26.62
833.936	31.89
834.232	24.43
834.529	24.01
834.826	27.61
835.122	28.99
835.419	29.75
835.715	27.9
836.012	25.72
836.308	27.52
836.604	28.41
836.901	28.2
837.197	27.21
837.493	28.63
837.789	25.95
838.085	27.44
838.381	27.28
838.677	24.85
838.972	29.52
839.268	27.36
839.564	30.09
839.86	21.23
840.155	31.09
840.451	16.06
840.746	24.44
841.042	28.27
841.337	20.23
841.632	24.11
841.928	21.92
842.223	29.25
842.518	28.81
842.813	31.35
843.108	24.56
843.403	28.46
843.698	28.09
843.993	22.4
844.287	27.61
844.582	26.19
844.877	19.51
845.171	31.57
845.466	17.9
845.761	21.23
846.055	21.43
846.349	28.68
846.644	32.97
846.938	25.16
847.232	22.71
847.526	25.11
847.82	26.21
848.114	16.81
848.408	32.75
848.702	26.7
848.996	24.68
849.29	37.28
849.584	25.68
849.877	19.14
850.171	28.19
850.465	12.65
850.758	15.42
851.052	22.17
851.345	9.67
851.638	28.88
851.932	24.03
852.225	13.76
852.518	11.58
852.811	7.98
853.104	23.8
853.397	26.91
853.69	33.34
853.983	30.05
854.276	9.4
854.569	24.11
854.861	12.39
855.154	26.23
855.447	19.99
855.739	32.71
856.032	28.88
856.324	22.17
856.616	32.77
856.909	25.16
857.201	17.93
857.493	20.39
857.785	21.91
858.077	20.1
858.369	30.62
858.661	35.96
858.953	39.44
859.245	20.88
859.537	12.05
859.829	5.75
860.12	14.68
860.412	25.26
860.703	6.34
860.995	24.49
861.286	7.79
861.578	17.9
861.869	22.44
862.16	20.73
862.452	25.46
862.743	35.11
863.034	34.41
863.325	7.34
863.616	30.61
863.907	25.6
864.198	16.63
864.488	33.78
864.779	-6.67
865.07	35.07
865.36	24.59
865.651	27.92
865.941	27.8
866.232	25.27
866.522	22.88
866.813	27.46
867.103	26.08
867.393	26.31
867.683	9.44
867.973	43.82
868.263	22.7
868.553	45.05
868.843	29.97
869.133	23.96
869.423	29.33
869.713	23.68
870.002	11.57
870.292	22.05
870.582	29.58
870.871	24.95
871.161	9.24
871.45	14.14
871.739	2.19
872.029	3.89
872.318	17.69
872.607	1.24
872.896	-10.52
873.185	4.97
873.474	28.94
873.763	31.71
874.052	29.83
874.341	18.47
874.63	23.83
874.918	16.83
875.207	24.74
875.496	12.3
875.784	1.89
876.073	23.6
876.361	38.16
876.649	-6.05
876.938	22.34
877.226	44.37
877.514	19.68
877.802	21.86
878.09	15.12
878.378	19.56
878.666	49.82
878.954	27.15
879.242	30.22
879.53	21.04
879.817	30.15
880.105	21.15
880.392	23.71
880.68	46.98
880.967	25.91
881.255	8.26
881.542	19.15
881.83	35.43
882.117	13.8
882.404	32.16
882.691	39.85
882.978	22.89
883.265	25.87
883.552	14.28
883.839	37.33
884.126	18.83
884.413	32.98
884.699	23.96
884.986	30.13
885.273	33.84
885.559	33.84
885.846	33.84
