Data from 0025_forehead_Reflection__1__87.txt Node

Date: Thu Oct 20 21:00:04 CDT 2022
User: ToomeyLab
Spectrometer: FLMS14357
Trigger mode: 0
Integration Time (sec): 1.000000E-2
Scans to average: 100
Electric dark correction enabled: true
Nonlinearity correction enabled: false
Boxcar width: 0
XAxis mode: Wavelengths
Number of Pixels in Spectrum: 2048
>>>>>Begin Spectral Data<<<<<
189.047	297.47
189.435	297.47
189.823	297.47
190.211	97.74
190.599	76.05
190.987	974.07
191.375	61.86
191.763	-97.89
192.151	10.95
192.538	399.77
192.926	-30.84
193.314	0.17
193.702	65.79
194.089	210.79
194.477	13.28
194.864	-18.01
195.252	37.43
195.639	141.9
196.027	47.46
196.414	-437.86
196.801	-31.79
197.189	-186.81
197.576	58.91
197.963	1.23
198.351	5.69
198.738	1.14
199.125	35.31
199.512	11.9
199.899	3.94
200.286	12.73
200.673	39.47
201.06	43.84
201.447	30.09
201.833	76.21
202.22	31.98
202.607	-7.03
202.994	55.75
203.38	-32.68
203.767	-4.1
204.154	-24.67
204.54	36.59
204.927	35.18
205.313	18.14
205.699	-21.61
206.086	0.65
206.472	2.19
206.858	8.52
207.245	23.41
207.631	-40.81
208.017	13.76
208.403	8.95
208.789	-9.94
209.175	-32.8
209.561	13.52
209.947	-18.32
210.333	36.24
210.719	41.97
211.105	31.43
211.491	18.91
211.876	14.89
212.262	19.06
212.648	-36.82
213.034	7.16
213.419	-1.64
213.805	11.61
214.19	-4.1
214.576	11.79
214.961	39.58
215.346	2.84
215.732	-0.69
216.117	21.5
216.502	-41.94
216.888	16.35
217.273	24.84
217.658	-9.86
218.043	10.94
218.428	1.91
218.813	10.97
219.198	20.14
219.583	-25.57
219.968	20.3
220.353	8.58
220.738	10.01
221.122	18.16
221.507	7.11
221.892	-5.82
222.276	-1.29
222.661	0.15
223.046	14.24
223.43	8.03
223.815	-2.61
224.199	1.93
224.583	5.48
224.968	3.05
225.352	14.45
225.736	18.01
226.121	8.16
226.505	1.78
226.889	2.36
227.273	9.86
227.657	3.79
228.041	1.83
228.425	2.57
228.809	3.91
229.193	0.94
229.577	2.11
229.961	1.35
230.344	2.14
230.728	2.33
231.112	2.38
231.495	3.12
231.879	2.55
232.263	2.78
232.646	1.41
233.03	0.8
233.413	1.38
233.797	2.14
234.18	2.67
234.563	2.38
234.946	2
235.33	1.4
235.713	0.77
236.096	1.61
236.479	2.08
236.862	0.62
237.245	2.1
237.628	1.63
238.011	2.01
238.394	2.62
238.777	1.06
239.16	1.21
239.543	1.79
239.925	3.52
240.308	2.79
240.691	1.18
241.073	1.87
241.456	1.66
241.838	1.58
242.221	1.86
242.603	0.87
242.986	1.69
243.368	2.31
243.75	1.95
244.133	1.83
244.515	1.7
244.897	2.65
245.279	2.91
245.661	2.81
246.043	2.88
246.425	2.09
246.807	2.08
247.189	1.93
247.571	2.18
247.953	1.87
248.335	2.32
248.717	2.28
249.098	2.3
249.48	2.3
249.862	1.91
250.243	2.19
250.625	2.14
251.006	2.39
251.388	1.37
251.769	3.34
252.151	3.01
252.532	2.03
252.913	2.17
253.295	2.17
253.676	2.62
254.057	1.88
254.438	2.54
254.819	2.28
255.2	3.18
255.581	3.21
255.962	2.34
256.343	2.63
256.724	2.74
257.105	3.99
257.486	2.58
257.867	2.92
258.247	3.21
258.628	1.43
259.009	2.47
259.389	3.32
259.77	2.6
260.15	2.06
260.531	1.97
260.911	2.16
261.292	1.99
261.672	1.93
262.052	2.2
262.432	2.57
262.813	2.06
263.193	2.2
263.573	2.05
263.953	1.67
264.333	2.44
264.713	2.95
265.093	2.16
265.473	2.12
265.853	2.36
266.233	2.1
266.612	2.09
266.992	1.19
267.372	1.83
267.752	2.67
268.131	2.34
268.511	2.06
268.89	1.65
269.27	1.87
269.649	2.53
270.029	2.37
270.408	1.5
270.787	1.82
271.167	1.93
271.546	1.92
271.925	2.19
272.304	2.29
272.683	1.72
273.062	1.88
273.441	1.91
273.82	2.11
274.199	1.67
274.578	1.95
274.957	1.86
275.336	2
275.715	2.29
276.093	2.74
276.472	2.01
276.851	2.13
277.229	2.27
277.608	2.24
277.986	2.05
278.365	2.11
278.743	2.26
279.122	2.19
279.5	1.53
279.878	2.56
280.257	1.75
280.635	2.66
281.013	1.58
281.391	1.73
281.769	2.31
282.147	2.05
282.525	1.7
282.903	2.26
283.281	2.35
283.659	1.8
284.037	2.42
284.415	2.16
284.792	1.59
285.17	2.64
285.548	2.24
285.925	1.9
286.303	2.21
286.68	2.55
287.058	2.2
287.435	2.16
287.813	2.19
288.19	1.92
288.567	2.3
288.945	2.36
289.322	1.92
289.699	2.4
290.076	2.03
290.453	2.48
290.83	2.33
291.207	2.13
291.584	2.49
291.961	2.24
292.338	2.81
292.715	2.76
293.092	2.62
293.469	2.44
293.845	2.22
294.222	2.54
294.599	2.9
294.975	2.99
295.352	2.56
295.728	2.71
296.105	2.81
296.481	3.04
296.858	3.19
297.234	2.46
297.61	2.87
297.986	2.77
298.363	2.91
298.739	2.97
299.115	3.04
299.491	2.87
299.867	2.88
300.243	2.77
300.619	3.28
300.995	3.09
301.371	3.02
301.746	2.93
302.122	3.78
302.498	3.21
302.874	3.5
303.249	3.07
303.625	3.48
304	3.37
304.376	4.12
304.751	3.37
305.127	3.38
305.502	3.26
305.878	3.48
306.253	3.03
306.628	3.59
307.003	3.8
307.378	3.4
307.754	3.69
308.129	3.87
308.504	3.79
308.879	4.36
309.254	3.44
309.629	3.63
310.003	3.36
310.378	3.59
310.753	3.39
311.128	3.48
311.502	4.12
311.877	3.16
312.252	3.72
312.626	3.88
313.001	3.3
313.375	3.59
313.75	3.59
314.124	3.85
314.498	3.85
314.873	3.83
315.247	3.34
315.621	3.82
315.995	4.09
316.369	3.62
316.743	4.31
317.117	4.02
317.491	3.97
317.865	3.89
318.239	3.8
318.613	3.75
318.987	3.26
319.361	3.75
319.734	4.03
320.108	3.4
320.482	4.25
320.855	4.09
321.229	4.15
321.602	4.37
321.976	4.41
322.349	4.15
322.723	4.39
323.096	4.3
323.469	4.17
323.843	3.77
324.216	3.83
324.589	3.77
324.962	4.58
325.335	3.86
325.708	4.45
326.081	4.07
326.454	4
326.827	3.88
327.2	4.2
327.573	4.24
327.945	4.26
328.318	4.3
328.691	4.91
329.063	4.06
329.436	4.3
329.809	4.16
330.181	4.25
330.553	3.86
330.926	4.51
331.298	4.08
331.671	3.66
332.043	4.49
332.415	4.58
332.787	4.13
333.159	3.95
333.532	4.39
333.904	4.44
334.276	4.13
334.648	4.24
335.02	4.21
335.391	4.04
335.763	4.35
336.135	4.67
336.507	4.91
336.879	4.52
337.25	4.5
337.622	4.17
337.993	3.96
338.365	4.2
338.736	4.55
339.108	4.63
339.479	4
339.851	4.71
340.222	4.28
340.593	4.54
340.964	5.23
341.336	4.71
341.707	4.63
342.078	4.58
342.449	4.61
342.82	4.65
343.191	5.18
343.562	5.04
343.933	4.92
344.303	4.66
344.674	5.02
345.045	5.08
345.416	4.39
345.786	4.56
346.157	4.84
346.527	4.31
346.898	4.51
347.268	4.84
347.639	4.67
348.009	5.19
348.38	4.32
348.75	5.42
349.12	4.61
349.49	4.2
349.861	5.16
350.231	4.77
350.601	4.96
350.971	5.1
351.341	4.79
351.711	4.52
352.081	4.62
352.45	5.12
352.82	4.82
353.19	4.65
353.56	5.09
353.929	5.07
354.299	4.48
354.669	4.67
355.038	4.58
355.408	4.4
355.777	4.82
356.147	5.12
356.516	4.47
356.885	5.19
357.254	4.95
357.624	5.16
357.993	5.09
358.362	4.65
358.731	4.84
359.1	4.62
359.469	4.69
359.838	4.92
360.207	4.95
360.576	4.9
360.945	4.72
361.314	4.98
361.682	5.16
362.051	4.88
362.42	4.88
362.788	4.52
363.157	4.92
363.525	4.63
363.894	4.96
364.262	4.74
364.631	5.04
364.999	5.07
365.367	5.05
365.735	5.34
366.104	4.91
366.472	5.14
366.84	5.29
367.208	4.9
367.576	5.35
367.944	4.82
368.312	4.94
368.68	5.01
369.048	5.21
369.416	5.26
369.783	4.98
370.151	5.24
370.519	5.29
370.886	5.48
371.254	5.48
371.621	5.3
371.989	5.61
372.356	5.06
372.724	5.29
373.091	5
373.458	5.12
373.826	5.46
374.193	5.22
374.56	5.33
374.927	5.12
375.294	5.43
375.661	5.28
376.028	5.38
376.395	5
376.762	5.63
377.129	5.14
377.496	5.39
377.863	5.21
378.229	5.92
378.596	5.48
378.963	5.27
379.329	5.78
379.696	5.33
380.062	5.88
380.429	5.64
380.795	5.5
381.161	5.86
381.528	6.01
381.894	5.58
382.26	5.34
382.626	5.76
382.993	5.79
383.359	5.62
383.725	5.99
384.091	6.06
384.457	5.75
384.823	5.57
385.188	5.74
385.554	5.9
385.92	5.67
386.286	6.09
386.651	5.74
387.017	5.95
387.383	5.93
387.748	6.16
388.114	6.18
388.479	5.95
388.845	5.93
389.21	5.79
389.575	6.28
389.94	6.05
390.306	6.18
390.671	6.34
391.036	6.11
391.401	6.72
391.766	6.09
392.131	6.15
392.496	6.35
392.861	6.23
393.226	6.34
393.591	6.4
393.956	6.41
394.32	6.57
394.685	6.59
395.05	6.53
395.414	6.53
395.779	6.45
396.143	6.48
396.508	6.79
396.872	6.55
397.236	6.55
397.601	6.77
397.965	6.98
398.329	6.79
398.694	6.76
399.058	6.83
399.422	6.53
399.786	6.7
400.15	6.76
400.514	6.81
400.878	6.97
401.242	6.9
401.605	6.94
401.969	6.94
402.333	7.26
402.697	6.95
403.06	6.73
403.424	6.86
403.787	7.24
404.151	7.12
404.514	7.28
404.878	6.95
405.241	6.97
405.604	7.04
405.968	6.82
406.331	7.2
406.694	7.04
407.057	7.04
407.42	6.85
407.783	6.89
408.146	7.37
408.509	7.18
408.872	7.28
409.235	7.24
409.598	7.14
409.961	7.09
410.323	7.02
410.686	7.17
411.049	7.2
411.411	7.44
411.774	7.2
412.136	7.26
412.499	7.32
412.861	7.17
413.223	7.3
413.586	7.62
413.948	7.3
414.31	7.22
414.672	7.24
415.035	7.37
415.397	7.41
415.759	7.41
416.121	7.35
416.483	7.15
416.845	7.24
417.206	7.1
417.568	7.38
417.93	7.3
418.292	7.37
418.653	7.31
419.015	7.25
419.377	7.14
419.738	7.3
420.1	7.28
420.461	7.14
420.822	7.05
421.184	7.16
421.545	7.28
421.906	7.06
422.267	7.12
422.629	7.05
422.99	7.12
423.351	7.2
423.712	7.18
424.073	7.23
424.434	7.18
424.795	7.27
425.155	7.06
425.516	7.22
425.877	7.31
426.238	7.36
426.598	7.26
426.959	7.54
427.32	7.36
427.68	7.52
428.041	7.43
428.401	7.47
428.761	7.59
429.122	7.57
429.482	7.57
429.842	7.52
430.202	7.77
430.563	7.63
430.923	7.55
431.283	7.6
431.643	7.61
432.003	7.84
432.363	7.45
432.722	7.49
433.082	7.55
433.442	7.4
433.802	7.58
434.161	7.55
434.521	7.5
434.881	7.46
435.24	7.53
435.6	7.71
435.959	7.66
436.319	7.63
436.678	7.73
437.037	7.84
437.396	7.64
437.756	7.66
438.115	7.83
438.474	7.69
438.833	7.67
439.192	7.83
439.551	7.72
439.91	7.75
440.269	7.69
440.628	7.73
440.987	7.62
441.345	7.67
441.704	7.64
442.063	7.6
442.421	7.72
442.78	7.79
443.138	7.72
443.497	7.77
443.855	7.85
444.214	7.96
444.572	8.05
444.93	7.89
445.288	7.84
445.647	7.73
446.005	7.83
446.363	7.73
446.721	7.76
447.079	7.82
447.437	7.76
447.795	7.75
448.153	7.72
448.51	7.82
448.868	7.85
449.226	7.86
449.584	7.98
449.941	8.06
450.299	7.99
450.656	8
451.014	8.11
451.371	7.87
451.729	8
452.086	8.05
452.443	8.07
452.801	8.14
453.158	8.28
453.515	7.98
453.872	8.06
454.229	8.11
454.586	8.18
454.943	8.14
455.3	8.36
455.657	8.19
456.014	7.97
456.371	8.2
456.727	8.28
457.084	8.18
457.441	8.3
457.797	8.11
458.154	8.12
458.51	8.28
458.867	8.25
459.223	8.18
459.58	8.36
459.936	8.28
460.292	8.15
460.648	8.19
461.005	8.19
461.361	8.07
461.717	8.15
462.073	8.11
462.429	8.32
462.785	8.36
463.141	8.5
463.496	8.43
463.852	8.27
464.208	8.6
464.564	8.39
464.919	8.22
465.275	8.53
465.631	8.58
465.986	8.5
466.342	8.47
466.697	8.58
467.052	8.57
467.408	8.57
467.763	8.58
468.118	8.66
468.473	8.44
468.829	8.7
469.184	8.87
469.539	8.56
469.894	8.52
470.249	8.7
470.603	8.7
470.958	8.85
471.313	8.63
471.668	8.66
472.023	8.63
472.377	8.67
472.732	8.79
473.086	8.67
473.441	8.66
473.795	8.69
474.15	8.79
474.504	8.66
474.859	8.48
475.213	8.73
475.567	8.74
475.921	8.74
476.275	8.84
476.63	8.69
476.984	8.91
477.338	8.87
477.692	8.9
478.045	8.71
478.399	8.7
478.753	8.78
479.107	8.95
479.461	8.84
479.814	8.76
480.168	8.85
480.521	8.98
480.875	9
481.228	8.96
481.582	9.08
481.935	8.84
482.289	8.91
482.642	8.99
482.995	9.03
483.348	8.93
483.701	8.74
484.055	8.77
484.408	8.65
484.761	8.41
485.114	8.3
485.466	8.34
485.819	8.49
486.172	8.66
486.525	8.77
486.878	8.93
487.23	8.93
487.583	8.96
487.936	8.87
488.288	8.71
488.641	8.64
488.993	8.58
489.345	8.63
489.698	8.75
490.05	8.82
490.402	8.88
490.754	9
491.107	9.16
491.459	9.24
491.811	9.22
492.163	9.07
492.515	8.92
492.866	8.81
493.218	8.73
493.57	8.95
493.922	9.1
494.274	9.17
494.625	9.3
494.977	9.42
495.328	9.45
495.68	9.48
496.031	9.58
496.383	9.49
496.734	9.53
497.086	9.49
497.437	9.46
497.788	9.46
498.139	9.29
498.49	9.33
498.842	9.35
499.193	9.47
499.544	9.47
499.894	9.39
500.245	9.49
500.596	9.65
500.947	9.68
501.298	9.73
501.648	9.72
501.999	9.62
502.35	9.74
502.7	9.72
503.051	9.87
503.401	9.69
503.752	9.76
504.102	9.91
504.452	9.93
504.803	9.83
505.153	9.86
505.503	9.88
505.853	9.88
506.203	9.9
506.553	9.82
506.903	9.99
507.253	9.98
507.603	9.84
507.953	9.93
508.303	9.95
508.652	10.06
509.002	10.03
509.352	9.89
509.701	10.12
510.051	9.94
510.4	9.96
510.75	9.98
511.099	10.06
511.449	10.06
511.798	9.92
512.147	10.01
512.496	10.01
512.846	10.12
513.195	10.24
513.544	10
513.893	10.04
514.242	10.1
514.591	10.24
514.939	10.17
515.288	10.23
515.637	10.12
515.986	10.24
516.334	10.25
516.683	10.37
517.032	10.34
517.38	10.22
517.729	10.27
518.077	10.39
518.426	10.21
518.774	10.27
519.122	10.22
519.47	10.16
519.819	10.11
520.167	10.09
520.515	10.17
520.863	10.28
521.211	10.33
521.559	10.51
521.907	10.41
522.255	10.41
522.602	10.51
522.95	10.5
523.298	10.58
523.645	10.49
523.993	10.58
524.341	10.55
524.688	10.69
525.036	10.5
525.383	10.62
525.73	10.62
526.078	10.41
526.425	10.58
526.772	10.43
527.119	10.36
527.466	10.42
527.814	10.51
528.161	10.64
528.508	10.59
528.854	10.44
529.201	10.42
529.548	10.1
529.895	10.04
530.242	10
530.588	10.18
530.935	10.39
531.282	10.42
531.628	10.57
531.975	10.65
532.321	10.74
532.667	10.7
533.014	10.73
533.36	10.78
533.706	10.69
534.052	10.65
534.399	10.47
534.745	10.38
535.091	10.5
535.437	10.58
535.783	10.75
536.129	10.81
536.474	10.88
536.82	10.93
537.166	10.89
537.512	10.87
537.857	10.74
538.203	10.84
538.549	10.99
538.894	10.99
539.239	11.06
539.585	11.25
539.93	11.18
540.276	11.24
540.621	11.22
540.966	11.2
541.311	11.16
541.656	10.92
542.001	10.83
542.346	10.73
542.691	10.51
543.036	10.61
543.381	10.74
543.726	10.85
544.071	11
544.415	11.07
544.76	11
545.105	11.07
545.449	11.18
545.794	11.23
546.138	11.24
546.483	11.17
546.827	11.3
547.171	11.15
547.516	11.19
547.86	11.19
548.204	11.23
548.548	11.22
548.892	11.28
549.236	11.46
549.58	11.46
549.924	11.5
550.268	11.59
550.612	11.59
550.956	11.7
551.3	11.81
551.643	11.75
551.987	11.55
552.33	11.59
552.674	11.67
553.017	11.65
553.361	11.61
553.704	11.65
554.048	11.43
554.391	11.49
554.734	11.46
555.077	11.5
555.42	11.74
555.764	11.74
556.107	11.62
556.45	11.66
556.793	11.78
557.135	11.72
557.478	11.83
557.821	11.78
558.164	11.9
558.507	11.92
558.849	11.61
559.192	11.68
559.534	11.79
559.877	11.78
560.219	11.99
560.562	11.83
560.904	11.64
561.246	11.87
561.589	11.79
561.931	12.06
562.273	11.87
562.615	11.75
562.957	11.95
563.299	11.83
563.641	12
563.983	11.9
564.325	11.99
564.667	11.87
565.008	11.85
565.35	12.08
565.692	11.89
566.033	11.9
566.375	11.87
566.716	11.81
567.058	11.91
567.399	11.87
567.741	11.69
568.082	11.71
568.423	11.82
568.764	11.76
569.105	12.04
569.447	12.25
569.788	12.18
570.129	11.96
570.47	11.86
570.811	11.99
571.151	11.98
571.492	11.93
571.833	11.86
572.174	11.89
572.514	11.93
572.855	11.82
573.195	12
573.536	11.72
573.876	12.01
574.217	11.96
574.557	11.95
574.898	12.08
575.238	11.97
575.578	11.93
575.918	12.02
576.258	12.09
576.598	11.89
576.938	12.06
577.278	11.96
577.618	12.12
577.958	12.1
578.298	12.07
578.638	12.03
578.977	12.19
579.317	12.24
579.657	12.08
579.996	12.11
580.336	12.19
580.675	12.07
581.014	12.23
581.354	12.15
581.693	12.12
582.032	12.2
582.372	12.22
582.711	12.15
583.05	12.35
583.389	12.12
583.728	12.53
584.067	12.31
584.406	12.53
584.745	12.33
585.083	12.09
585.422	12.45
585.761	12.44
586.1	12.33
586.438	12.37
586.777	12.34
587.115	12.4
587.454	12.42
587.792	12.77
588.13	12.4
588.469	12.45
588.807	12.58
589.145	12.61
589.483	12.49
589.821	12.4
590.159	12.12
590.497	12.44
590.835	12.41
591.173	12.18
591.511	12.33
591.849	12.46
592.187	12.19
592.524	12.54
592.862	12.44
593.2	12.46
593.537	12.63
593.875	12.67
594.212	12.37
594.55	12.56
594.887	12.46
595.224	12.44
595.561	12.45
595.899	12.43
596.236	12.54
596.573	12.62
596.91	12.69
597.247	12.63
597.584	12.53
597.921	12.43
598.258	12.41
598.594	12.37
598.931	12.41
599.268	12.36
599.604	12.61
599.941	12.6
600.277	12.54
600.614	12.79
600.95	12.82
601.287	13.04
601.623	12.75
601.959	12.66
602.296	12.75
602.632	12.79
602.968	12.41
603.304	12.9
603.64	12.71
603.976	12.74
604.312	12.8
604.648	12.5
604.984	12.61
605.319	12.68
605.655	12.37
605.991	12.47
606.326	12.59
606.662	12.42
606.998	12.66
607.333	12.52
607.668	12.65
608.004	12.82
608.339	12.66
608.674	12.81
609.01	12.56
609.345	12.84
609.68	12.87
610.015	12.55
610.35	12.59
610.685	12.51
611.02	12.54
611.355	12.81
611.689	12.51
612.024	12.82
612.359	12.68
612.694	12.96
613.028	13.47
613.363	13.21
613.697	13.14
614.032	13
614.366	13.07
614.7	12.66
615.035	12.98
615.369	12.79
615.703	12.98
616.037	13.11
616.371	13.06
616.705	12.76
617.039	12.94
617.373	12.77
617.707	12.96
618.041	13.08
618.375	12.74
618.709	13.12
619.042	13.03
619.376	13.11
619.71	13.16
620.043	12.54
620.377	13.05
620.71	13.03
621.043	13.33
621.377	13.2
621.71	13.18
622.043	13.13
622.376	13.04
622.709	13.41
623.043	13.13
623.376	13.15
623.709	13.24
624.041	13.42
624.374	13.33
624.707	13.11
625.04	13.07
625.373	13.19
625.705	13.3
626.038	13.31
626.37	12.99
626.703	13.27
627.035	12.88
627.368	13.06
627.7	13.12
628.032	13.18
628.365	13.24
628.697	13.27
629.029	13.49
629.361	13.31
629.693	13.54
630.025	13.41
630.357	13.39
630.689	13.45
631.021	12.95
631.353	13.33
631.684	13.37
632.016	13.28
632.348	13.69
632.679	13.31
633.011	13.45
633.342	13.34
633.674	13.8
634.005	13.67
634.336	13.69
634.668	13.31
634.999	13.47
635.33	13.72
635.661	13.77
635.992	13.71
636.323	13.53
636.654	13.5
636.985	13.59
637.316	13.62
637.647	14.01
637.977	13.6
638.308	13.45
638.639	13.38
638.969	13.45
639.3	13.31
639.63	13.84
639.961	13.33
640.291	13.3
640.622	13.64
640.952	13.91
641.282	13.99
641.612	13.7
641.943	13.96
642.273	13.97
642.603	13.67
642.933	13.96
643.263	14.1
643.592	13.47
643.922	13.81
644.252	13.69
644.582	14.05
644.911	13.96
645.241	14.3
645.571	13.8
645.9	13.52
646.23	14.27
646.559	13.79
646.888	14.28
647.218	14.13
647.547	13.67
647.876	14.32
648.205	14.1
648.534	13.67
648.863	14.12
649.192	14.15
649.521	14.04
649.85	14.48
650.179	14.22
650.508	14.48
650.837	13.99
651.165	14.25
651.494	14.48
651.822	13.88
652.151	14.51
652.479	14.12
652.808	14.58
653.136	13.84
653.465	14.16
653.793	14.03
654.121	14.22
654.449	14.28
654.777	14.2
655.105	14.44
655.433	14.1
655.761	14.26
656.089	14.56
656.417	13.99
656.745	13.89
657.073	14.21
657.4	14.31
657.728	14.21
658.056	14.32
658.383	14.77
658.711	14.43
659.038	14.56
659.365	14.52
659.693	13.72
660.02	14.37
660.347	14.33
660.674	14.09
661.001	14.39
661.329	14.28
661.656	14.21
661.982	14.19
662.309	14.45
662.636	14.49
662.963	14.48
663.29	14.48
663.616	14.68
663.943	14.47
664.27	14.62
664.596	14.39
664.923	14.31
665.249	13.94
665.576	14.82
665.902	14.11
666.228	14.49
666.554	14.84
666.881	14.2
667.207	14.22
667.533	14.87
667.859	13.94
668.185	14.61
668.511	13.8
668.837	14.67
669.162	14.28
669.488	14.21
669.814	14.57
670.139	13.99
670.465	14.81
670.791	14.51
671.116	14.62
671.442	14.2
671.767	14.81
672.092	14.56
672.418	14.88
672.743	14.78
673.068	14.55
673.393	15.08
673.718	14.64
674.043	14.35
674.368	14.69
674.693	14.94
675.018	14.77
675.343	15.15
675.667	15.07
675.992	14.65
676.317	13.85
676.641	14.96
676.966	14.32
677.29	14.55
677.615	14.67
677.939	14.45
678.264	14.24
678.588	15.26
678.912	13.98
679.236	14.51
679.56	14.1
679.885	14.86
680.209	14.74
680.532	14.96
680.856	14.47
681.18	14.44
681.504	14.94
681.828	14.73
682.152	14.91
682.475	14.72
682.799	13.87
683.122	14.43
683.446	14.89
683.769	15.41
684.093	14.68
684.416	14.9
684.739	15.42
685.062	14.55
685.386	14.71
685.709	14.96
686.032	14.56
686.355	14.7
686.678	14.56
687.001	15.57
687.324	14.87
687.646	15.23
687.969	15.58
688.292	15.48
688.614	15.16
688.937	15.48
689.26	15.49
689.582	15.47
689.904	15.15
690.227	15.5
690.549	15
690.871	15.3
691.194	15.66
691.516	15.55
691.838	15.51
692.16	15.43
692.482	15.16
692.804	15.01
693.126	14.85
693.448	16.52
693.769	15.12
694.091	15.68
694.413	16.09
694.735	15.39
695.056	14.94
695.378	15.89
695.699	15.03
696.021	16.01
696.342	14.98
696.663	15.76
696.984	15.32
697.306	14.96
697.627	15.53
697.948	15.91
698.269	15.82
698.59	15.36
698.911	15.32
699.232	15.93
699.553	15.41
699.873	15.4
700.194	15.54
700.515	15.71
700.835	15.66
701.156	15.94
701.477	15.84
701.797	15.54
702.117	16.28
702.438	16.02
702.758	16.06
703.078	15.55
703.398	15.59
703.719	17.15
704.039	16.85
704.359	14.65
704.679	16.32
704.999	17.13
705.319	15.88
705.638	16.34
705.958	15.53
706.278	16.33
706.597	16.39
706.917	16.67
707.237	16.89
707.556	16.96
707.876	17.33
708.195	15.6
708.514	16.6
708.834	15.83
709.153	15.51
709.472	16.4
709.791	17.26
710.11	16.78
710.429	16.31
710.748	17.59
711.067	16.26
711.386	16.02
711.705	16.66
712.023	16.75
712.342	16.89
712.661	16.66
712.979	17.37
713.298	17.38
713.616	16.5
713.935	16.11
714.253	17.05
714.572	16.07
714.89	16.27
715.208	16.86
715.526	17.39
715.844	16.9
716.162	17.33
716.48	16.67
716.798	16.54
717.116	17.24
717.434	17.15
717.752	17.26
718.069	16.62
718.387	16.85
718.705	17.19
719.022	16.96
719.34	17.57
719.657	16.98
719.975	16.69
720.292	18.47
720.609	16.1
720.927	17.85
721.244	17.21
721.561	17.19
721.878	17.9
722.195	16.76
722.512	17.4
722.829	17.87
723.146	16.94
723.463	17.73
723.779	16.97
724.096	17.47
724.413	16.22
724.729	17.18
725.046	16.6
725.362	17.61
725.679	19.27
725.995	17.33
726.311	18.1
726.628	15.91
726.944	16.55
727.26	17.49
727.576	16.07
727.892	18.11
728.208	17.78
728.524	16.67
728.84	16.88
729.156	18.14
729.472	16.25
729.787	18.08
730.103	17.19
730.419	17.41
730.734	17.57
731.05	16.93
731.365	17.74
731.681	17.08
731.996	16.88
732.311	17.39
732.626	18.06
732.942	18.92
733.257	17.58
733.572	17.14
733.887	17.58
734.202	16.5
734.517	17.97
734.832	17.95
735.146	17.46
735.461	18.37
735.776	17.76
736.091	17.93
736.405	18.32
736.72	17.41
737.034	17.63
737.349	19.7
737.663	17.57
737.977	16.52
738.292	17.22
738.606	17.15
738.92	18.31
739.234	17.34
739.548	17.16
739.862	18.19
740.176	17.73
740.49	16.65
740.804	17.86
741.117	18.62
741.431	17.66
741.745	17.34
742.058	17.6
742.372	17.21
742.685	18.18
742.999	17.65
743.312	19.25
743.626	17.93
743.939	17.4
744.252	18.12
744.565	19.21
744.878	17.69
745.191	19.34
745.505	16.99
745.817	18.44
746.13	18.23
746.443	20.09
746.756	17.06
747.069	17.8
747.381	17.81
747.694	19.21
748.007	18.45
748.319	18.69
748.632	19.84
748.944	17.47
749.256	16.85
749.569	18.55
749.881	18
750.193	20.73
750.505	18.41
750.817	18.42
751.129	18.78
751.441	17.07
751.753	19.8
752.065	17.07
752.377	21.5
752.689	19.1
753	20.24
753.312	19.48
753.624	18.9
753.935	18.69
754.247	18.69
754.558	20.39
754.869	17.87
755.181	19.44
755.492	17.92
755.803	19.7
756.114	18.56
756.425	18.85
756.736	19.44
757.047	18.08
757.358	18.37
757.669	17.59
757.98	20.29
758.291	19.91
758.601	20.05
758.912	19.08
759.223	19.06
759.533	19.11
759.844	18
760.154	19.58
760.464	18.5
760.775	20.4
761.085	17.43
761.395	19.2
761.705	18.3
762.016	19.1
762.326	19.63
762.636	20.37
762.945	20.09
763.255	18.43
763.565	17.4
763.875	18.71
764.185	19.58
764.494	20.13
764.804	19.21
765.113	19.85
765.423	18.95
765.732	19.36
766.042	19.1
766.351	19.6
766.66	17.89
766.97	20.29
767.279	20.73
767.588	20.08
767.897	20.65
768.206	18.99
768.515	19.52
768.824	18.35
769.133	19.61
769.441	19.64
769.75	20.6
770.059	19.45
770.367	19.83
770.676	17.38
770.984	20.46
771.293	19.66
771.601	17.87
771.91	19.55
772.218	19.31
772.526	20.5
772.834	20.7
773.142	17.78
773.45	18.46
773.758	21.75
774.066	17.67
774.374	20.37
774.682	20.77
774.99	22.28
775.298	20.17
775.605	19.68
775.913	19.25
776.22	20.98
776.528	22.68
776.835	21.61
777.143	18.85
777.45	17.71
777.757	18.03
778.065	20.97
778.372	20.28
778.679	17.89
778.986	22.06
779.293	18.13
779.6	17.7
779.907	22.05
780.214	21.85
780.52	22.24
780.827	19.81
781.134	22.18
781.44	21.23
781.747	19.23
782.053	19.39
782.36	18.89
782.666	18.95
782.973	21.05
783.279	18.66
783.585	21.92
783.891	21.83
784.197	17.68
784.503	19.85
784.809	20.49
785.115	19.6
785.421	20.69
785.727	20.65
786.033	17.67
786.339	19.18
786.644	21.1
786.95	23.2
787.255	19.59
787.561	17.11
787.866	20.49
788.172	16.27
788.477	21.67
788.782	19.58
789.088	24.75
789.393	20.98
789.698	18.85
790.003	17.46
790.308	22.63
790.613	21.38
790.918	20.69
791.223	23.34
791.527	19.85
791.832	21.6
792.137	20.93
792.441	21.68
792.746	23.85
793.05	19.96
793.355	18.79
793.659	22.16
793.963	26.66
794.268	20.08
794.572	24.37
794.876	23.3
795.18	22.21
795.484	17.72
795.788	19.45
796.092	22.25
796.396	24.6
796.7	21.16
797.004	19.29
797.307	21.68
797.611	18.93
797.915	24.84
798.218	23.79
798.522	21.52
798.825	19.82
799.128	19.21
799.432	19.8
799.735	19.61
800.038	18.12
800.341	22.47
800.644	22.12
800.947	19.83
801.25	20.56
801.553	19.23
801.856	21.62
802.159	19.81
802.462	20.2
802.764	26.22
803.067	18.21
803.37	26.23
803.672	22.78
803.975	23.12
804.277	24.84
804.579	18.7
804.882	20.91
805.184	20.04
805.486	20.99
805.788	26.46
806.09	18.72
806.392	22.46
806.694	25.69
806.996	24.98
807.298	20.05
807.6	20.23
807.902	20.25
808.203	19.53
808.505	16.76
808.807	22.41
809.108	24.3
809.409	19.8
809.711	17.95
810.012	21.73
810.313	23.04
810.615	16.98
810.916	20.81
811.217	19.77
811.518	21.95
811.819	21.22
812.12	20.15
812.421	25.64
812.722	21.53
813.023	21.24
813.323	25.66
813.624	20.68
813.925	16.68
814.225	23.76
814.526	21.84
814.826	16.85
815.126	22.09
815.427	25.08
815.727	23.01
816.027	30.31
816.327	27.49
816.627	30.03
816.927	23.72
817.227	19.04
817.527	22.2
817.827	22.9
818.127	25.37
818.427	28.15
818.727	23.83
819.026	23.23
819.326	24.62
819.625	21.53
819.925	21.38
820.224	20.34
820.524	21.48
820.823	19.98
821.122	28.98
821.421	21.57
821.72	24.86
822.019	23.43
822.318	21.87
822.617	25.21
822.916	20.85
823.215	18.37
823.514	24.74
823.813	20.47
824.111	23.21
824.41	21.8
824.709	22.76
825.007	22.83
825.306	22.28
825.604	22.83
825.902	22.5
826.201	22.62
826.499	22.24
826.797	24.04
827.095	24.79
827.393	23.67
827.691	23.79
827.989	23.54
828.287	23.68
828.585	22.77
828.882	23.16
829.18	24.44
829.478	22.04
829.775	24.27
830.073	23.76
830.37	25.22
830.668	24.77
830.965	23.74
831.263	25.51
831.56	22.98
831.857	22.27
832.154	19.82
832.451	28.29
832.748	20.74
833.045	19.96
833.342	24.84
833.639	20.35
833.936	27.16
834.232	21.6
834.529	17.34
834.826	21.97
835.122	25.05
835.419	23.95
835.715	25.54
836.012	21.86
836.308	22.14
836.604	24.99
836.901	24.68
837.197	20.85
837.493	22.18
837.789	23.33
838.085	19.87
838.381	25.15
838.677	22.57
838.972	23.71
839.268	27.12
839.564	22.2
839.86	24.69
840.155	20.25
840.451	3.78
840.746	21.63
841.042	20.82
841.337	17.82
841.632	23.74
841.928	18.98
842.223	24.07
842.518	23.63
842.813	26.55
843.108	17.61
843.403	24.29
843.698	24.74
843.993	11.79
844.287	18.82
844.582	17.98
844.877	18.86
845.171	32.62
845.466	13
845.761	23.59
846.055	21.33
846.349	25.07
846.644	16.79
846.938	17.64
847.232	26.4
847.526	25.38
847.82	21.77
848.114	18.5
848.408	24.22
848.702	23.26
848.996	31.13
849.29	33.83
849.584	20.48
849.877	20.79
850.171	24.87
850.465	11.55
850.758	1.32
851.052	21.36
851.345	18.96
851.638	16.4
851.932	25.23
852.225	-0.49
852.518	18.98
852.811	14.29
853.104	24.38
853.397	20.46
853.69	39.54
853.983	28.64
854.276	8.37
854.569	16.2
854.861	3.17
855.154	30.87
855.447	33.08
855.739	43.09
856.032	26.99
856.324	17.67
856.616	23.72
856.909	6.91
857.201	36.45
857.493	24.24
857.785	15.53
858.077	33.43
858.369	9.36
858.661	18.42
858.953	31.32
859.245	24.09
859.537	16.78
859.829	8.46
860.12	13.86
860.412	22.37
860.703	18.95
860.995	31.97
861.286	22.21
861.578	29.3
861.869	28.32
862.16	20.55
862.452	1.99
862.743	35.41
863.034	24.73
863.325	10.47
863.616	18.21
863.907	33.6
864.198	15.08
864.488	10.69
864.779	-16.63
865.07	37.5
865.36	34.54
865.651	22.97
865.941	25.72
866.232	26.1
866.522	31.38
866.813	32.03
867.103	25.92
867.393	37.68
867.683	20.69
867.973	29.53
868.263	36.56
868.553	46.71
868.843	25
869.133	27.65
869.423	19.87
869.713	6.26
870.002	11.25
870.292	26.9
870.582	17.95
870.871	14.17
871.161	34.48
871.45	17.8
871.739	34.82
872.029	34.85
872.318	12.32
872.607	9.18
872.896	19.33
873.185	23.18
873.474	8.87
873.763	41.47
874.052	34.36
874.341	28.08
874.63	38.85
874.918	36.74
875.207	18.62
875.496	23.23
875.784	39.24
876.073	41.01
876.361	30.74
876.649	-8.61
876.938	39.46
877.226	31.68
877.514	43.34
877.802	24.63
878.09	22.02
878.378	3.78
878.666	30.59
878.954	37.59
879.242	18.06
879.53	12.27
879.817	27.27
880.105	14.92
880.392	41.34
880.68	49.52
880.967	29.33
881.255	18.23
881.542	18.26
881.83	17.65
882.117	32.39
882.404	27.91
882.691	38.68
882.978	24.55
883.265	19.59
883.552	30.56
883.839	24.62
884.126	18.95
884.413	36.24
884.699	22.97
884.986	29.95
885.273	31.07
885.559	31.07
885.846	31.07
