Data from 1897-2_forehead_Reflection__0__06.txt Node

Date: Fri Sep 30 17:47:02 CDT 2022
User: ToomeyLab
Spectrometer: FLMS14357
Trigger mode: 0
Integration Time (sec): 1.000000E-2
Scans to average: 100
Electric dark correction enabled: true
Nonlinearity correction enabled: false
Boxcar width: 0
XAxis mode: Wavelengths
Number of Pixels in Spectrum: 2048
>>>>>Begin Spectral Data<<<<<
189.047	78.44
189.435	78.44
189.823	78.44
190.211	64.92
190.599	-45.94
190.987	109.49
191.375	673.89
191.763	-11.35
192.151	142
192.538	-105.22
192.926	315.69
193.314	-24.14
193.702	24.88
194.089	24.4
194.477	-102.39
194.864	278.69
195.252	-2804.31
195.639	-331.78
196.027	-21.96
196.414	29.27
196.801	81.34
197.189	82.15
197.576	148.68
197.963	-13.86
198.351	-3.97
198.738	-17.44
199.125	67.52
199.512	49.62
199.899	20.44
200.286	0.04
200.673	69.21
201.06	58.6
201.447	56.7
201.833	73.34
202.22	29.16
202.607	77.39
202.994	51.87
203.38	16.96
203.767	27.31
204.154	44.53
204.54	47.66
204.927	57.95
205.313	22.22
205.699	91.41
206.086	39.14
206.472	18.4
206.858	42.92
207.245	17.17
207.631	17.08
208.017	4.27
208.403	27.61
208.789	90.37
209.175	19.98
209.561	-10
209.947	3.04
210.333	-18.49
210.719	34.37
211.105	11.27
211.491	26.21
211.876	41.07
212.262	28.33
212.648	42.23
213.034	28.07
213.419	33.17
213.805	6.95
214.19	26.82
214.576	29.84
214.961	23.98
215.346	23.67
215.732	22.9
216.117	7.25
216.502	29.55
216.888	26.21
217.273	2.46
217.658	20.97
218.043	5.85
218.428	21.67
218.813	42.14
219.198	21.22
219.583	38.37
219.968	29.34
220.353	27.36
220.738	16.81
221.122	28.99
221.507	12.34
221.892	14.16
222.276	13
222.661	20.26
223.046	1.84
223.43	5.17
223.815	12.5
224.199	4.27
224.583	5.7
224.968	10.07
225.352	9.65
225.736	15.11
226.121	14.07
226.505	2.47
226.889	15.56
227.273	3.85
227.657	12.57
228.041	4.33
228.425	11.03
228.809	5.7
229.193	6.84
229.577	1.81
229.961	4.66
230.344	3.56
230.728	3.14
231.112	4.03
231.495	3.73
231.879	5.87
232.263	4.31
232.646	2.84
233.03	4.9
233.413	4.77
233.797	3.62
234.18	4.59
234.563	6.15
234.946	4.96
235.33	3.14
235.713	5.61
236.096	5.55
236.479	4.11
236.862	2.98
237.245	6.12
237.628	4.4
238.011	5.31
238.394	4.81
238.777	3.25
239.16	1.81
239.543	4.31
239.925	3.71
240.308	3.94
240.691	5.9
241.073	4.3
241.456	4.18
241.838	3.74
242.221	3.62
242.603	3.93
242.986	4.27
243.368	2.31
243.75	3.15
244.133	3.87
244.515	3.17
244.897	3.3
245.279	4.09
245.661	4.43
246.043	4.69
246.425	2.73
246.807	4.49
247.189	3.94
247.571	3.89
247.953	3.45
248.335	3.27
248.717	3.18
249.098	3.14
249.48	3.4
249.862	3.32
250.243	3.54
250.625	4.16
251.006	3.92
251.388	3.09
251.769	4.23
252.151	3.77
252.532	3.96
252.913	3.72
253.295	4.51
253.676	3.47
254.057	4.2
254.438	3.17
254.819	4.55
255.2	3.88
255.581	5.08
255.962	5.01
256.343	4.83
256.724	5.24
257.105	4.58
257.486	4.02
257.867	4.83
258.247	3.85
258.628	4.68
259.009	5.02
259.389	3.65
259.77	3.66
260.15	3.46
260.531	3.84
260.911	3.84
261.292	3.22
261.672	3.37
262.052	2.99
262.432	3.31
262.813	4.03
263.193	3.45
263.573	4.09
263.953	3.14
264.333	4.55
264.713	3.24
265.093	3.7
265.473	4.01
265.853	3.33
266.233	3.53
266.612	4.3
266.992	3.27
267.372	3.76
267.752	3.18
268.131	3.91
268.511	3.75
268.89	3.24
269.27	3.71
269.649	3.86
270.029	3.66
270.408	3.75
270.787	3.86
271.167	3.1
271.546	3.56
271.925	3.98
272.304	3.72
272.683	3.18
273.062	3.42
273.441	2.94
273.82	3.18
274.199	3.48
274.578	3.34
274.957	3.75
275.336	3.35
275.715	3.66
276.093	3.49
276.472	3.42
276.851	3.85
277.229	3.37
277.608	3.63
277.986	3.04
278.365	3.57
278.743	3.05
279.122	3.37
279.5	4.03
279.878	3.25
280.257	3.01
280.635	3.71
281.013	4.58
281.391	3.54
281.769	3.77
282.147	3.26
282.525	3.63
282.903	3.41
283.281	3.47
283.659	3.34
284.037	3.16
284.415	3.37
284.792	3.62
285.17	2.9
285.548	2.92
285.925	3.85
286.303	3.09
286.68	3.32
287.058	3.25
287.435	3.09
287.813	3.6
288.19	3.48
288.567	3.24
288.945	3.1
289.322	3.33
289.699	3.69
290.076	3.25
290.453	3.69
290.83	3.66
291.207	3.69
291.584	3.01
291.961	3.54
292.338	3.58
292.715	4.1
293.092	3.29
293.469	3.97
293.845	3.93
294.222	4.07
294.599	4.44
294.975	3.82
295.352	4.38
295.728	4.19
296.105	3.86
296.481	4.24
296.858	4.08
297.234	4.31
297.61	4.08
297.986	3.73
298.363	3.97
298.739	3.74
299.115	3.83
299.491	3.87
299.867	3.79
300.243	3.98
300.619	3.87
300.995	5.01
301.371	4.62
301.746	4.42
302.122	4.48
302.498	4.1
302.874	4.73
303.249	4.53
303.625	5.05
304	4.81
304.376	4.83
304.751	4.87
305.127	4.57
305.502	4.48
305.878	4.92
306.253	4.34
306.628	4.85
307.003	4.65
307.378	4.71
307.754	4.95
308.129	5.33
308.504	4.91
308.879	5.77
309.254	5.23
309.629	5.21
310.003	4.66
310.378	4.84
310.753	5.27
311.128	5.22
311.502	5.85
311.877	6.05
312.252	5.68
312.626	5.81
313.001	5.61
313.375	5.61
313.75	5.75
314.124	5.85
314.498	6.04
314.873	6.02
315.247	6.01
315.621	6.54
315.995	7.07
316.369	5.96
316.743	6.22
317.117	7.28
317.491	7.49
317.865	7.51
318.239	7.21
318.613	6.68
318.987	6.55
319.361	6.52
319.734	6.87
320.108	6.96
320.482	6.76
320.855	7.2
321.229	7.33
321.602	6.95
321.976	7
322.349	7.61
322.723	6.86
323.096	7.44
323.469	7.75
323.843	7.13
324.216	7.54
324.589	8.19
324.962	7.72
325.335	7.48
325.708	7.74
326.081	8.13
326.454	8.49
326.827	7.8
327.2	8.06
327.573	7.86
327.945	8.1
328.318	7.64
328.691	8.22
329.063	8.15
329.436	7.39
329.809	8.61
330.181	8.23
330.553	8.28
330.926	8.71
331.298	8.19
331.671	8.81
332.043	8.14
332.415	8.25
332.787	9.02
333.159	8.78
333.532	9.08
333.904	8.97
334.276	8.79
334.648	8.94
335.02	9.04
335.391	9.3
335.763	8.93
336.135	8.82
336.507	8.94
336.879	8.81
337.25	8.8
337.622	9.58
337.993	9.16
338.365	9.03
338.736	9.43
339.108	9.25
339.479	9.98
339.851	9.18
340.222	9.78
340.593	9.53
340.964	9.26
341.336	9.74
341.707	9.5
342.078	10.19
342.449	9.53
342.82	9.78
343.191	9.98
343.562	9.4
343.933	9.48
344.303	10.28
344.674	10.2
345.045	9.86
345.416	10.46
345.786	10.05
346.157	10.78
346.527	10.28
346.898	10.5
347.268	10.22
347.639	10.13
348.009	10.09
348.38	10.86
348.75	11.22
349.12	11.06
349.49	11.09
349.861	10.44
350.231	10.77
350.601	11.01
350.971	10.73
351.341	10.92
351.711	10.98
352.081	10.91
352.45	10.91
352.82	11.03
353.19	11.34
353.56	11.27
353.929	10.92
354.299	11.24
354.669	11.2
355.038	11.38
355.408	11.56
355.777	11.41
356.147	11.41
356.516	11.67
356.885	11.24
357.254	11.39
357.624	11.61
357.993	11.35
358.362	11.35
358.731	11.63
359.1	11.61
359.469	11.58
359.838	11.95
360.207	11.98
360.576	12.01
360.945	12.12
361.314	12.04
361.682	11.83
362.051	11.99
362.42	12.24
362.788	12.17
363.157	12.18
363.525	11.92
363.894	12.26
364.262	12.3
364.631	12.57
364.999	12.47
365.367	12.99
365.735	12.48
366.104	12.28
366.472	12.76
366.84	12.75
367.208	12.78
367.576	13.35
367.944	12.84
368.312	12.97
368.68	12.57
369.048	12.97
369.416	13.13
369.783	13.22
370.151	13.18
370.519	13.31
370.886	13.52
371.254	13.25
371.621	13.33
371.989	13.3
372.356	13.8
372.724	13.67
373.091	13.35
373.458	13.47
373.826	13.58
374.193	14.24
374.56	14.07
374.927	14.4
375.294	14.23
375.661	13.88
376.028	13.8
376.395	14.34
376.762	13.9
377.129	14.59
377.496	14.51
377.863	14.12
378.229	14.6
378.596	14.2
378.963	14.5
379.329	14.29
379.696	14.7
380.062	14.72
380.429	14.37
380.795	14.23
381.161	14.16
381.528	14.41
381.894	14.6
382.26	15.07
382.626	14.78
382.993	14.69
383.359	14.87
383.725	14.64
384.091	15.28
384.457	15.26
384.823	15.25
385.188	15.34
385.554	15.42
385.92	15.31
386.286	15.31
386.651	15.57
387.017	15.23
387.383	15.25
387.748	15.31
388.114	15.75
388.479	15.57
388.845	15.77
389.21	15.75
389.575	16.05
389.94	15.75
390.306	15.8
390.671	15.83
391.036	16.03
391.401	15.82
391.766	16.25
392.131	16.18
392.496	15.95
392.861	16.11
393.226	16.18
393.591	16.26
393.956	16.5
394.32	16.4
394.685	16.14
395.05	16.46
395.414	16.48
395.779	16.35
396.143	16.65
396.508	16.47
396.872	16.68
397.236	16.69
397.601	16.7
397.965	16.68
398.329	16.5
398.694	16.87
399.058	16.98
399.422	16.96
399.786	16.95
400.15	17.19
400.514	17.08
400.878	17.21
401.242	17.11
401.605	17.11
401.969	17.3
402.333	17.22
402.697	17.31
403.06	17.34
403.424	17.56
403.787	17.79
404.151	17.67
404.514	17.74
404.878	17.35
405.241	17.66
405.604	17.95
405.968	17.7
406.331	17.62
406.694	17.82
407.057	17.74
407.42	18.08
407.783	17.75
408.146	18.07
408.509	18.15
408.872	18.16
409.235	18.09
409.598	18.35
409.961	18.32
410.323	18.45
410.686	18.57
411.049	18.44
411.411	18.33
411.774	18.6
412.136	18.61
412.499	18.53
412.861	18.45
413.223	18.43
413.586	18.68
413.948	18.95
414.31	19.08
414.672	18.98
415.035	18.94
415.397	19.03
415.759	18.93
416.121	19.14
416.483	18.96
416.845	18.96
417.206	19.25
417.568	19.15
417.93	19.14
418.292	19.11
418.653	19.09
419.015	19.52
419.377	19.01
419.738	18.96
420.1	19.11
420.461	19.15
420.822	19.23
421.184	19.25
421.545	19.17
421.906	19.17
422.267	19.08
422.629	19.07
422.99	19.11
423.351	19.11
423.712	19.25
424.073	19.47
424.434	19.62
424.795	19.42
425.155	19.64
425.516	19.39
425.877	19.55
426.238	19.59
426.598	19.85
426.959	19.78
427.32	20.05
427.68	20.23
428.041	20.31
428.401	20.29
428.761	20.57
429.122	20.47
429.482	20.71
429.842	20.81
430.202	20.85
430.563	20.95
430.923	20.71
431.283	20.65
431.643	21.08
432.003	20.99
432.363	20.94
432.722	21.22
433.082	21.05
433.442	21.27
433.802	21.23
434.161	21.12
434.521	20.94
434.881	20.97
435.24	21.04
435.6	21.21
435.959	21.19
436.319	21.47
436.678	21.4
437.037	21.48
437.396	21.48
437.756	21.76
438.115	21.58
438.474	21.55
438.833	21.91
439.192	21.89
439.551	21.85
439.91	21.87
440.269	21.69
440.628	21.99
440.987	21.95
441.345	21.94
441.704	21.82
442.063	21.98
442.421	21.97
442.78	21.96
443.138	21.9
443.497	22.33
443.855	22.34
444.214	22.45
444.572	22.52
444.93	22.63
445.288	22.52
445.647	22.64
446.005	22.6
446.363	22.53
446.721	22.49
447.079	22.46
447.437	22.45
447.795	22.51
448.153	22.26
448.51	22.4
448.868	22.4
449.226	22.43
449.584	22.66
449.941	22.89
450.299	22.9
450.656	23.04
451.014	23.31
451.371	23.36
451.729	23.58
452.086	23.46
452.443	23.71
452.801	23.72
453.158	23.77
453.515	23.73
453.872	23.66
454.229	23.64
454.586	23.85
454.943	23.75
455.3	23.8
455.657	23.8
456.014	23.82
456.371	23.89
456.727	24.07
457.084	24.05
457.441	24.29
457.797	24.28
458.154	24.23
458.51	24.34
458.867	24.32
459.223	24.55
459.58	24.53
459.936	24.44
460.292	24.32
460.648	24.42
461.005	24.27
461.361	23.99
461.717	23.99
462.073	24.05
462.429	24.2
462.785	24.44
463.141	24.71
463.496	24.88
463.852	24.89
464.208	25.14
464.564	24.94
464.919	25.27
465.275	25.31
465.631	25.36
465.986	25.4
466.342	25.43
466.697	25.38
467.052	25.42
467.408	25.39
467.763	25.35
468.118	25.43
468.473	25.62
468.829	25.46
469.184	25.48
469.539	25.65
469.894	25.49
470.249	25.82
470.603	25.79
470.958	26.05
471.313	25.89
471.668	26
472.023	25.9
472.377	26.15
472.732	26.2
473.086	26.15
473.441	26.28
473.795	26.07
474.15	26.16
474.504	26.47
474.859	26.39
475.213	26.45
475.567	26.55
475.921	26.64
476.275	26.44
476.63	26.69
476.984	26.7
477.338	26.82
477.692	26.98
478.045	26.73
478.399	26.83
478.753	26.88
479.107	26.95
479.461	26.8
479.814	26.89
480.168	27.04
480.521	26.9
480.875	26.96
481.228	26.96
481.582	27.19
481.935	27.17
482.289	27.16
482.642	27.12
482.995	27.02
483.348	26.94
483.701	27.13
484.055	26.84
484.408	26.85
484.761	26.57
485.114	26.18
485.466	26.03
485.819	25.93
486.172	26.16
486.525	26.29
486.878	26.49
487.23	26.67
487.583	26.85
487.936	27.02
488.288	26.83
488.641	26.75
488.993	26.61
489.345	26.5
489.698	26.67
490.05	26.78
490.402	26.84
490.754	27.13
491.107	27.33
491.459	27.57
491.811	27.71
492.163	27.87
492.515	27.8
492.866	27.35
493.218	27.17
493.57	27.18
493.922	27.34
494.274	27.49
494.625	27.71
494.977	28.13
495.328	28.25
495.68	28.53
496.031	28.55
496.383	28.67
496.734	28.85
497.086	28.81
497.437	28.87
497.788	28.83
498.139	28.48
498.49	28.55
498.842	28.42
499.193	28.7
499.544	28.75
499.894	28.84
500.245	28.95
500.596	28.83
500.947	28.91
501.298	29.25
501.648	28.95
501.999	29.17
502.35	29.45
502.7	29.38
503.051	29.49
503.401	29.52
503.752	29.62
504.102	29.82
504.452	29.71
504.803	29.6
505.153	29.91
505.503	29.67
505.853	29.81
506.203	29.42
506.553	29.76
506.903	29.94
507.253	29.99
507.603	30.03
507.953	30.25
508.303	30.23
508.652	30.21
509.002	30.21
509.352	30.21
509.701	29.96
510.051	29.99
510.4	29.93
510.75	29.8
511.099	29.92
511.449	30.09
511.798	30.05
512.147	30.02
512.496	30.29
512.846	30.23
513.195	30.28
513.544	30.44
513.893	30.27
514.242	30.2
514.591	30.43
514.939	30.56
515.288	30.74
515.637	30.85
515.986	30.76
516.334	30.77
516.683	30.98
517.032	31.04
517.38	30.93
517.729	31.06
518.077	31.11
518.426	31.11
518.774	30.95
519.122	30.91
519.47	30.8
519.819	30.69
520.167	30.62
520.515	30.52
520.863	30.72
521.211	30.67
521.559	30.87
521.907	31.06
522.255	31.12
522.602	31.28
522.95	31.45
523.298	31.53
523.645	31.46
523.993	31.62
524.341	31.69
524.688	31.76
525.036	31.57
525.383	31.62
525.73	31.86
526.078	31.98
526.425	31.72
526.772	31.6
527.119	31.1
527.466	31.22
527.814	31.14
528.161	31.3
528.508	31.39
528.854	31.3
529.201	31.46
529.548	31.21
529.895	30.88
530.242	30.81
530.588	30.73
530.935	30.84
531.282	30.87
531.628	31.11
531.975	31.29
532.321	31.49
532.667	31.73
533.014	31.88
533.36	31.82
533.706	31.92
534.052	31.93
534.399	31.92
534.745	31.6
535.091	31.36
535.437	31.56
535.783	31.76
536.129	32.05
536.474	32.1
536.82	32.32
537.166	32.49
537.512	32.41
537.857	32.41
538.203	32.23
538.549	32.01
538.894	32.22
539.239	32.39
539.585	32.77
539.93	32.69
540.276	32.92
540.621	33.11
540.966	33.28
541.311	33.11
541.656	33.17
542.001	33.12
542.346	32.67
542.691	32.41
543.036	32.03
543.381	32.09
543.726	32.4
544.071	32.48
544.415	32.61
544.76	32.68
545.105	32.87
545.449	33
545.794	33.19
546.138	33.28
546.483	33.52
546.827	33.42
547.171	33.52
547.516	33.28
547.86	33.48
548.204	33.16
548.548	33.25
548.892	33.37
549.236	33.68
549.58	33.71
549.924	33.84
550.268	34.21
550.612	34.06
550.956	34.31
551.3	34.33
551.643	34.52
551.987	34.24
552.33	34.5
552.674	34.59
553.017	34.34
553.361	34.65
553.704	34.73
554.048	34.5
554.391	34.42
554.734	34.34
555.077	34.44
555.42	34.61
555.764	34.62
556.107	34.89
556.45	34.71
556.793	35.03
557.135	34.95
557.478	35.11
557.821	35.01
558.164	35.16
558.507	35.29
558.849	34.9
559.192	35.14
559.534	35.15
559.877	35.53
560.219	35.27
560.562	35.15
560.904	35.39
561.246	35.45
561.589	35.5
561.931	35.48
562.273	35.28
562.615	35.49
562.957	35.38
563.299	35.49
563.641	35.23
563.983	35.48
564.325	35.68
564.667	35.71
565.008	35.24
565.35	35.85
565.692	35.89
566.033	35.56
566.375	35.52
566.716	35.65
567.058	35.72
567.399	35.63
567.741	35.73
568.082	35.49
568.423	35.69
568.764	35.85
569.105	35.73
569.447	35.73
569.788	36.13
570.129	35.83
570.47	35.85
570.811	36
571.151	36.1
571.492	36.01
571.833	36.12
572.174	36.06
572.514	36.13
572.855	36.11
573.195	35.98
573.536	35.79
573.876	36.13
574.217	36.02
574.557	36.18
574.898	36.42
575.238	36.25
575.578	36.41
575.918	36.46
576.258	36.35
576.598	36.46
576.938	36.32
577.278	36.5
577.618	36.49
577.958	36.49
578.298	36.53
578.638	37.04
578.977	36.51
579.317	36.7
579.657	36.99
579.996	36.7
580.336	36.91
580.675	37.07
581.014	36.89
581.354	37.27
581.693	37.07
582.032	37.15
582.372	37.31
582.711	37.29
583.05	37.34
583.389	37.3
583.728	37.28
584.067	37.44
584.406	37.54
584.745	37.66
585.083	37.59
585.422	37.47
585.761	37.49
586.1	37.38
586.438	37.98
586.777	38.03
587.115	37.3
587.454	37.93
587.792	37.66
588.13	37.92
588.469	37.92
588.807	37.89
589.145	37.79
589.483	38.07
589.821	37.77
590.159	38.04
590.497	37.9
590.835	37.74
591.173	37.87
591.511	37.81
591.849	37.8
592.187	37.87
592.524	37.7
592.862	38.06
593.2	38.16
593.537	38.16
593.875	38.01
594.212	38.32
594.55	38.29
594.887	38.6
595.224	38.4
595.561	38.52
595.899	38.19
596.236	38.5
596.573	38.22
596.91	38.43
597.247	38.26
597.584	38.3
597.921	38.48
598.258	38.14
598.594	37.83
598.931	37.99
599.268	38.05
599.604	38.37
599.941	38.33
600.277	38.38
600.614	38.74
600.95	38.91
601.287	38.82
601.623	38.51
601.959	38.61
602.296	39.26
602.632	39.08
602.968	39
603.304	39.12
603.64	39.14
603.976	38.83
604.312	39.09
604.648	39.08
604.984	38.86
605.319	38.77
605.655	38.78
605.991	38.7
606.326	38.67
606.662	38.55
606.998	38.68
607.333	38.53
607.668	38.67
608.004	39.28
608.339	38.97
608.674	39.28
609.01	39.39
609.345	39.2
609.68	39.66
610.015	39.38
610.35	39.37
610.685	38.81
611.02	38.87
611.355	38.91
611.689	39.13
612.024	39.22
612.359	39.11
612.694	39.42
613.028	39.58
613.363	39.33
613.697	39.68
614.032	39.68
614.366	40.06
614.7	40.07
615.035	39.91
615.369	39.67
615.703	39.81
616.037	39.81
616.371	40.03
616.705	39.86
617.039	40.42
617.373	40.24
617.707	39.71
618.041	40.27
618.375	39.98
618.709	40.35
619.042	40.03
619.376	40.75
619.71	40.97
620.043	40.51
620.377	40.51
620.71	40.32
621.043	40.63
621.377	40.2
621.71	40.25
622.043	40.15
622.376	40.73
622.709	40.4
623.043	40.77
623.376	40.54
623.709	40.52
624.041	40.63
624.374	41.11
624.707	40.64
625.04	41
625.373	40.8
625.705	40.63
626.038	40.44
626.37	40.78
626.703	41.12
627.035	40.64
627.368	40.5
627.7	40.47
628.032	40.32
628.365	40.39
628.697	40.79
629.029	40.83
629.361	40.89
629.693	40.73
630.025	40.87
630.357	40.99
630.689	40.99
631.021	41.21
631.353	40.99
631.684	40.92
632.016	40.94
632.348	41.1
632.679	40.59
633.011	40.95
633.342	41.58
633.674	41.35
634.005	41.75
634.336	41.76
634.668	41.67
634.999	41.21
635.33	41.57
635.661	41.47
635.992	41.29
636.323	41.15
636.654	41.43
636.985	41.17
637.316	41.66
637.647	41.38
637.977	41.48
638.308	41.5
638.639	41.17
638.969	41.8
639.3	41.14
639.63	41.01
639.961	42
640.291	41.24
640.622	41.8
640.952	41.94
641.282	41.8
641.612	41.7
641.943	42.43
642.273	42.4
642.603	42
642.933	41.73
643.263	42.41
643.592	42.16
643.922	41.52
644.252	42.31
644.582	42.47
644.911	41.77
645.241	42.17
645.571	42.29
645.9	41.58
646.23	42.02
646.559	41.96
646.888	42.7
647.218	42.42
647.547	42.73
647.876	42.52
648.205	42.21
648.534	42.24
648.863	42.61
649.192	42.11
649.521	42.42
649.85	42.42
650.179	41.97
650.508	42.71
650.837	43.37
651.165	42.74
651.494	43.12
651.822	42.56
652.151	42.41
652.479	42.86
652.808	42.51
653.136	42.3
653.465	42.58
653.793	42.5
654.121	42.77
654.449	42.8
654.777	42.98
655.105	42.81
655.433	43.29
655.761	43.14
656.089	43.38
656.417	42.53
656.745	43.08
657.073	42.9
657.4	43
657.728	42.51
658.056	43.33
658.383	43.48
658.711	43.13
659.038	42.88
659.365	43.19
659.693	43.34
660.02	42.76
660.347	43.18
660.674	43.03
661.001	42.57
661.329	43.34
661.656	42.6
661.982	42.89
662.309	42.8
662.636	43.13
662.963	43.1
663.29	43.45
663.616	43.22
663.943	42.9
664.27	43.52
664.596	42.74
664.923	42.73
665.249	43.7
665.576	44.29
665.902	43.12
666.228	42.87
666.554	43.44
666.881	43.11
667.207	43.52
667.533	43.63
667.859	43.65
668.185	43.69
668.511	43.89
668.837	43.93
669.162	44.21
669.488	43.54
669.814	43.9
670.139	43.65
670.465	44.06
670.791	44.51
671.116	43.46
671.442	44.04
671.767	44.16
672.092	43.32
672.418	43.14
672.743	43.99
673.068	44.3
673.393	43.74
673.718	43.71
674.043	44.02
674.368	44.06
674.693	43.83
675.018	43.89
675.343	43.54
675.667	44.51
675.992	44.47
676.317	44.34
676.641	43.55
676.966	44.19
677.29	44.21
677.615	43.85
677.939	44.28
678.264	43.68
678.588	44.53
678.912	44.21
679.236	44.48
679.56	43.86
679.885	44.19
680.209	43.87
680.532	44.72
680.856	44.42
681.18	44.47
681.504	44.26
681.828	44.47
682.152	44.17
682.475	44.23
682.799	43.93
683.122	44.28
683.446	44.52
683.769	45.14
684.093	44.79
684.416	44.73
684.739	44.65
685.062	44.84
685.386	44.32
685.709	43.84
686.032	44.74
686.355	44.63
686.678	44.45
687.001	44.92
687.324	44.7
687.646	44.51
687.969	44.82
688.292	44.88
688.614	44.23
688.937	44.43
689.26	44.58
689.582	45.06
689.904	44.61
690.227	45.25
690.549	45.58
690.871	44.92
691.194	44.33
691.516	45.03
691.838	44.68
692.16	44.52
692.482	44.75
692.804	45.55
693.126	45.17
693.448	45.46
693.769	44.88
694.091	45.34
694.413	45.26
694.735	45.51
695.056	44.68
695.378	44.66
695.699	44.31
696.021	44.63
696.342	45.03
696.663	45.61
696.984	44.56
697.306	45.1
697.627	45.85
697.948	45.49
698.269	45.78
698.59	45.21
698.911	44.71
699.232	44.9
699.553	45.82
699.873	45.29
700.194	44.71
700.515	44.58
700.835	45.36
701.156	44.97
701.477	44.85
701.797	45.23
702.117	45.12
702.438	45.36
702.758	46.2
703.078	46.61
703.398	45.72
703.719	44.82
704.039	44.9
704.359	45.79
704.679	46.7
704.999	45.97
705.319	46.03
705.638	44.88
705.958	45.81
706.278	46.92
706.597	46.12
706.917	46.06
707.237	46.05
707.556	46.16
707.876	46.73
708.195	46.25
708.514	46.28
708.834	45.86
709.153	45.78
709.472	45.99
709.791	46.17
710.11	45.73
710.429	45.43
710.748	47.04
711.067	46.06
711.386	47.44
711.705	45.21
712.023	46.59
712.342	45.74
712.661	45.82
712.979	45.45
713.298	45.82
713.616	46.48
713.935	45.38
714.253	45.43
714.572	46.05
714.89	46.16
715.208	45.5
715.526	45.83
715.844	46.91
716.162	46.13
716.48	46.41
716.798	45.75
717.116	46.73
717.434	46.55
717.752	45.36
718.069	46.78
718.387	45.9
718.705	46.67
719.022	45.35
719.34	46.73
719.657	45.88
719.975	46.66
720.292	46.3
720.609	46.92
720.927	46.61
721.244	46.02
721.561	46.61
721.878	46.51
722.195	46.98
722.512	47.29
722.829	47.56
723.146	46.52
723.463	47.63
723.779	46.69
724.096	46.79
724.413	48.33
724.729	46.35
725.046	44.96
725.362	45.8
725.679	47.34
725.995	45.95
726.311	45.93
726.628	47.14
726.944	47.97
727.26	47.71
727.576	45.44
727.892	47.6
728.208	46.34
728.524	48.02
728.84	46.55
729.156	46.91
729.472	46.11
729.787	47.05
730.103	47.29
730.419	46.81
730.734	47.32
731.05	46.96
731.365	47.17
731.681	47.59
731.996	47.74
732.311	46.83
732.626	46.39
732.942	47.73
733.257	46.47
733.572	48.69
733.887	46.28
734.202	47.83
734.517	47.99
734.832	48.03
735.146	47.02
735.461	46.2
735.776	47.72
736.091	48.07
736.405	47.75
736.72	46.84
737.034	47.32
737.349	47.83
737.663	47.04
737.977	46.31
738.292	47.01
738.606	47.4
738.92	47.21
739.234	47.08
739.548	46.69
739.862	48.45
740.176	47.48
740.49	48.37
740.804	49.81
741.117	46.63
741.431	48.15
741.745	46.94
742.058	47.99
742.372	47.68
742.685	47.11
742.999	49.22
743.312	48.46
743.626	48.8
743.939	47.65
744.252	47.21
744.565	47.57
744.878	49.02
745.191	47.68
745.505	47.75
745.817	48.94
746.13	47.82
746.443	47.12
746.756	46.78
747.069	47.62
747.381	46.98
747.694	48.58
748.007	48.24
748.319	46.52
748.632	47.28
748.944	49.13
749.256	48.49
749.569	47.8
749.881	47.73
750.193	47.44
750.505	48.42
750.817	49.73
751.129	48.38
751.441	49.33
751.753	49.56
752.065	48.12
752.377	47.41
752.689	47.95
753	48.1
753.312	49.56
753.624	49.12
753.935	49.61
754.247	49.19
754.558	48.48
754.869	48.38
755.181	48.71
755.492	48.83
755.803	49.26
756.114	47.19
756.425	49.74
756.736	48.37
757.047	48.21
757.358	47.47
757.669	49.05
757.98	49.17
758.291	49.38
758.601	47.94
758.912	48.5
759.223	48.38
759.533	48.14
759.844	49.46
760.154	48.85
760.464	49.14
760.775	48.45
761.085	49.78
761.395	49.05
761.705	50.35
762.016	49.06
762.326	48.43
762.636	48.62
762.945	47.36
763.255	47.7
763.565	49.74
763.875	49.44
764.185	48.55
764.494	48.28
764.804	49.33
765.113	47.75
765.423	48.91
765.732	49.01
766.042	48.88
766.351	48.7
766.66	48.87
766.97	48.84
767.279	47.5
767.588	48.95
767.897	47.77
768.206	47.47
768.515	48.4
768.824	48.33
769.133	51.39
769.441	50.68
769.75	48.79
770.059	49.51
770.367	49.55
770.676	48.07
770.984	51.66
771.293	49.39
771.601	48.31
771.91	49.41
772.218	50.36
772.526	48.17
772.834	49.34
773.142	50.76
773.45	48.43
773.758	47.12
774.066	49.7
774.374	51.17
774.682	47.72
774.99	46.87
775.298	48.14
775.605	46.32
775.913	48.32
776.22	52.08
776.528	47.59
776.835	50.83
777.143	48.98
777.45	50.52
777.757	50.06
778.065	50.59
778.372	48.13
778.679	49.07
778.986	50.79
779.293	48.76
779.6	50.36
779.907	51.27
780.214	50.59
780.52	51.04
780.827	52.65
781.134	48.02
781.44	49.84
781.747	48.81
782.053	49.42
782.36	46.89
782.666	49.35
782.973	48.14
783.279	50.28
783.585	47.48
783.891	49.03
784.197	50.05
784.503	50.51
784.809	49.85
785.115	48.95
785.421	51.75
785.727	51.23
786.033	48.27
786.339	50.6
786.644	48.14
786.95	51.8
787.255	50.68
787.561	45.19
787.866	50.53
788.172	50.92
788.477	54.27
788.782	48.49
789.088	51.15
789.393	49.36
789.698	50.38
790.003	50.14
790.308	47.7
790.613	49.07
790.918	49.15
791.223	50.13
791.527	53.82
791.832	52.57
792.137	50
792.441	49.34
792.746	48.73
793.05	50.56
793.355	49.15
793.659	47.91
793.963	48.48
794.268	51.38
794.572	52.25
794.876	46.45
795.18	52.59
795.484	51.73
795.788	48.82
796.092	49.7
796.396	54.56
796.7	53.52
797.004	50.81
797.307	48.99
797.611	51.62
797.915	51.44
798.218	50.68
798.522	52.45
798.825	46.86
799.128	51.25
799.432	51.86
799.735	48.92
800.038	45.58
800.341	48.1
800.644	48.45
800.947	50.98
801.25	48.73
801.553	47.26
801.856	48.72
802.159	47.14
802.462	50.88
802.764	53.2
803.067	46.7
803.37	51.21
803.672	53.01
803.975	51.75
804.277	47.57
804.579	49.85
804.882	53.22
805.184	54.29
805.486	48.82
805.788	47.6
806.09	48.57
806.392	52.22
806.694	51.66
806.996	48
807.298	54.32
807.6	49.36
807.902	50.08
808.203	45.46
808.505	52.03
808.807	50.91
809.108	51.87
809.409	51.55
809.711	48.21
810.012	44.74
810.313	50.28
810.615	50.77
810.916	51.15
811.217	47.12
811.518	50.25
811.819	56.18
812.12	53.87
812.421	49.02
812.722	51.1
813.023	52.01
813.323	57.04
813.624	49.71
813.925	50.98
814.225	50.7
814.526	48.54
814.826	48.95
815.126	51.98
815.427	53.44
815.727	46.99
816.027	51.65
816.327	49.09
816.627	53.7
816.927	47.39
817.227	56.39
817.527	46.84
817.827	56.73
818.127	47.45
818.427	51.66
818.727	49.38
819.026	47.92
819.326	51.94
819.625	49.22
819.925	50.52
820.224	53.31
820.524	52.9
820.823	49.84
821.122	51.3
821.421	53.55
821.72	52.64
822.019	50.52
822.318	51.89
822.617	49.82
822.916	52.43
823.215	49.21
823.514	50.05
823.813	49.16
824.111	51.88
824.41	50.41
824.709	51.13
825.007	50.83
825.306	51.96
825.604	51.14
825.902	50.2
826.201	51.19
826.499	51.47
826.797	51.5
827.095	52.37
827.393	50.9
827.691	51.84
827.989	48.45
828.287	51.42
828.585	52.54
828.882	50.62
829.18	49.63
829.478	52.53
829.775	50.14
830.073	51.31
830.37	51.39
830.668	50.72
830.965	48.43
831.263	51.64
831.56	49.29
831.857	49.23
832.154	52.48
832.451	52.38
832.748	49.08
833.045	56.29
833.342	48.88
833.639	49.08
833.936	49.01
834.232	50.87
834.529	49.74
834.826	49.74
835.122	50.76
835.419	51.76
835.715	50.34
836.012	46.93
836.308	51.67
836.604	49.88
836.901	49.06
837.197	54.03
837.493	50.45
837.789	52.43
838.085	54.42
838.381	51.1
838.677	47.88
838.972	50.26
839.268	55.61
839.564	50.88
839.86	51.34
840.155	47.54
840.451	51.24
840.746	51.77
841.042	55.83
841.337	54.01
841.632	42.15
841.928	50.9
842.223	47.92
842.518	51.25
842.813	43.62
843.108	50.87
843.403	55.78
843.698	52.02
843.993	57.64
844.287	47.01
844.582	46.29
844.877	46.08
845.171	49.43
845.466	47.91
845.761	48.68
846.055	61.61
846.349	56.04
846.644	48.86
846.938	42.68
847.232	52.79
847.526	58.63
847.82	59.24
848.114	50.38
848.408	53.71
848.702	38.39
848.996	53.57
849.29	53.88
849.584	61.98
849.877	33.05
850.171	38.58
850.465	51.02
850.758	57.18
851.052	49.36
851.345	51.85
851.638	60.33
851.932	54.43
852.225	63.87
852.518	53.59
852.811	47.91
853.104	32.72
853.397	56.3
853.69	49.29
853.983	36.09
854.276	51.52
854.569	32.78
854.861	60.15
855.154	52.66
855.447	56.55
855.739	70.5
856.032	54.64
856.324	51.86
856.616	53.72
856.909	43.99
857.201	37.34
857.493	38.41
857.785	53.4
858.077	66.76
858.369	31.08
858.661	56.43
858.953	55.34
859.245	50.47
859.537	65.77
859.829	42.26
860.12	46.84
860.412	46.11
860.703	50.38
860.995	38.81
861.286	37.02
861.578	21.82
861.869	37.45
862.16	49.28
862.452	43.08
862.743	49.7
863.034	52.05
863.325	45.93
863.616	54.6
863.907	63.64
864.198	53.71
864.488	71.79
864.779	38.55
865.07	61.06
865.36	49.44
865.651	65.4
865.941	42.83
866.232	47.29
866.522	66.06
866.813	64.88
867.103	60.83
867.393	42.64
867.683	45.26
867.973	61.71
868.263	48.93
868.553	60.92
868.843	54.32
869.133	39.56
869.423	49.92
869.713	56.03
870.002	43.5
870.292	54.96
870.582	65.88
870.871	43.6
871.161	67.46
871.45	67.7
871.739	52.62
872.029	60.14
872.318	57.33
872.607	50.22
872.896	72.94
873.185	33.98
873.474	50.3
873.763	43.33
874.052	71.73
874.341	55.3
874.63	61.88
874.918	74.96
875.207	57.8
875.496	63.03
875.784	60.37
876.073	66.5
876.361	50.93
876.649	72.95
876.938	48.87
877.226	54.71
877.514	42.16
877.802	88.78
878.09	47.66
878.378	57.54
878.666	87.42
878.954	64.31
879.242	46.63
879.53	43.23
879.817	64.26
880.105	53.37
880.392	41.95
880.68	20.52
880.967	38.66
881.255	37.27
881.542	15.33
881.83	66.39
882.117	63.91
882.404	52.73
882.691	69.47
882.978	62.55
883.265	51.83
883.552	55.8
883.839	68.34
884.126	65.29
884.413	54.99
884.699	60.11
884.986	51.68
885.273	58.81
885.559	58.81
885.846	58.81
