Data from 1897-2_forehead_Reflection__2__08.txt Node

Date: Fri Sep 30 17:47:26 CDT 2022
User: ToomeyLab
Spectrometer: FLMS14357
Trigger mode: 0
Integration Time (sec): 1.000000E-2
Scans to average: 100
Electric dark correction enabled: true
Nonlinearity correction enabled: false
Boxcar width: 0
XAxis mode: Wavelengths
Number of Pixels in Spectrum: 2048
>>>>>Begin Spectral Data<<<<<
189.047	43.97
189.435	43.97
189.823	43.97
190.211	177.99
190.599	-13.68
190.987	228.04
191.375	516.19
191.763	-72.24
192.151	152.37
192.538	51.26
192.926	150.23
193.314	96.87
193.702	63.88
194.089	-25.45
194.477	39
194.864	18.16
195.252	455.02
195.639	196.6
196.027	106.73
196.414	93.33
196.801	44.48
197.189	13.25
197.576	44.73
197.963	129.3
198.351	-5.89
198.738	6.75
199.125	69.63
199.512	53.16
199.899	30.36
200.286	36.44
200.673	66.19
201.06	31.92
201.447	23.74
201.833	54.78
202.22	5.81
202.607	55.47
202.994	48.05
203.38	15.8
203.767	55.68
204.154	58.56
204.54	28.24
204.927	24.5
205.313	2.92
205.699	57.47
206.086	-52.66
206.472	41.8
206.858	37.99
207.245	32.18
207.631	-19.77
208.017	24.66
208.403	7.11
208.789	-4.84
209.175	15.67
209.561	110.45
209.947	12.51
210.333	-18.61
210.719	-18.01
211.105	32.3
211.491	31.04
211.876	31.44
212.262	17.56
212.648	12.87
213.034	-3.6
213.419	29.3
213.805	23.18
214.19	14.6
214.576	8.44
214.961	16.77
215.346	20.47
215.732	3.68
216.117	31.5
216.502	41.63
216.888	11.05
217.273	-23.29
217.658	35.27
218.043	21.04
218.428	15.8
218.813	9.89
219.198	21.9
219.583	26.24
219.968	16.17
220.353	19.32
220.738	30.72
221.122	2.92
221.507	27.39
221.892	8.45
222.276	-6.69
222.661	18.83
223.046	5.77
223.43	4.08
223.815	6.54
224.199	9.82
224.583	2.83
224.968	1.89
225.352	-1.19
225.736	9.93
226.121	11.77
226.505	5
226.889	8.3
227.273	-0.39
227.657	6.48
228.041	2.98
228.425	8.71
228.809	6.31
229.193	3.88
229.577	2.2
229.961	3.72
230.344	1.55
230.728	1.63
231.112	3.12
231.495	2.34
231.879	3.12
232.263	3.03
232.646	2.1
233.03	3.41
233.413	4.11
233.797	2.91
234.18	2.64
234.563	4.45
234.946	2.76
235.33	2.07
235.713	5.25
236.096	4.67
236.479	3.84
236.862	3.53
237.245	4.33
237.628	3.17
238.011	4.69
238.394	4.23
238.777	2.14
239.16	2.81
239.543	2.79
239.925	1.16
240.308	1.93
240.691	3.68
241.073	1.96
241.456	2.57
241.838	3.51
242.221	2.96
242.603	3.82
242.986	3.48
243.368	1.07
243.75	2.31
244.133	2.87
244.515	2.3
244.897	2.58
245.279	2.74
245.661	3.14
246.043	3.11
246.425	2.49
246.807	3.2
247.189	3.16
247.571	2.76
247.953	2.72
248.335	2.14
248.717	2.39
249.098	2.38
249.48	2.54
249.862	2.37
250.243	2.93
250.625	2.62
251.006	2.74
251.388	2.44
251.769	3.36
252.151	2.97
252.532	3.14
252.913	2.69
253.295	3.44
253.676	2.24
254.057	2.51
254.438	2.33
254.819	3.73
255.2	2.26
255.581	3.36
255.962	3.13
256.343	3.04
256.724	4.47
257.105	3.5
257.486	2.74
257.867	3.27
258.247	3.64
258.628	3.77
259.009	2.95
259.389	2.83
259.77	2.86
260.15	2.6
260.531	2.87
260.911	2.86
261.292	2.32
261.672	2.13
262.052	2
262.432	2.1
262.813	3.01
263.193	2.64
263.573	2.47
263.953	2.6
264.333	2.94
264.713	1.52
265.093	3.02
265.473	1.3
265.853	2.54
266.233	2.74
266.612	2.02
266.992	2.13
267.372	1.64
267.752	2.33
268.131	2.56
268.511	2.26
268.89	1.88
269.27	2.5
269.649	2.09
270.029	2.59
270.408	2.19
270.787	2.45
271.167	2.23
271.546	2.28
271.925	2.78
272.304	2.81
272.683	2.44
273.062	2.45
273.441	1.99
273.82	1.92
274.199	2.28
274.578	2.07
274.957	2.78
275.336	2.52
275.715	2.89
276.093	2.82
276.472	2.25
276.851	2.72
277.229	2.38
277.608	2.82
277.986	2.29
278.365	2.4
278.743	2.71
279.122	2.64
279.5	2.43
279.878	2.64
280.257	2.93
280.635	2.42
281.013	3.2
281.391	2.79
281.769	2.28
282.147	2.53
282.525	2.18
282.903	2.47
283.281	2.21
283.659	2.4
284.037	2.48
284.415	2.77
284.792	2.73
285.17	1.93
285.548	2.4
285.925	2.37
286.303	2.21
286.68	2.03
287.058	2.37
287.435	2.74
287.813	2.09
288.19	2.47
288.567	2.52
288.945	1.78
289.322	2.42
289.699	2.72
290.076	2.2
290.453	2.72
290.83	2.43
291.207	2.81
291.584	2.69
291.961	2.44
292.338	2.83
292.715	2.95
293.092	2.72
293.469	2.92
293.845	2.78
294.222	2.69
294.599	3.29
294.975	3.27
295.352	2.84
295.728	3.19
296.105	2.66
296.481	3.17
296.858	3.37
297.234	3.14
297.61	3.08
297.986	2.81
298.363	3.08
298.739	2.88
299.115	2.71
299.491	3.15
299.867	3.21
300.243	2.86
300.619	2.76
300.995	4.1
301.371	3.65
301.746	3.32
302.122	3.14
302.498	3.43
302.874	3.59
303.249	3.64
303.625	4.11
304	3.99
304.376	3.48
304.751	3.55
305.127	4.02
305.502	3.72
305.878	4.03
306.253	3.65
306.628	4.19
307.003	3.73
307.378	3.63
307.754	3.78
308.129	3.9
308.504	3.86
308.879	4.5
309.254	4.01
309.629	4.5
310.003	3.66
310.378	4.26
310.753	4.38
311.128	4.77
311.502	3.87
311.877	4.28
312.252	4.55
312.626	4.42
313.001	4.19
313.375	4.58
313.75	4.9
314.124	5
314.498	4.82
314.873	5.26
315.247	4.37
315.621	5.14
315.995	5.08
316.369	5.18
316.743	5.33
317.117	5.87
317.491	6.17
317.865	5.86
318.239	5.88
318.613	5.81
318.987	5.76
319.361	5.15
319.734	5.52
320.108	5.64
320.482	5.58
320.855	6.15
321.229	6.11
321.602	6.06
321.976	5.85
322.349	5.92
322.723	6.45
323.096	6.29
323.469	6.79
323.843	5.94
324.216	6.22
324.589	6.17
324.962	6.24
325.335	6.3
325.708	6.49
326.081	6.4
326.454	6.44
326.827	6.33
327.2	6.4
327.573	6.52
327.945	6.36
328.318	6.58
328.691	7.01
329.063	7.02
329.436	6.49
329.809	7.51
330.181	7.01
330.553	6.79
330.926	7.04
331.298	6.99
331.671	7.47
332.043	7.22
332.415	7.12
332.787	7.39
333.159	7.29
333.532	7.71
333.904	7.42
334.276	7.5
334.648	7.17
335.02	7.72
335.391	7.93
335.763	7.68
336.135	7.61
336.507	7.93
336.879	7.63
337.25	7.31
337.622	8
337.993	7.82
338.365	7.72
338.736	7.7
339.108	8.2
339.479	8.25
339.851	8.1
340.222	8.22
340.593	7.7
340.964	7.77
341.336	8.04
341.707	7.92
342.078	8.43
342.449	8.32
342.82	8.31
343.191	8.21
343.562	8.48
343.933	8.34
344.303	8.24
344.674	8.71
345.045	8.47
345.416	9.18
345.786	9.12
346.157	9.18
346.527	8.68
346.898	9.3
347.268	8.71
347.639	8.58
348.009	8.51
348.38	9.31
348.75	9.7
349.12	9.57
349.49	9.64
349.861	9.18
350.231	9.21
350.601	9.15
350.971	9.26
351.341	9.57
351.711	9.46
352.081	9.63
352.45	9.58
352.82	9.83
353.19	10.02
353.56	9.77
353.929	9.33
354.299	9.85
354.669	9.44
355.038	10.09
355.408	9.95
355.777	9.78
356.147	9.57
356.516	10.47
356.885	10.38
357.254	10.34
357.624	9.93
357.993	9.78
358.362	10.59
358.731	10.17
359.1	10.11
359.469	9.93
359.838	10.74
360.207	10.47
360.576	10.14
360.945	10.79
361.314	10.57
361.682	10.26
362.051	10.38
362.42	10.8
362.788	10.68
363.157	10.51
363.525	10.55
363.894	10.7
364.262	10.79
364.631	11.21
364.999	11.09
365.367	11.26
365.735	10.94
366.104	10.85
366.472	11.52
366.84	11.44
367.208	11.39
367.576	11.76
367.944	11.81
368.312	11.13
368.68	11.36
369.048	11.21
369.416	11.44
369.783	11.84
370.151	11.47
370.519	11.73
370.886	11.81
371.254	11.53
371.621	11.72
371.989	12.12
372.356	11.71
372.724	12.1
373.091	11.83
373.458	11.9
373.826	12.15
374.193	12.46
374.56	12.25
374.927	12.47
375.294	12.78
375.661	12.03
376.028	12.43
376.395	12.48
376.762	12.55
377.129	13.11
377.496	12.7
377.863	12.16
378.229	12.86
378.596	12.86
378.963	12.75
379.329	12.7
379.696	12.85
380.062	12.78
380.429	12.82
380.795	12.96
381.161	13.03
381.528	13.05
381.894	13.16
382.26	12.96
382.626	13.13
382.993	13.21
383.359	13.36
383.725	13.04
384.091	13.71
384.457	13.78
384.823	13.67
385.188	13.95
385.554	13.93
385.92	13.71
386.286	13.82
386.651	13.85
387.017	13.99
387.383	13.56
387.748	13.46
388.114	13.94
388.479	13.6
388.845	13.75
389.21	14.21
389.575	14.14
389.94	14.16
390.306	14.5
390.671	14.15
391.036	14.24
391.401	14.09
391.766	14.13
392.131	14.3
392.496	14.29
392.861	14.39
393.226	14.4
393.591	14.3
393.956	14.61
394.32	14.68
394.685	14.53
395.05	14.86
395.414	14.62
395.779	14.8
396.143	14.7
396.508	14.79
396.872	15.24
397.236	14.97
397.601	15
397.965	15.08
398.329	14.92
398.694	15.71
399.058	15.14
399.422	15.24
399.786	15.28
400.15	15.43
400.514	15.03
400.878	15.38
401.242	15.47
401.605	15.52
401.969	15.71
402.333	15.31
402.697	15.81
403.06	15.61
403.424	15.72
403.787	15.96
404.151	15.98
404.514	16.08
404.878	15.79
405.241	15.92
405.604	15.89
405.968	16.04
406.331	16.04
406.694	15.92
407.057	16.01
407.42	16.33
407.783	16.19
408.146	16.27
408.509	16.39
408.872	16.47
409.235	16.53
409.598	16.25
409.961	16.46
410.323	16.69
410.686	16.53
411.049	16.64
411.411	16.68
411.774	16.96
412.136	16.91
412.499	16.79
412.861	16.8
413.223	16.37
413.586	17
413.948	16.98
414.31	17.12
414.672	17.08
415.035	17.07
415.397	17.37
415.759	17.18
416.121	17.32
416.483	17.32
416.845	17.24
417.206	17.22
417.568	17.13
417.93	17.22
418.292	17.33
418.653	17.24
419.015	17.4
419.377	17.15
419.738	17.25
420.1	17.41
420.461	17.62
420.822	17.32
421.184	17.38
421.545	17.29
421.906	17.27
422.267	17.24
422.629	17.4
422.99	17.4
423.351	17.32
423.712	17.41
424.073	17.73
424.434	17.82
424.795	17.65
425.155	17.77
425.516	17.65
425.877	17.77
426.238	17.64
426.598	17.91
426.959	17.88
427.32	18.14
427.68	18.28
428.041	18.39
428.401	18.44
428.761	18.72
429.122	18.65
429.482	18.72
429.842	18.92
430.202	18.74
430.563	19.21
430.923	18.87
431.283	18.74
431.643	18.73
432.003	18.79
432.363	18.81
432.722	19.18
433.082	19.31
433.442	18.89
433.802	19.31
434.161	19.17
434.521	19.22
434.881	18.96
435.24	18.99
435.6	19.24
435.959	19.26
436.319	19.22
436.678	19.4
437.037	19.6
437.396	19.74
437.756	19.54
438.115	19.61
438.474	19.68
438.833	19.67
439.192	19.9
439.551	19.72
439.91	19.94
440.269	19.62
440.628	19.79
440.987	19.69
441.345	19.8
441.704	19.82
442.063	19.76
442.421	19.76
442.78	19.76
443.138	19.84
443.497	20.03
443.855	20.24
444.214	20.24
444.572	20.39
444.93	20.2
445.288	20.48
445.647	20.35
446.005	20.4
446.363	20.37
446.721	20.25
447.079	20.36
447.437	20.34
447.795	20.17
448.153	20.13
448.51	20.15
448.868	20.2
449.226	20.33
449.584	20.59
449.941	20.61
450.299	20.71
450.656	20.97
451.014	20.89
451.371	21.12
451.729	21.13
452.086	21.26
452.443	21.31
452.801	21.28
453.158	21.14
453.515	21.32
453.872	21.4
454.229	21.34
454.586	21.39
454.943	21.49
455.3	21.47
455.657	21.7
456.014	21.34
456.371	21.56
456.727	21.64
457.084	21.71
457.441	21.59
457.797	21.78
458.154	21.56
458.51	21.78
458.867	21.85
459.223	21.8
459.58	22.16
459.936	21.86
460.292	21.99
460.648	21.71
461.005	21.71
461.361	21.59
461.717	21.54
462.073	21.6
462.429	21.78
462.785	21.95
463.141	22.15
463.496	22.17
463.852	22.29
464.208	22.42
464.564	22.47
464.919	22.71
465.275	22.69
465.631	22.83
465.986	22.78
466.342	22.74
466.697	22.84
467.052	22.68
467.408	22.9
467.763	22.67
468.118	22.75
468.473	22.58
468.829	22.7
469.184	22.73
469.539	22.85
469.894	23.03
470.249	22.89
470.603	22.99
470.958	23.19
471.313	23.08
471.668	23.36
472.023	23.19
472.377	23.28
472.732	23.35
473.086	23.17
473.441	23.34
473.795	23.3
474.15	23.25
474.504	23.54
474.859	23.45
475.213	23.57
475.567	23.64
475.921	23.53
476.275	23.56
476.63	23.79
476.984	23.8
477.338	23.55
477.692	23.97
478.045	23.66
478.399	23.75
478.753	23.93
479.107	23.63
479.461	23.77
479.814	23.72
480.168	23.85
480.521	23.93
480.875	23.97
481.228	23.87
481.582	24.14
481.935	23.95
482.289	24.03
482.642	23.93
482.995	23.87
483.348	23.82
483.701	23.83
484.055	23.76
484.408	23.66
484.761	23.34
485.114	22.96
485.466	22.92
485.819	23
486.172	23.09
486.525	23.24
486.878	23.44
487.23	23.6
487.583	23.68
487.936	23.88
488.288	23.74
488.641	23.51
488.993	23.5
489.345	23.34
489.698	23.44
490.05	23.63
490.402	23.78
490.754	24.01
491.107	24.12
491.459	24.27
491.811	24.43
492.163	24.37
492.515	24.31
492.866	24.11
493.218	23.78
493.57	23.87
493.922	24.06
494.274	24.31
494.625	24.52
494.977	24.73
495.328	24.9
495.68	25.01
496.031	25.2
496.383	25.22
496.734	25.38
497.086	25.29
497.437	25.31
497.788	25.19
498.139	25.01
498.49	25.06
498.842	25.08
499.193	25.28
499.544	25.2
499.894	25.27
500.245	25.36
500.596	25.5
500.947	25.52
501.298	25.73
501.648	25.49
501.999	25.59
502.35	25.81
502.7	25.81
503.051	25.97
503.401	25.94
503.752	26
504.102	26.15
504.452	25.83
504.803	26.07
505.153	26.05
505.503	25.91
505.853	25.91
506.203	25.96
506.553	25.97
506.903	26.11
507.253	26.16
507.603	26.17
507.953	26.33
508.303	26.34
508.652	26.23
509.002	26.33
509.352	26.28
509.701	26.26
510.051	26.27
510.4	26.1
510.75	26.05
511.099	26.11
511.449	26.19
511.798	26.24
512.147	26.41
512.496	26.35
512.846	26.4
513.195	26.35
513.544	26.43
513.893	26.53
514.242	26.52
514.591	26.68
514.939	26.54
515.288	26.62
515.637	26.5
515.986	26.81
516.334	26.67
516.683	26.87
517.032	27.06
517.38	26.84
517.729	26.98
518.077	27.02
518.426	26.91
518.774	26.97
519.122	26.83
519.47	26.71
519.819	26.62
520.167	26.39
520.515	26.36
520.863	26.58
521.211	26.78
521.559	26.78
521.907	26.84
522.255	26.87
522.602	27.12
522.95	27.14
523.298	27.34
523.645	27.16
523.993	27.29
524.341	27.48
524.688	27.54
525.036	27.39
525.383	27.17
525.73	27.39
526.078	27.44
526.425	27.29
526.772	27.22
527.119	26.83
527.466	26.82
527.814	27.01
528.161	26.95
528.508	27.14
528.854	27.03
529.201	26.97
529.548	26.81
529.895	26.61
530.242	26.42
530.588	26.46
530.935	26.66
531.282	26.64
531.628	26.81
531.975	27.06
532.321	27.17
532.667	27.31
533.014	27.46
533.36	27.4
533.706	27.51
534.052	27.51
534.399	27.3
534.745	27.09
535.091	27.04
535.437	27.17
535.783	27.19
536.129	27.47
536.474	27.6
536.82	27.7
537.166	27.9
537.512	27.88
537.857	27.73
538.203	27.6
538.549	27.49
538.894	27.79
539.239	27.9
539.585	28.03
539.93	28.14
540.276	28.2
540.621	28.42
540.966	28.57
541.311	28.47
541.656	28.4
542.001	28.36
542.346	28.01
542.691	27.54
543.036	27.46
543.381	27.63
543.726	27.8
544.071	27.82
544.415	27.84
544.76	28.17
545.105	27.99
545.449	28.35
545.794	28.46
546.138	28.5
546.483	28.67
546.827	28.59
547.171	28.61
547.516	28.53
547.86	28.63
548.204	28.64
548.548	28.43
548.892	28.56
549.236	28.64
549.58	28.89
549.924	28.93
550.268	29.39
550.612	29.21
550.956	29.25
551.3	29.36
551.643	29.5
551.987	29.43
552.33	29.49
552.674	29.33
553.017	29.22
553.361	29.23
553.704	29.62
554.048	29.42
554.391	29.31
554.734	29.44
555.077	29.34
555.42	29.47
555.764	29.49
556.107	29.74
556.45	29.69
556.793	29.83
557.135	29.83
557.478	29.96
557.821	29.84
558.164	30
558.507	30.11
558.849	29.78
559.192	29.96
559.534	29.86
559.877	29.97
560.219	30.12
560.562	30.11
560.904	29.78
561.246	29.96
561.589	29.92
561.931	29.99
562.273	30.22
562.615	30.08
562.957	30.1
563.299	30.22
563.641	30.03
563.983	30.12
564.325	30.21
564.667	30.47
565.008	30.41
565.35	30.6
565.692	30.41
566.033	30.19
566.375	30.16
566.716	30.39
567.058	30.23
567.399	30.2
567.741	30.19
568.082	30.28
568.423	30.27
568.764	30.27
569.105	30.11
569.447	30.49
569.788	30.44
570.129	30.41
570.47	30.39
570.811	30.4
571.151	30.57
571.492	30.74
571.833	30.6
572.174	30.51
572.514	30.57
572.855	30.51
573.195	30.59
573.536	30.55
573.876	30.52
574.217	30.44
574.557	30.62
574.898	30.7
575.238	30.8
575.578	30.57
575.918	30.69
576.258	30.87
576.598	30.69
576.938	30.85
577.278	30.85
577.618	30.81
577.958	30.72
578.298	30.93
578.638	31.17
578.977	30.94
579.317	31.01
579.657	31.48
579.996	30.96
580.336	31.15
580.675	31.23
581.014	31.1
581.354	31.25
581.693	31.39
582.032	31.52
582.372	31.41
582.711	31.29
583.05	31.43
583.389	31.52
583.728	31.66
584.067	31.68
584.406	31.61
584.745	31.68
585.083	31.47
585.422	31.76
585.761	31.31
586.1	31.74
586.438	32.12
586.777	31.9
587.115	31.94
587.454	32.07
587.792	31.74
588.13	31.72
588.469	31.86
588.807	31.89
589.145	31.66
589.483	31.82
589.821	31.96
590.159	31.98
590.497	32
590.835	31.77
591.173	32.01
591.511	31.79
591.849	31.97
592.187	31.8
592.524	31.98
592.862	32.15
593.2	32.15
593.537	31.9
593.875	32.15
594.212	32.15
594.55	32.14
594.887	32.28
595.224	32.19
595.561	32.38
595.899	31.99
596.236	32.02
596.573	32.22
596.91	32.02
597.247	31.85
597.584	32.37
597.921	32.23
598.258	32.05
598.594	31.95
598.931	31.97
599.268	31.95
599.604	32.16
599.941	31.96
600.277	32.31
600.614	32.49
600.95	32.66
601.287	32.45
601.623	32.57
601.959	32.71
602.296	32.75
602.632	32.47
602.968	32.91
603.304	32.57
603.64	32.61
603.976	32.62
604.312	32.55
604.648	32.63
604.984	32.6
605.319	32.46
605.655	32.56
605.991	32.41
606.326	32.16
606.662	32.39
606.998	32.39
607.333	32.39
607.668	32.68
608.004	32.57
608.339	32.71
608.674	32.96
609.01	32.75
609.345	32.93
609.68	32.9
610.015	33.33
610.35	32.92
610.685	32.79
611.02	32.37
611.355	32.48
611.689	32.7
612.024	32.81
612.359	32.98
612.694	33.13
613.028	33.3
613.363	33.02
613.697	32.98
614.032	33.38
614.366	32.99
614.7	33.39
615.035	33.19
615.369	33.42
615.703	33.3
616.037	33.47
616.371	33.42
616.705	33.53
617.039	33.62
617.373	33.43
617.707	32.96
618.041	33.94
618.375	33.79
618.709	33.64
619.042	33.23
619.376	33.73
619.71	33.68
620.043	33.82
620.377	34.08
620.71	33.44
621.043	33.79
621.377	33.61
621.71	33.68
622.043	33.62
622.376	33.48
622.709	33.74
623.043	33.68
623.376	33.98
623.709	33.53
624.041	33.7
624.374	34.02
624.707	33.53
625.04	33.6
625.373	33.67
625.705	33.85
626.038	33.86
626.37	34.18
626.703	34.41
627.035	33.83
627.368	33.86
627.7	34
628.032	33.74
628.365	33.74
628.697	34.09
629.029	33.85
629.361	34.24
629.693	34.03
630.025	34.11
630.357	34.1
630.689	34.19
631.021	33.95
631.353	34.56
631.684	34.23
632.016	34.29
632.348	34.24
632.679	34.21
633.011	34.3
633.342	34.65
633.674	34.45
634.005	34.14
634.336	34.02
634.668	34.3
634.999	34.76
635.33	34.61
635.661	34.38
635.992	34.44
636.323	34.33
636.654	34.37
636.985	34.34
637.316	34.26
637.647	34.21
637.977	34.56
638.308	34.76
638.639	34.37
638.969	34.42
639.3	34.7
639.63	34.59
639.961	34.64
640.291	34.58
640.622	34.5
640.952	34.8
641.282	34.58
641.612	34.83
641.943	35.03
642.273	35.27
642.603	34.53
642.933	34.09
643.263	35.04
643.592	35.09
643.922	34.62
644.252	35
644.582	35.07
644.911	34.9
645.241	34.87
645.571	35.05
645.9	34.93
646.23	34.72
646.559	34.62
646.888	34.89
647.218	34.83
647.547	35.48
647.876	34.64
648.205	34.79
648.534	34.54
648.863	34.98
649.192	34.85
649.521	35.16
649.85	34.62
650.179	34.73
650.508	34.89
650.837	35.29
651.165	35.39
651.494	35.18
651.822	35.08
652.151	35.17
652.479	35.21
652.808	35.15
653.136	35.29
653.465	34.66
653.793	34.93
654.121	35.43
654.449	35.5
654.777	35.76
655.105	35.53
655.433	35.65
655.761	35.62
656.089	35.35
656.417	34.9
656.745	35.73
657.073	36.08
657.4	35.86
657.728	35.29
658.056	35.73
658.383	35.29
658.711	36
659.038	35.16
659.365	35.52
659.693	35.82
660.02	35.64
660.347	35.51
660.674	35.61
661.001	35.46
661.329	35.81
661.656	35.67
661.982	35.49
662.309	35.33
662.636	35.98
662.963	35.7
663.29	35.15
663.616	35.44
663.943	35.43
664.27	35.55
664.596	35.88
664.923	35.88
665.249	35.77
665.576	35.89
665.902	35.74
666.228	35.93
666.554	35.62
666.881	36.02
667.207	35.27
667.533	35.72
667.859	36.4
668.185	36.21
668.511	36.6
668.837	36.12
669.162	35.89
669.488	36.01
669.814	35.81
670.139	35.96
670.465	36.66
670.791	36.19
671.116	36.18
671.442	36.24
671.767	36.25
672.092	35.82
672.418	35.66
672.743	36.25
673.068	36.62
673.393	36.23
673.718	36.65
674.043	36.59
674.368	36.16
674.693	36.01
675.018	36.48
675.343	36.47
675.667	36.51
675.992	36.18
676.317	37.07
676.641	36.18
676.966	36.59
677.29	35.98
677.615	36.39
677.939	36.28
678.264	36.46
678.588	36.22
678.912	36.51
679.236	36.05
679.56	36.68
679.885	37.13
680.209	36.36
680.532	37.03
680.856	37.05
681.18	36.6
681.504	36.86
681.828	37.32
682.152	36.01
682.475	36.5
682.799	36.64
683.122	36.9
683.446	36.59
683.769	37.26
684.093	36.93
684.416	37.26
684.739	36.85
685.062	37.15
685.386	37.59
685.709	37.09
686.032	37.66
686.355	36.82
686.678	36.37
687.001	36.98
687.324	37.01
687.646	36.76
687.969	37.01
688.292	36.44
688.614	37
688.937	37.39
689.26	37.33
689.582	37.74
689.904	36.34
690.227	37.17
690.549	36.78
690.871	37.02
691.194	36.44
691.516	37.13
691.838	37.47
692.16	37.02
692.482	36.94
692.804	38.22
693.126	36.84
693.448	36.95
693.769	37.27
694.091	36.88
694.413	37.97
694.735	37.48
695.056	37.4
695.378	36.5
695.699	37.27
696.021	36.59
696.342	36.85
696.663	37.01
696.984	36.81
697.306	37.74
697.627	37.45
697.948	37.29
698.269	38.63
698.59	37.47
698.911	37.06
699.232	37.46
699.553	38.32
699.873	37.45
700.194	37.19
700.515	37.32
700.835	37.06
701.156	37.32
701.477	37.75
701.797	36.85
702.117	37.72
702.438	36.93
702.758	37.75
703.078	38.37
703.398	38.3
703.719	37.43
704.039	37.72
704.359	37.36
704.679	38.37
704.999	37.15
705.319	37.83
705.638	38.03
705.958	37.91
706.278	38.55
706.597	37.27
706.917	36.95
707.237	38.37
707.556	38.07
707.876	37.75
708.195	37.51
708.514	38.03
708.834	37.67
709.153	37.59
709.472	38.52
709.791	38.09
710.11	37.37
710.429	38.19
710.748	38.2
711.067	37.9
711.386	37.67
711.705	39.19
712.023	38.88
712.342	38.14
712.661	38.92
712.979	37.73
713.298	38.02
713.616	38.05
713.935	37.88
714.253	38.65
714.572	37.54
714.89	38.44
715.208	37.91
715.526	38.03
715.844	39.38
716.162	38.41
716.48	38.18
716.798	37.93
717.116	38.14
717.434	38.97
717.752	37.63
718.069	38.42
718.387	37.38
718.705	38.37
719.022	38.61
719.34	39.73
719.657	37.7
719.975	38.72
720.292	38.09
720.609	37.37
720.927	37.74
721.244	38.85
721.561	39.16
721.878	38.42
722.195	39.33
722.512	38.57
722.829	39.02
723.146	38.79
723.463	39.16
723.779	38.82
724.096	38.75
724.413	38.6
724.729	37.87
725.046	37.59
725.362	39.84
725.679	39.14
725.995	38.68
726.311	38.28
726.628	37.73
726.944	40.02
727.26	39.47
727.576	37.68
727.892	39.38
728.208	37.62
728.524	39.26
728.84	38.23
729.156	39.39
729.472	39.34
729.787	38.25
730.103	38.67
730.419	38.31
730.734	40.02
731.05	39.5
731.365	40.07
731.681	39.03
731.996	38.8
732.311	38.93
732.626	39.76
732.942	39.2
733.257	38.88
733.572	39.47
733.887	38.05
734.202	38.49
734.517	38.62
734.832	38.96
735.146	39.08
735.461	38.11
735.776	37.81
736.091	39.1
736.405	38.89
736.72	38.53
737.034	39.53
737.349	38.84
737.663	39.42
737.977	38.64
738.292	38.94
738.606	38.46
738.92	39.17
739.234	39.37
739.548	38.75
739.862	39.44
740.176	39.99
740.49	41.52
740.804	40.18
741.117	39.4
741.431	40.56
741.745	39.52
742.058	40.66
742.372	40.26
742.685	39.85
742.999	40.89
743.312	40.4
743.626	38.32
743.939	40.52
744.252	39.2
744.565	40.47
744.878	40.74
745.191	38.56
745.505	40.84
745.817	38.41
746.13	40
746.443	38.18
746.756	39.07
747.069	40.07
747.381	40.03
747.694	39.86
748.007	40.13
748.319	38.72
748.632	39.87
748.944	40.82
749.256	41.02
749.569	38.56
749.881	39.75
750.193	39.4
750.505	41.01
750.817	40.05
751.129	38.61
751.441	40.64
751.753	39.83
752.065	38.86
752.377	39.85
752.689	39.33
753	39.58
753.312	41.05
753.624	38.81
753.935	42.28
754.247	40.36
754.558	41.32
754.869	39.78
755.181	40.77
755.492	38.83
755.803	40.22
756.114	38.97
756.425	40.31
756.736	39.13
757.047	39.27
757.358	39.36
757.669	39.09
757.98	40.13
758.291	39.69
758.601	40.01
758.912	40.23
759.223	39.86
759.533	40.06
759.844	41.24
760.154	38.4
760.464	41.85
760.775	38.62
761.085	40.35
761.395	40.92
761.705	40.38
762.016	38.97
762.326	38.35
762.636	40.24
762.945	40.93
763.255	41.4
763.565	40.94
763.875	41.4
764.185	40.46
764.494	38.2
764.804	39.55
765.113	39.58
765.423	40.77
765.732	39.1
766.042	39.54
766.351	40.69
766.66	40.19
766.97	41.6
767.279	40.4
767.588	40.94
767.897	39.34
768.206	40.21
768.515	39.99
768.824	41.2
769.133	40.13
769.441	39.89
769.75	39.93
770.059	40.37
770.367	40.05
770.676	39.14
770.984	42.6
771.293	41.82
771.601	39.17
771.91	39.72
772.218	40.64
772.526	40.33
772.834	42.89
773.142	42.06
773.45	41.01
773.758	38.65
774.066	42.91
774.374	39.48
774.682	41.66
774.99	39.94
775.298	39.34
775.605	41
775.913	41.11
776.22	40.83
776.528	39.12
776.835	43
777.143	42.83
777.45	42.87
777.757	40.85
778.065	40.2
778.372	38.39
778.679	43.94
778.986	42.95
779.293	40.81
779.6	38.42
779.907	41.31
780.214	39.98
780.52	41.57
780.827	43.36
781.134	39.7
781.44	43.93
781.747	40.62
782.053	39.12
782.36	40.26
782.666	41.82
782.973	41.47
783.279	45.29
783.585	39.44
783.891	39.61
784.197	40.7
784.503	44.33
784.809	43.4
785.115	41.06
785.421	43.47
785.727	38.59
786.033	40.67
786.339	41.8
786.644	40.7
786.95	44.03
787.255	42.65
787.561	39.31
787.866	41.3
788.172	43.04
788.477	45.52
788.782	43.07
789.088	42.19
789.393	40.48
789.698	42.32
790.003	38.95
790.308	40.54
790.613	42.5
790.918	38.74
791.223	41.5
791.527	45.37
791.832	43.59
792.137	39.09
792.441	44.2
792.746	39.36
793.05	39.44
793.355	42.04
793.659	39.23
793.963	41.61
794.268	41.98
794.572	44.79
794.876	38.21
795.18	43.11
795.484	44.02
795.788	43.59
796.092	43.34
796.396	41.38
796.7	40.58
797.004	45.57
797.307	39.54
797.611	40.62
797.915	42.65
798.218	43.37
798.522	40.43
798.825	42.19
799.128	41.56
799.432	46.04
799.735	44.58
800.038	44.42
800.341	41.48
800.644	39.54
800.947	40.66
801.25	39.22
801.553	44.75
801.856	44.08
802.159	42.52
802.462	42.8
802.764	44.56
803.067	42.58
803.37	40.65
803.672	45.44
803.975	39.82
804.277	41.72
804.579	41.44
804.882	42.09
805.184	40.03
805.486	45.08
805.788	44.53
806.09	39.13
806.392	43.82
806.694	39.26
806.996	41.5
807.298	43.72
807.6	44.35
807.902	40.87
808.203	41.62
808.505	45.14
808.807	46.55
809.108	44.7
809.409	42.08
809.711	41.89
810.012	39.97
810.313	37.99
810.615	43.3
810.916	50.66
811.217	42.84
811.518	36.88
811.819	40.52
812.12	43.89
812.421	40.01
812.722	40.25
813.023	44.09
813.323	48.14
813.624	45.13
813.925	38.8
814.225	41.28
814.526	37.56
814.826	45.95
815.126	41.2
815.427	41.46
815.727	41.37
816.027	40.13
816.327	45.91
816.627	46.6
816.927	42.98
817.227	45.03
817.527	37.36
817.827	47.69
818.127	38.37
818.427	44.27
818.727	37.47
819.026	43.22
819.326	42.31
819.625	40.58
819.925	41.21
820.224	41.27
820.524	47.56
820.823	43.67
821.122	46.79
821.421	43.19
821.72	44.93
822.019	43.04
822.318	42.18
822.617	43.92
822.916	41.47
823.215	41.77
823.514	44.41
823.813	44.2
824.111	42.38
824.41	42.52
824.709	42.69
825.007	42.23
825.306	42.17
825.604	41.84
825.902	41.59
826.201	41.73
826.499	41.03
826.797	42.9
827.095	43.6
827.393	42
827.691	43.37
827.989	41.83
828.287	44.02
828.585	45.54
828.882	39.37
829.18	39.41
829.478	42.39
829.775	43.63
830.073	41.52
830.37	42.8
830.668	43.18
830.965	38.91
831.263	41.8
831.56	41.68
831.857	42.41
832.154	43.9
832.451	42.04
832.748	42.24
833.045	45.53
833.342	46.96
833.639	46.75
833.936	45.97
834.232	47.11
834.529	45.88
834.826	41.46
835.122	45.76
835.419	41.71
835.715	41.19
836.012	39.63
836.308	41.17
836.604	43.68
836.901	42.78
837.197	43.66
837.493	42.05
837.789	45.06
838.085	43.39
838.381	42.41
838.677	40.24
838.972	42
839.268	42.49
839.564	40.08
839.86	43.97
840.155	42.83
840.451	45.5
840.746	40
841.042	51.96
841.337	45.91
841.632	40.11
841.928	45.51
842.223	51.38
842.518	45.28
842.813	51.18
843.108	36.62
843.403	48.42
843.698	42.21
843.993	43.79
844.287	44.77
844.582	39.88
844.877	46.64
845.171	38.76
845.466	49.32
845.761	49.96
846.055	44.38
846.349	47.27
846.644	47.12
846.938	43.5
847.232	47.5
847.526	44.72
847.82	59.21
848.114	28.01
848.408	56.97
848.702	44.42
848.996	27.56
849.29	37.69
849.584	34.23
849.877	39.83
850.171	39.05
850.465	56.38
850.758	47.59
851.052	44.01
851.345	44.68
851.638	56.42
851.932	52.02
852.225	46.97
852.518	40.03
852.811	36.28
853.104	40.2
853.397	56.21
853.69	46.5
853.983	46.71
854.276	45.53
854.569	43.84
854.861	45.02
855.154	46.24
855.447	44.32
855.739	50.54
856.032	34.46
856.324	46.7
856.616	55.61
856.909	48.08
857.201	31.13
857.493	38.51
857.785	45.02
858.077	52.4
858.369	35.99
858.661	49.25
858.953	58.32
859.245	52.75
859.537	25.53
859.829	45.27
860.12	47.4
860.412	53.7
860.703	29.05
860.995	32.39
861.286	44.06
861.578	30.58
861.869	53.63
862.16	39.59
862.452	41.23
862.743	37.14
863.034	50.39
863.325	58.15
863.616	65.44
863.907	34.54
864.198	35
864.488	61.92
864.779	35.21
865.07	57.46
865.36	41.59
865.651	30.87
865.941	50.18
866.232	48.48
866.522	40.08
866.813	28.57
867.103	58.13
867.393	55.34
867.683	40.4
867.973	64.03
868.263	28.64
868.553	40.87
868.843	34.06
869.133	35.76
869.423	51.3
869.713	46.31
870.002	42.85
870.292	59.01
870.582	39.4
870.871	41.37
871.161	26.12
871.45	63.08
871.739	9.06
872.029	59.01
872.318	64.56
872.607	55.49
872.896	53.81
873.185	27.96
873.474	66.87
873.763	25.1
874.052	61.22
874.341	53.76
874.63	59.61
874.918	52.17
875.207	49.23
875.496	45.55
875.784	67.02
876.073	45.71
876.361	61.55
876.649	48.76
876.938	46.93
877.226	58.16
877.514	56.47
877.802	56.62
878.09	64.83
878.378	63.56
878.666	3.99
878.954	38.22
879.242	46.29
879.53	52.05
879.817	22.17
880.105	23.66
880.392	14.32
880.68	19.42
880.967	34.12
881.255	26.45
881.542	39.03
881.83	56.59
882.117	28.76
882.404	57.9
882.691	45.48
882.978	54.89
883.265	52.61
883.552	46.25
883.839	49.1
884.126	49.28
884.413	50.98
884.699	45.34
884.986	43.89
885.273	51.3
885.559	51.3
885.846	51.3
