Data from 20-2_forehead_Reflection__2__42.txt Node

Date: Fri Nov 11 20:29:59 CST 2022
User: ToomeyLab
Spectrometer: FLMS14357
Trigger mode: 0
Integration Time (sec): 1.000000E-2
Scans to average: 100
Electric dark correction enabled: true
Nonlinearity correction enabled: false
Boxcar width: 0
XAxis mode: Wavelengths
Number of Pixels in Spectrum: 2048
>>>>>Begin Spectral Data<<<<<
189.047	181.2
189.435	181.2
189.823	181.2
190.211	-84.7
190.599	15.89
190.987	270.72
191.375	462.09
191.763	57
192.151	-56.12
192.538	-2.16
192.926	156.04
193.314	241.45
193.702	38.07
194.089	89.35
194.477	-183.83
194.864	8.96
195.252	282.66
195.639	-116.35
196.027	-69.2
196.414	52.52
196.801	1367
197.189	-43.37
197.576	-68.52
197.963	-7.21
198.351	-45.59
198.738	0.91
199.125	54.05
199.512	47.5
199.899	-39.81
200.286	-21.77
200.673	5.53
201.06	37.2
201.447	28.96
201.833	9.66
202.22	-18.5
202.607	33.89
202.994	21.92
203.38	24.05
203.767	8.76
204.154	21.79
204.54	12.7
204.927	25.83
205.313	2.48
205.699	13.34
206.086	27.92
206.472	31.38
206.858	32.4
207.245	48.22
207.631	12.41
208.017	11.83
208.403	2.91
208.789	19.55
209.175	-16.72
209.561	31.63
209.947	-11.42
210.333	-22.98
210.719	2.74
211.105	52.84
211.491	26.4
211.876	13.31
212.262	45.74
212.648	19.6
213.034	30.93
213.419	-9.37
213.805	32.84
214.19	20.93
214.576	26.24
214.961	-29.3
215.346	-31.96
215.732	-21.64
216.117	31.61
216.502	30.17
216.888	3.15
217.273	31.55
217.658	0.58
218.043	35.7
218.428	41
218.813	0.67
219.198	-12.94
219.583	31.52
219.968	10.88
220.353	-18.74
220.738	-38.29
221.122	-2.12
221.507	-11.42
221.892	-5.82
222.276	16.83
222.661	26.1
223.046	-10.4
223.43	-1.99
223.815	6.3
224.199	7.94
224.583	-3.57
224.968	0.26
225.352	6.27
225.736	2.2
226.121	-1.48
226.505	2
226.889	-5.58
227.273	6.6
227.657	-1.99
228.041	-0.12
228.425	0.37
228.809	1.97
229.193	2.71
229.577	2.39
229.961	1.98
230.344	2.33
230.728	0.36
231.112	0.75
231.495	2.08
231.879	2.59
232.263	1.16
232.646	0.62
233.03	0.82
233.413	2.4
233.797	1.83
234.18	2.69
234.563	1.52
234.946	2.7
235.33	2.44
235.713	1.09
236.096	1.83
236.479	1.84
236.862	2.87
237.245	2.72
237.628	3.29
238.011	2.15
238.394	3.14
238.777	2.83
239.16	1.82
239.543	1.3
239.925	1.25
240.308	2.22
240.691	3.66
241.073	2.42
241.456	1.31
241.838	3.55
242.221	2.73
242.603	2.31
242.986	1.62
243.368	2.03
243.75	2.03
244.133	1.7
244.515	1.38
244.897	2.51
245.279	2
245.661	1.92
246.043	1.96
246.425	2.04
246.807	2.84
247.189	1.02
247.571	1.65
247.953	1.83
248.335	1.82
248.717	2.04
249.098	2.09
249.48	1.53
249.862	2.13
250.243	1.69
250.625	1.78
251.006	3.18
251.388	1.83
251.769	2.29
252.151	1.76
252.532	1.8
252.913	2.46
253.295	2.17
253.676	1.33
254.057	1.24
254.438	1.86
254.819	1.91
255.2	2.37
255.581	3.04
255.962	2.18
256.343	1.89
256.724	2.29
257.105	2.75
257.486	2.35
257.867	3.15
258.247	1.7
258.628	1.77
259.009	1.46
259.389	1.42
259.77	2.7
260.15	1.96
260.531	1.73
260.911	1.89
261.292	2.1
261.672	1.81
262.052	1.89
262.432	2.28
262.813	2.11
263.193	1.79
263.573	1.86
263.953	1.85
264.333	2.28
264.713	1.56
265.093	2.45
265.473	1.18
265.853	2.07
266.233	2.22
266.612	1.39
266.992	1.63
267.372	1.93
267.752	1.57
268.131	1.48
268.511	1.97
268.89	1.97
269.27	1.54
269.649	1.73
270.029	2.29
270.408	1.65
270.787	2.09
271.167	1.49
271.546	1.99
271.925	2.1
272.304	2.21
272.683	1.7
273.062	1.75
273.441	1.74
273.82	1.6
274.199	1.67
274.578	1.44
274.957	1.81
275.336	2.06
275.715	2.5
276.093	1.47
276.472	1.13
276.851	2.09
277.229	1.56
277.608	2.07
277.986	2.38
278.365	1.77
278.743	1.91
279.122	2.39
279.5	2.04
279.878	2.28
280.257	1.96
280.635	1.74
281.013	1.7
281.391	1.76
281.769	2.17
282.147	1.6
282.525	1.41
282.903	1.75
283.281	2.11
283.659	1.91
284.037	1.96
284.415	2.09
284.792	2.23
285.17	2.31
285.548	1.83
285.925	1.36
286.303	1.79
286.68	1.92
287.058	1.82
287.435	1.59
287.813	1.85
288.19	1.63
288.567	1.97
288.945	2.21
289.322	2.2
289.699	1.82
290.076	2.13
290.453	2.07
290.83	1.9
291.207	1.73
291.584	2.22
291.961	1.6
292.338	1.79
292.715	2.28
293.092	2.24
293.469	1.53
293.845	2.59
294.222	1.59
294.599	2.58
294.975	2.42
295.352	2.14
295.728	2.07
296.105	2.16
296.481	1.98
296.858	2.01
297.234	2.3
297.61	1.85
297.986	2.44
298.363	2.26
298.739	2.25
299.115	2.4
299.491	2.74
299.867	2.49
300.243	2.44
300.619	2.59
300.995	2.8
301.371	3.22
301.746	2.82
302.122	2.74
302.498	2.72
302.874	2.81
303.249	2.85
303.625	2.29
304	1.73
304.376	3.18
304.751	2.36
305.127	2.65
305.502	2.9
305.878	3.1
306.253	2.78
306.628	2.58
307.003	2.69
307.378	2.68
307.754	3.02
308.129	3.22
308.504	2.68
308.879	2.84
309.254	2.95
309.629	2.64
310.003	2.57
310.378	3.38
310.753	3.66
311.128	3.69
311.502	3.52
311.877	3.22
312.252	3
312.626	3.17
313.001	3.33
313.375	3.28
313.75	3.05
314.124	2.95
314.498	3.44
314.873	2.77
315.247	3.07
315.621	3.89
315.995	3.53
316.369	3.28
316.743	3.19
317.117	3.6
317.491	3.02
317.865	3.47
318.239	3.54
318.613	3.76
318.987	4.12
319.361	3.68
319.734	3.84
320.108	3.57
320.482	3.96
320.855	3.92
321.229	3.86
321.602	3.91
321.976	3.53
322.349	4.3
322.723	3.71
323.096	3.64
323.469	4.31
323.843	4.26
324.216	3.9
324.589	4.29
324.962	4.15
325.335	3.69
325.708	4.04
326.081	4.31
326.454	4.16
326.827	3.99
327.2	4.48
327.573	4.91
327.945	4.19
328.318	3.73
328.691	4.25
329.063	4.4
329.436	4.11
329.809	3.7
330.181	4.26
330.553	4.08
330.926	4.17
331.298	4.82
331.671	4.37
332.043	4.07
332.415	3.84
332.787	4.68
333.159	4.25
333.532	4.56
333.904	4.82
334.276	4.38
334.648	4.53
335.02	4.56
335.391	4.67
335.763	4.37
336.135	4.21
336.507	4.64
336.879	4.54
337.25	4.08
337.622	4.64
337.993	5.02
338.365	4.8
338.736	4.77
339.108	4.88
339.479	4.46
339.851	4.66
340.222	4.98
340.593	5.05
340.964	4.86
341.336	5.54
341.707	4.67
342.078	4.06
342.449	4.72
342.82	5.08
343.191	5.04
343.562	5.26
343.933	4.67
344.303	4.68
344.674	5.22
345.045	4.79
345.416	5.03
345.786	5.29
346.157	4.88
346.527	4.95
346.898	4.48
347.268	4.97
347.639	4.95
348.009	4.92
348.38	5.26
348.75	5.05
349.12	5.36
349.49	5.27
349.861	4.9
350.231	4.82
350.601	5.36
350.971	5.35
351.341	5.51
351.711	5.14
352.081	5.67
352.45	5.39
352.82	5.13
353.19	5.66
353.56	5.05
353.929	5.26
354.299	5.17
354.669	5.32
355.038	5.13
355.408	5.61
355.777	5.31
356.147	5.35
356.516	5.39
356.885	5.86
357.254	5.52
357.624	5.07
357.993	5.6
358.362	5.41
358.731	4.97
359.1	5.44
359.469	5.09
359.838	5.4
360.207	5.94
360.576	5.66
360.945	5.69
361.314	5.38
361.682	5.55
362.051	5.63
362.42	5.78
362.788	5.77
363.157	5.62
363.525	5.48
363.894	5.64
364.262	5.68
364.631	5.88
364.999	5.8
365.367	5.8
365.735	5.9
366.104	5.52
366.472	5.71
366.84	5.6
367.208	5.74
367.576	5.99
367.944	6.22
368.312	5.91
368.68	5.68
369.048	6.07
369.416	5.91
369.783	6.08
370.151	6.18
370.519	6.25
370.886	6.11
371.254	6.52
371.621	5.92
371.989	6.05
372.356	6.09
372.724	6.36
373.091	6.51
373.458	6.09
373.826	6
374.193	6.26
374.56	6.01
374.927	6.17
375.294	6
375.661	6.57
376.028	6.07
376.395	6.42
376.762	6.55
377.129	6.44
377.496	6.14
377.863	6.51
378.229	6.38
378.596	6.27
378.963	6.33
379.329	6.32
379.696	6.33
380.062	6.59
380.429	6.6
380.795	6.5
381.161	6.55
381.528	6.53
381.894	6.61
382.26	6.9
382.626	6.81
382.993	6.6
383.359	6.71
383.725	6.59
384.091	6.58
384.457	6.5
384.823	6.76
385.188	6.72
385.554	6.49
385.92	6.65
386.286	6.55
386.651	6.8
387.017	6.61
387.383	6.79
387.748	6.7
388.114	6.64
388.479	6.92
388.845	6.72
389.21	6.65
389.575	7.11
389.94	6.86
390.306	6.76
390.671	7.12
391.036	7.02
391.401	7.17
391.766	7.09
392.131	7.03
392.496	7
392.861	6.98
393.226	6.97
393.591	6.96
393.956	7.05
394.32	7.07
394.685	6.87
395.05	7.09
395.414	6.98
395.779	6.85
396.143	7.11
396.508	7.15
396.872	7.14
397.236	7.24
397.601	7.18
397.965	7.26
398.329	7.33
398.694	7.32
399.058	7.36
399.422	7.21
399.786	7.1
400.15	7.19
400.514	7.44
400.878	7.36
401.242	7.32
401.605	7.46
401.969	7.44
402.333	7.48
402.697	7.35
403.06	7.48
403.424	7.29
403.787	7.77
404.151	7.28
404.514	7.47
404.878	7.5
405.241	7.48
405.604	7.46
405.968	7.38
406.331	7.06
406.694	7.48
407.057	7.51
407.42	7.6
407.783	7.5
408.146	7.62
408.509	7.7
408.872	7.63
409.235	7.53
409.598	7.75
409.961	7.91
410.323	7.67
410.686	7.81
411.049	7.69
411.411	7.5
411.774	7.65
412.136	7.48
412.499	7.66
412.861	7.74
413.223	7.62
413.586	7.66
413.948	8
414.31	7.95
414.672	7.92
415.035	7.76
415.397	7.79
415.759	7.73
416.121	7.88
416.483	7.78
416.845	7.82
417.206	7.6
417.568	7.83
417.93	7.78
418.292	7.68
418.653	7.81
419.015	7.86
419.377	7.83
419.738	7.97
420.1	7.67
420.461	7.86
420.822	7.84
421.184	7.96
421.545	7.92
421.906	7.87
422.267	7.81
422.629	7.72
422.99	7.8
423.351	7.83
423.712	7.91
424.073	8.07
424.434	8.1
424.795	8.1
425.155	7.99
425.516	8.04
425.877	8.06
426.238	8.12
426.598	8.02
426.959	8.03
427.32	8.34
427.68	8.22
428.041	8.25
428.401	8.26
428.761	8.41
429.122	8.42
429.482	8.41
429.842	8.54
430.202	8.5
430.563	8.51
430.923	8.43
431.283	8.4
431.643	8.49
432.003	8.72
432.363	8.47
432.722	8.83
433.082	8.71
433.442	8.86
433.802	8.63
434.161	8.76
434.521	8.77
434.881	8.85
435.24	8.59
435.6	8.69
435.959	8.84
436.319	8.59
436.678	8.82
437.037	8.71
437.396	8.72
437.756	8.8
438.115	8.84
438.474	8.93
438.833	8.87
439.192	8.91
439.551	9.07
439.91	9.15
440.269	8.97
440.628	9.12
440.987	9.07
441.345	8.94
441.704	9
442.063	9
442.421	9.11
442.78	8.83
443.138	9.01
443.497	9.09
443.855	9.18
444.214	9.12
444.572	9.36
444.93	9.06
445.288	9.15
445.647	9.33
446.005	9.17
446.363	9.27
446.721	9.46
447.079	9.41
447.437	9.14
447.795	9.2
448.153	9.19
448.51	9.25
448.868	9.34
449.226	9.37
449.584	9.32
449.941	9.34
450.299	9.32
450.656	9.5
451.014	9.56
451.371	9.58
451.729	9.52
452.086	9.6
452.443	9.57
452.801	9.72
453.158	9.56
453.515	9.68
453.872	9.6
454.229	9.71
454.586	9.71
454.943	9.83
455.3	9.92
455.657	9.85
456.014	10.08
456.371	10.02
456.727	9.93
457.084	9.66
457.441	9.95
457.797	9.95
458.154	10.03
458.51	10.09
458.867	9.87
459.223	10.07
459.58	9.93
459.936	10.03
460.292	10.09
460.648	10.02
461.005	10.04
461.361	9.96
461.717	9.82
462.073	9.9
462.429	10.01
462.785	10.01
463.141	10.09
463.496	10.34
463.852	10.37
464.208	10.37
464.564	10.21
464.919	10.36
465.275	10.33
465.631	10.4
465.986	10.58
466.342	10.25
466.697	10.46
467.052	10.5
467.408	10.57
467.763	10.47
468.118	10.46
468.473	10.56
468.829	10.59
469.184	10.41
469.539	10.71
469.894	10.68
470.249	10.76
470.603	10.57
470.958	10.71
471.313	10.78
471.668	10.85
472.023	10.69
472.377	10.95
472.732	10.72
473.086	10.73
473.441	10.81
473.795	10.58
474.15	10.86
474.504	10.98
474.859	10.9
475.213	11.14
475.567	10.96
475.921	11.03
476.275	10.88
476.63	11.03
476.984	11.1
477.338	11.03
477.692	10.88
478.045	10.98
478.399	11.05
478.753	10.84
479.107	11.13
479.461	10.97
479.814	11.07
480.168	11.09
480.521	11.25
480.875	11.09
481.228	11.14
481.582	11.28
481.935	11.12
482.289	11.16
482.642	11.16
482.995	11.11
483.348	10.94
483.701	11.06
484.055	11.03
484.408	10.95
484.761	10.73
485.114	10.54
485.466	10.44
485.819	10.46
486.172	10.62
486.525	10.77
486.878	10.97
487.23	10.99
487.583	11.02
487.936	11.05
488.288	11.09
488.641	10.87
488.993	10.85
489.345	10.82
489.698	10.85
490.05	10.89
490.402	11.09
490.754	11.19
491.107	11.2
491.459	11.32
491.811	11.43
492.163	11.35
492.515	11.43
492.866	11.22
493.218	11.02
493.57	11.1
493.922	11.21
494.274	11.49
494.625	11.61
494.977	11.7
495.328	11.76
495.68	11.83
496.031	11.94
496.383	12.06
496.734	11.98
497.086	12.04
497.437	12.03
497.788	11.83
498.139	11.87
498.49	11.65
498.842	11.83
499.193	12.1
499.544	12.04
499.894	11.98
500.245	12.09
500.596	12.06
500.947	12.15
501.298	12.26
501.648	12.22
501.999	12.35
502.35	12.47
502.7	12.25
503.051	12.35
503.401	12.39
503.752	12.23
504.102	12.35
504.452	12.5
504.803	12.44
505.153	12.33
505.503	12.62
505.853	12.5
506.203	12.61
506.553	12.36
506.903	12.51
507.253	12.56
507.603	12.65
507.953	12.63
508.303	12.44
508.652	12.6
509.002	12.6
509.352	12.55
509.701	12.63
510.051	12.56
510.4	12.58
510.75	12.54
511.099	12.6
511.449	12.67
511.798	12.52
512.147	12.7
512.496	12.71
512.846	12.88
513.195	12.75
513.544	12.68
513.893	12.69
514.242	12.85
514.591	12.85
514.939	12.79
515.288	12.83
515.637	12.98
515.986	12.94
516.334	12.95
516.683	13.01
517.032	13.05
517.38	13.14
517.729	13.03
518.077	13.01
518.426	13.03
518.774	12.97
519.122	13.04
519.47	13.03
519.819	12.94
520.167	12.8
520.515	12.81
520.863	13.08
521.211	13.02
521.559	13.14
521.907	13.23
522.255	13.24
522.602	13.24
522.95	13.32
523.298	13.49
523.645	13.45
523.993	13.46
524.341	13.56
524.688	13.53
525.036	13.4
525.383	13.52
525.73	13.38
526.078	13.46
526.425	13.3
526.772	13.36
527.119	13.1
527.466	13.23
527.814	13.27
528.161	13.34
528.508	13.3
528.854	13.27
529.201	13.18
529.548	13.03
529.895	12.9
530.242	12.76
530.588	12.91
530.935	12.95
531.282	13.16
531.628	13.26
531.975	13.4
532.321	13.43
532.667	13.63
533.014	13.53
533.36	13.58
533.706	13.66
534.052	13.52
534.399	13.4
534.745	13.34
535.091	13.31
535.437	13.43
535.783	13.58
536.129	13.73
536.474	13.85
536.82	13.79
537.166	13.87
537.512	13.94
537.857	13.78
538.203	13.71
538.549	13.88
538.894	13.79
539.239	13.9
539.585	14.11
539.93	14.17
540.276	14.3
540.621	14.38
540.966	14.36
541.311	14.27
541.656	14.21
542.001	14.2
542.346	13.92
542.691	13.83
543.036	13.64
543.381	13.7
543.726	13.85
544.071	14.06
544.415	14.16
544.76	14.18
545.105	14.09
545.449	14.16
545.794	14.36
546.138	14.4
546.483	14.57
546.827	14.46
547.171	14.65
547.516	14.45
547.86	14.5
548.204	14.53
548.548	14.49
548.892	14.51
549.236	14.65
549.58	14.84
549.924	14.84
550.268	14.97
550.612	15.1
550.956	15.15
551.3	15.13
551.643	14.94
551.987	15.16
552.33	15.14
552.674	15.05
553.017	15.26
553.361	15.11
553.704	15.16
554.048	15.11
554.391	15.15
554.734	15.19
555.077	15.35
555.42	15.28
555.764	15.23
556.107	15.38
556.45	15.49
556.793	15.46
557.135	15.37
557.478	15.54
557.821	15.63
558.164	15.52
558.507	15.62
558.849	15.57
559.192	15.55
559.534	15.74
559.877	15.58
560.219	15.74
560.562	15.83
560.904	15.79
561.246	15.4
561.589	15.69
561.931	15.52
562.273	15.83
562.615	15.71
562.957	15.79
563.299	15.76
563.641	15.94
563.983	15.82
564.325	15.91
564.667	16.01
565.008	15.97
565.35	15.95
565.692	15.94
566.033	15.96
566.375	16
566.716	15.89
567.058	15.91
567.399	16.02
567.741	15.95
568.082	15.86
568.423	16.06
568.764	16.12
569.105	15.98
569.447	16.42
569.788	16.04
570.129	16.01
570.47	16.2
570.811	16.25
571.151	16.57
571.492	16.3
571.833	16.22
572.174	16.49
572.514	16.33
572.855	16.28
573.195	16.03
573.536	16.39
573.876	16.29
574.217	16.33
574.557	16.29
574.898	16.45
575.238	16.39
575.578	16.33
575.918	16.53
576.258	16.57
576.598	16.48
576.938	16.72
577.278	16.34
577.618	16.57
577.958	16.54
578.298	16.61
578.638	16.66
578.977	16.9
579.317	16.94
579.657	16.93
579.996	16.84
580.336	16.71
580.675	17.06
581.014	16.97
581.354	16.93
581.693	17.07
582.032	17.08
582.372	17.1
582.711	17.11
583.05	16.92
583.389	17.26
583.728	17.24
584.067	17.33
584.406	17.04
584.745	17.22
585.083	17.18
585.422	17.18
585.761	17.3
586.1	17.26
586.438	17.21
586.777	17.21
587.115	17.48
587.454	17.34
587.792	17.68
588.13	17.46
588.469	17.11
588.807	17.52
589.145	17.5
589.483	17.74
589.821	17.6
590.159	17.62
590.497	17.71
590.835	17.57
591.173	17.26
591.511	17.61
591.849	17.5
592.187	17.59
592.524	17.62
592.862	17.59
593.2	17.96
593.537	17.94
593.875	18.06
594.212	17.77
594.55	17.94
594.887	17.84
595.224	17.7
595.561	17.77
595.899	17.66
596.236	17.84
596.573	17.81
596.91	17.71
597.247	17.79
597.584	17.72
597.921	17.73
598.258	17.63
598.594	17.77
598.931	17.45
599.268	17.73
599.604	17.95
599.941	17.84
600.277	18.05
600.614	18.39
600.95	17.9
601.287	18.24
601.623	18.42
601.959	18.35
602.296	18.17
602.632	18.29
602.968	18.28
603.304	18.57
603.64	18.5
603.976	18.28
604.312	18.29
604.648	18.16
604.984	18.02
605.319	18.11
605.655	18.21
605.991	18.23
606.326	18.3
606.662	18.16
606.998	18.22
607.333	18.27
607.668	18.4
608.004	18.41
608.339	18.49
608.674	18.4
609.01	18.6
609.345	18.52
609.68	18.26
610.015	18.64
610.35	18.52
610.685	18.66
611.02	18.27
611.355	18.46
611.689	18.38
612.024	18.59
612.359	18.75
612.694	18.78
613.028	18.96
613.363	18.66
613.697	19.18
614.032	18.92
614.366	18.82
614.7	19.1
615.035	18.78
615.369	19.06
615.703	19.33
616.037	19.02
616.371	19.03
616.705	19.15
617.039	19.19
617.373	18.54
617.707	19.12
618.041	19.08
618.375	19.12
618.709	19.2
619.042	19.34
619.376	19.44
619.71	19.44
620.043	19.38
620.377	19.21
620.71	19.44
621.043	19.34
621.377	19.19
621.71	19.32
622.043	19.59
622.376	19.38
622.709	19.14
623.043	19.76
623.376	19.68
623.709	19.69
624.041	19.9
624.374	19.41
624.707	19.7
625.04	19.51
625.373	19.27
625.705	19.6
626.038	19.58
626.37	19.66
626.703	19.66
627.035	19.78
627.368	19.46
627.7	19.34
628.032	19.55
628.365	19.68
628.697	19.49
629.029	19.73
629.361	19.35
629.693	19.82
630.025	19.72
630.357	19.8
630.689	19.73
631.021	19.72
631.353	19.99
631.684	19.66
632.016	19.73
632.348	19.54
632.679	20.01
633.011	19.7
633.342	19.74
633.674	19.94
634.005	19.74
634.336	19.88
634.668	20.09
634.999	20.07
635.33	19.83
635.661	20.36
635.992	19.92
636.323	20.1
636.654	20.3
636.985	20.12
637.316	20.01
637.647	20.33
637.977	20.2
638.308	20.4
638.639	20.06
638.969	20.52
639.3	20.67
639.63	20.15
639.961	20.26
640.291	20.7
640.622	20.46
640.952	20.33
641.282	20.05
641.612	20.55
641.943	20.81
642.273	20.47
642.603	20.71
642.933	20.58
643.263	20.48
643.592	20.73
643.922	21.1
644.252	20.53
644.582	20.66
644.911	20.68
645.241	20.83
645.571	20.71
645.9	21.09
646.23	21.02
646.559	20.53
646.888	20.74
647.218	20.68
647.547	20.73
647.876	20.64
648.205	20.92
648.534	20.35
648.863	20.55
649.192	20.36
649.521	20.96
649.85	21.41
650.179	20.83
650.508	21.35
650.837	21.07
651.165	20.94
651.494	21.18
651.822	20.88
652.151	20.61
652.479	20.46
652.808	20.64
653.136	21.02
653.465	21.25
653.793	21.33
654.121	21.1
654.449	20.9
654.777	21.56
655.105	21.43
655.433	21.21
655.761	21.24
656.089	21.3
656.417	21.39
656.745	21.6
657.073	21.22
657.4	21.31
657.728	21.32
658.056	21.5
658.383	21.31
658.711	21.39
659.038	21.7
659.365	21.05
659.693	21.09
660.02	21.47
660.347	21.2
660.674	21.08
661.001	21.22
661.329	21.08
661.656	21.2
661.982	21.58
662.309	21.49
662.636	21.82
662.963	21.64
663.29	21.34
663.616	21.34
663.943	21.4
664.27	21.71
664.596	21.74
664.923	21.51
665.249	22.51
665.576	22.14
665.902	22.11
666.228	21.74
666.554	22.31
666.881	21.42
667.207	22.07
667.533	21.88
667.859	22.13
668.185	21.61
668.511	21.93
668.837	22
669.162	21.94
669.488	21.69
669.814	22.18
670.139	21.94
670.465	21.39
670.791	21.96
671.116	21.63
671.442	21.82
671.767	22.18
672.092	22.18
672.418	21.58
672.743	21.97
673.068	22.51
673.393	22.49
673.718	21.93
674.043	22.33
674.368	22.43
674.693	21.44
675.018	22.25
675.343	22.4
675.667	22.76
675.992	22.66
676.317	21.84
676.641	21.93
676.966	22.51
677.29	22.02
677.615	23
677.939	22.54
678.264	21.96
678.588	22.75
678.912	22.09
679.236	22.44
679.56	22.39
679.885	22.06
680.209	22.62
680.532	22.73
680.856	23.02
681.18	22.45
681.504	22.45
681.828	22.04
682.152	22.33
682.475	22.36
682.799	22.31
683.122	22.76
683.446	22.7
683.769	22.71
684.093	23.12
684.416	22.15
684.739	23.05
685.062	22.1
685.386	23.12
685.709	23.02
686.032	21.59
686.355	22.58
686.678	22.62
687.001	22.78
687.324	22.79
687.646	22.37
687.969	22.97
688.292	22.96
688.614	22.67
688.937	22.59
689.26	22.37
689.582	23.07
689.904	23.44
690.227	23.24
690.549	22.86
690.871	23.07
691.194	22.73
691.516	22.5
691.838	22.53
692.16	23.52
692.482	22.79
692.804	22.41
693.126	22.37
693.448	23.19
693.769	23
694.091	23.39
694.413	23.31
694.735	23.46
695.056	22.38
695.378	23.5
695.699	23.39
696.021	22.5
696.342	23.35
696.663	23.77
696.984	23.82
697.306	23.19
697.627	23.42
697.948	22.65
698.269	24
698.59	22.95
698.911	23.23
699.232	23.23
699.553	23.34
699.873	23.57
700.194	23.4
700.515	22.9
700.835	23.24
701.156	23.34
701.477	23.1
701.797	23.27
702.117	23.86
702.438	23.82
702.758	22.68
703.078	23.64
703.398	23.82
703.719	23.77
704.039	23.56
704.359	24.25
704.679	23.91
704.999	23.19
705.319	23.29
705.638	24.58
705.958	24.39
706.278	24.03
706.597	23.05
706.917	23.37
707.237	23.91
707.556	24.15
707.876	25.42
708.195	23.93
708.514	24.23
708.834	25.14
709.153	24.16
709.472	24.15
709.791	24.01
710.11	23.16
710.429	24.68
710.748	23.63
711.067	23.77
711.386	23.74
711.705	24.07
712.023	24.52
712.342	23.87
712.661	23.43
712.979	24.18
713.298	24.41
713.616	24.24
713.935	23.57
714.253	24.38
714.572	24.01
714.89	24.72
715.208	24.67
715.526	23.69
715.844	24.56
716.162	24.75
716.48	24.55
716.798	24.24
717.116	24.51
717.434	24.7
717.752	24.08
718.069	24.05
718.387	24.92
718.705	24.21
719.022	24.6
719.34	24.18
719.657	23.86
719.975	25.06
720.292	25.04
720.609	24.3
720.927	24.02
721.244	24.76
721.561	24.82
721.878	24.22
722.195	25.22
722.512	25.41
722.829	26.33
723.146	23.16
723.463	24.51
723.779	24.98
724.096	25.14
724.413	24.68
724.729	22.99
725.046	26.79
725.362	24.52
725.679	25.97
725.995	25.16
726.311	23.45
726.628	24.11
726.944	24.86
727.26	23.06
727.576	24.89
727.892	25.57
728.208	25.7
728.524	25.56
728.84	25.87
729.156	25.35
729.472	24.69
729.787	23.93
730.103	24.23
730.419	24.59
730.734	24.8
731.05	25.38
731.365	24.49
731.681	24.74
731.996	25.27
732.311	23.76
732.626	24.68
732.942	24.9
733.257	24.51
733.572	25.26
733.887	24.49
734.202	24.36
734.517	25.09
734.832	25.68
735.146	24.7
735.461	24.54
735.776	25.6
736.091	25.28
736.405	25.39
736.72	24.87
737.034	22.66
737.349	25.2
737.663	25.52
737.977	24.82
738.292	24.17
738.606	25.76
738.92	25.75
739.234	25.82
739.548	25.84
739.862	25.49
740.176	26.31
740.49	24.15
740.804	25.82
741.117	25.18
741.431	25.82
741.745	25.64
742.058	24.69
742.372	25.21
742.685	26.98
742.999	26.63
743.312	25.49
743.626	25.01
743.939	25.83
744.252	25.66
744.565	24.74
744.878	25.27
745.191	26.33
745.505	24.16
745.817	25.94
746.13	25.08
746.443	24.93
746.756	25.77
747.069	26.7
747.381	26.76
747.694	26.51
748.007	27.43
748.319	25.2
748.632	25.12
748.944	24.46
749.256	26.38
749.569	25.8
749.881	26.11
750.193	26.83
750.505	27.38
750.817	26.85
751.129	26.37
751.441	25.75
751.753	25.93
752.065	26.71
752.377	26.79
752.689	26.3
753	25.73
753.312	24.73
753.624	26.28
753.935	26.33
754.247	24.58
754.558	24.7
754.869	27.46
755.181	25.35
755.492	25.78
755.803	24.46
756.114	26.09
756.425	26.95
756.736	25.21
757.047	25.45
757.358	25.01
757.669	26.25
757.98	27.79
758.291	25.39
758.601	26.82
758.912	26.38
759.223	25.11
759.533	26.36
759.844	26.01
760.154	26.5
760.464	25.86
760.775	25.8
761.085	28.21
761.395	24.63
761.705	29.33
762.016	26.83
762.326	25.99
762.636	27.45
762.945	26.51
763.255	25.52
763.565	27.52
763.875	27.16
764.185	26.66
764.494	26.32
764.804	24.56
765.113	25.91
765.423	26.13
765.732	27.11
766.042	27.38
766.351	26.55
766.66	26.3
766.97	25.02
767.279	26.15
767.588	26.25
767.897	25.65
768.206	28.76
768.515	25.63
768.824	27.22
769.133	26.24
769.441	24.95
769.75	29.39
770.059	26.17
770.367	25.12
770.676	25.27
770.984	25.82
771.293	25.79
771.601	28.01
771.91	27.2
772.218	25.15
772.526	26
772.834	25.58
773.142	23.98
773.45	26.84
773.758	27.81
774.066	25.63
774.374	26.76
774.682	27.68
774.99	27.4
775.298	26.55
775.605	25.87
775.913	26.98
776.22	28.37
776.528	29.04
776.835	27.35
777.143	29.54
777.45	24.65
777.757	28.55
778.065	24.2
778.372	27.44
778.679	27.39
778.986	29.44
779.293	29.18
779.6	26.63
779.907	26.03
780.214	27.77
780.52	29.06
780.827	28.88
781.134	27.24
781.44	27.32
781.747	29.23
782.053	26.25
782.36	28.65
782.666	27.87
782.973	27.78
783.279	25.9
783.585	28.58
783.891	24.55
784.197	30.15
784.503	26.89
784.809	23.36
785.115	25.56
785.421	25.51
785.727	28.16
786.033	27.52
786.339	26.5
786.644	26.21
786.95	24.33
787.255	27.96
787.561	24.84
787.866	27.01
788.172	30.2
788.477	30.36
788.782	29.81
789.088	25.92
789.393	25.65
789.698	27.1
790.003	25.38
790.308	30.01
790.613	28.75
790.918	26.79
791.223	25.37
791.527	27.04
791.832	23.24
792.137	29.11
792.441	27.4
792.746	22.79
793.05	25.29
793.355	26.39
793.659	26.09
793.963	27.21
794.268	25.71
794.572	30.9
794.876	24.47
795.18	26.31
795.484	28.82
795.788	24.18
796.092	29.76
796.396	29.3
796.7	25.85
797.004	28.2
797.307	30.72
797.611	29.14
797.915	31.57
798.218	30.85
798.522	29.53
798.825	30.04
799.128	29.51
799.432	26.7
799.735	26.67
800.038	29.78
800.341	28.02
800.644	26.56
800.947	26.71
801.25	26.51
801.553	28.56
801.856	29.17
802.159	27.38
802.462	27.69
802.764	26.51
803.067	26.42
803.37	29.52
803.672	26.57
803.975	27.36
804.277	26.41
804.579	28.49
804.882	28.24
805.184	32.35
805.486	29.76
805.788	30.21
806.09	28.63
806.392	25.92
806.694	28.63
806.996	28.49
807.298	25.04
807.6	27.45
807.902	28.44
808.203	25.22
808.505	30.82
808.807	26.77
809.108	24.28
809.409	30.43
809.711	36.89
810.012	31.3
810.313	30.8
810.615	25.78
810.916	29.24
811.217	32.56
811.518	26.91
811.819	28.34
812.12	24.98
812.421	35.64
812.722	29.24
813.023	24.71
813.323	26.4
813.624	27.47
813.925	32.71
814.225	25.48
814.526	28.05
814.826	28.32
815.126	26.14
815.427	30.4
815.727	28.02
816.027	31.62
816.327	32.66
816.627	31.84
816.927	33.6
817.227	26.74
817.527	23.89
817.827	25.68
818.127	25.73
818.427	26.29
818.727	27.45
819.026	26.04
819.326	28.54
819.625	26.49
819.925	26.37
820.224	28.27
820.524	23.96
820.823	31.42
821.122	28.27
821.421	26.8
821.72	28.55
822.019	27.83
822.318	32.42
822.617	29.26
822.916	29.29
823.215	28.51
823.514	29.16
823.813	30.71
824.111	29.26
824.41	30
824.709	28.05
825.007	28.76
825.306	29.81
825.604	29.85
825.902	30.12
826.201	30.78
826.499	29.16
826.797	31.16
827.095	29.13
827.393	30.92
827.691	29.02
827.989	30.74
828.287	31.62
828.585	30.31
828.882	28.26
829.18	29.81
829.478	30.19
829.775	29.41
830.073	28.69
830.37	30.75
830.668	27.48
830.965	27.79
831.263	31.19
831.56	33.08
831.857	30
832.154	26.63
832.451	30.83
832.748	27.59
833.045	31.96
833.342	32.66
833.639	25.25
833.936	30.73
834.232	28.13
834.529	29.24
834.826	30.35
835.122	24.88
835.419	26.25
835.715	30.42
836.012	28.7
836.308	28.04
836.604	30.64
836.901	29.19
837.197	30.55
837.493	28.77
837.789	32.8
838.085	27.42
838.381	30.39
838.677	31.5
838.972	31.8
839.268	33.33
839.564	35.97
839.86	26.76
840.155	29.71
840.451	22.67
840.746	28.47
841.042	29.21
841.337	36.64
841.632	25.53
841.928	37.21
842.223	30.25
842.518	31.43
842.813	28.19
843.108	36.45
843.403	28.46
843.698	35.16
843.993	40.31
844.287	25.7
844.582	26.88
844.877	24.17
845.171	21.91
845.466	25.56
845.761	25.47
846.055	23.2
846.349	22.83
846.644	29.37
846.938	38.84
847.232	25.42
847.526	29.87
847.82	16.89
848.114	28.38
848.408	23.67
848.702	35.53
848.996	26.19
849.29	35.9
849.584	20.9
849.877	32.07
850.171	20.2
850.465	21.44
850.758	42.4
851.052	18.96
851.345	27.54
851.638	38.85
851.932	32.68
852.225	32.74
852.518	27.11
852.811	23.79
853.104	40.48
853.397	33.14
853.69	44.3
853.983	36.88
854.276	32.34
854.569	33.64
854.861	30.7
855.154	27.31
855.447	29.55
855.739	28.78
856.032	33.58
856.324	35.08
856.616	42.78
856.909	1.24
857.201	24.32
857.493	60.77
857.785	26.81
858.077	41.08
858.369	41.35
858.661	28.28
858.953	43.92
859.245	32.95
859.537	22.88
859.829	10.77
860.12	25.7
860.412	34.18
860.703	35.35
860.995	20.81
861.286	9.34
861.578	21.99
861.869	26.57
862.16	13.05
862.452	28.25
862.743	39.43
863.034	12.79
863.325	25.13
863.616	33.03
863.907	28.25
864.198	8.85
864.488	22.69
864.779	37.01
865.07	20.09
865.36	32.67
865.651	37.47
865.941	28.54
866.232	45.22
866.522	32.59
866.813	17.6
867.103	27.13
867.393	46.91
867.683	35.74
867.973	38.26
868.263	25.15
868.553	38.84
868.843	32.14
869.133	27.29
869.423	27.45
869.713	22.45
870.002	5.26
870.292	9.78
870.582	29.05
870.871	35.47
871.161	35.34
871.45	33.11
871.739	18.23
872.029	32.87
872.318	40.15
872.607	39.01
872.896	19.31
873.185	33.45
873.474	46.2
873.763	24.26
874.052	20.4
874.341	38.48
874.63	31.16
874.918	32.51
875.207	28.69
875.496	3.9
875.784	37.26
876.073	18.76
876.361	45.45
876.649	25.63
876.938	32.61
877.226	16.87
877.514	13.72
877.802	27.15
878.09	35.83
878.378	30.47
878.666	9.79
878.954	4.38
879.242	6.91
879.53	14.14
879.817	30.49
880.105	37.45
880.392	48.64
880.68	27.37
880.967	33.87
881.255	29.8
881.542	35.29
881.83	22.78
882.117	25.21
882.404	45.58
882.691	36.45
882.978	35.95
883.265	39.05
883.552	35.79
883.839	15.99
884.126	27.59
884.413	29.78
884.699	29.28
884.986	27.27
885.273	31.96
885.559	31.96
885.846	31.96
