Data from 20-2_forehead_Reflection__0__40.txt Node

Date: Fri Nov 11 20:29:18 CST 2022
User: ToomeyLab
Spectrometer: FLMS14357
Trigger mode: 0
Integration Time (sec): 1.000000E-2
Scans to average: 100
Electric dark correction enabled: true
Nonlinearity correction enabled: false
Boxcar width: 0
XAxis mode: Wavelengths
Number of Pixels in Spectrum: 2048
>>>>>Begin Spectral Data<<<<<
189.047	1919.6
189.435	1919.6
189.823	1919.6
190.211	210.91
190.599	202.71
190.987	450.56
191.375	-356.8
191.763	-15.17
192.151	-5.04
192.538	14.74
192.926	-189.11
193.314	82.45
193.702	241.05
194.089	104.5
194.477	-578.91
194.864	134.68
195.252	120.63
195.639	129.42
196.027	32.73
196.414	60.12
196.801	230.63
197.189	93.69
197.576	48.69
197.963	17.51
198.351	37.02
198.738	4.89
199.125	58.22
199.512	34.44
199.899	-83.92
200.286	20.23
200.673	-27.72
201.06	22.46
201.447	14.04
201.833	26.46
202.22	26.63
202.607	42.57
202.994	23.91
203.38	60.18
203.767	19.61
204.154	45.81
204.54	11.67
204.927	44.99
205.313	7.69
205.699	-7.92
206.086	38.5
206.472	20.91
206.858	59.45
207.245	55.13
207.631	35.92
208.017	9.88
208.403	22.85
208.789	25.21
209.175	21.49
209.561	38.63
209.947	1.95
210.333	-13.15
210.719	26.72
211.105	51.07
211.491	49.94
211.876	34.42
212.262	40.96
212.648	46.77
213.034	5.17
213.419	-21.96
213.805	22.22
214.19	2.68
214.576	24.41
214.961	-18.76
215.346	0.77
215.732	26.28
216.117	46.11
216.502	3.41
216.888	25.27
217.273	29.71
217.658	19.08
218.043	4.21
218.428	30.31
218.813	18.67
219.198	27.68
219.583	29.87
219.968	7.28
220.353	15.05
220.738	5.43
221.122	14.85
221.507	-2.94
221.892	-4.37
222.276	18.19
222.661	27.15
223.046	3.07
223.43	-6.89
223.815	7.7
224.199	15.55
224.583	7.95
224.968	5.13
225.352	12.37
225.736	2.08
226.121	2.09
226.505	7.68
226.889	7.37
227.273	2.15
227.657	-2.29
228.041	1.69
228.425	3.26
228.809	5.23
229.193	6.99
229.577	5.02
229.961	4.53
230.344	4.11
230.728	2.28
231.112	2.58
231.495	3.53
231.879	3.32
232.263	3.44
232.646	1.46
233.03	2.01
233.413	4.69
233.797	3.11
234.18	2.27
234.563	4.51
234.946	3.88
235.33	3.26
235.713	3.46
236.096	3.82
236.479	3.43
236.862	4.09
237.245	3.52
237.628	4.69
238.011	3.75
238.394	3.83
238.777	4.39
239.16	3.63
239.543	1.34
239.925	4.34
240.308	4.18
240.691	4.06
241.073	2.87
241.456	2.34
241.838	3.44
242.221	2.92
242.603	3.06
242.986	2.89
243.368	3.43
243.75	3.21
244.133	2.61
244.515	3.05
244.897	3.36
245.279	2.67
245.661	3.06
246.043	3.25
246.425	3.35
246.807	3.62
247.189	2.62
247.571	3.1
247.953	3.13
248.335	3.01
248.717	3.03
249.098	3.16
249.48	3.14
249.862	3.25
250.243	2.99
250.625	3.09
251.006	3.61
251.388	3.92
251.769	4.46
252.151	3.44
252.532	2.9
252.913	4.27
253.295	2.89
253.676	2.64
254.057	3.11
254.438	3.25
254.819	3.34
255.2	3.71
255.581	3.4
255.962	3.28
256.343	3.49
256.724	3.73
257.105	3.26
257.486	3.48
257.867	4.69
258.247	3.04
258.628	3.15
259.009	2.84
259.389	2.77
259.77	3.96
260.15	3.69
260.531	3.45
260.911	3.05
261.292	2.96
261.672	2.96
262.052	2.88
262.432	3.26
262.813	3.35
263.193	2.4
263.573	3.2
263.953	3.74
264.333	2.87
264.713	2.94
265.093	3.32
265.473	3.24
265.853	2.77
266.233	3.06
266.612	3.02
266.992	3.16
267.372	4.04
267.752	3.7
268.131	2.73
268.511	3.26
268.89	2.68
269.27	2.84
269.649	2.44
270.029	3.21
270.408	3.49
270.787	3.22
271.167	2.75
271.546	3.22
271.925	3.09
272.304	2.83
272.683	2.97
273.062	2.61
273.441	2.97
273.82	3.16
274.199	2.79
274.578	2.65
274.957	3.17
275.336	3.43
275.715	3.25
276.093	2.85
276.472	3.13
276.851	2.59
277.229	2.41
277.608	3.13
277.986	3.2
278.365	2.46
278.743	2.61
279.122	3.69
279.5	2.96
279.878	2.88
280.257	2.94
280.635	3.17
281.013	3.02
281.391	2.71
281.769	3.1
282.147	2.79
282.525	2.63
282.903	3.06
283.281	2.88
283.659	3
284.037	3.27
284.415	2.65
284.792	2.96
285.17	3.16
285.548	2.85
285.925	2.66
286.303	3.09
286.68	3.17
287.058	3.11
287.435	2.93
287.813	2.83
288.19	2.85
288.567	3.05
288.945	3.21
289.322	3.58
289.699	2.79
290.076	3.64
290.453	3.01
290.83	3.37
291.207	3.13
291.584	3.29
291.961	3.23
292.338	3.03
292.715	3.33
293.092	3.36
293.469	3.51
293.845	3.86
294.222	3.25
294.599	3.6
294.975	4.19
295.352	3.65
295.728	3.84
296.105	3.47
296.481	3.62
296.858	3.45
297.234	3.88
297.61	3.21
297.986	3.99
298.363	3.71
298.739	3.83
299.115	3.55
299.491	3.86
299.867	3.81
300.243	3.59
300.619	4.12
300.995	3.9
301.371	4.33
301.746	4.35
302.122	4.1
302.498	4.24
302.874	4.12
303.249	3.92
303.625	4.17
304	4.13
304.376	4.48
304.751	4.04
305.127	4.01
305.502	4.8
305.878	5
306.253	4.57
306.628	4.64
307.003	4.35
307.378	4.76
307.754	4.99
308.129	4.19
308.504	4.69
308.879	4.91
309.254	4.43
309.629	4.86
310.003	4.98
310.378	4.85
310.753	5.55
311.128	5.2
311.502	5.09
311.877	5.02
312.252	4.87
312.626	5.28
313.001	4.85
313.375	5.15
313.75	5.25
314.124	5.07
314.498	5.21
314.873	5.49
315.247	5.7
315.621	5.49
315.995	5.85
316.369	5.9
316.743	5.64
317.117	5.93
317.491	6.18
317.865	5.5
318.239	5.94
318.613	6
318.987	5.77
319.361	5.92
319.734	6.42
320.108	5.85
320.482	6.48
320.855	6.09
321.229	5.93
321.602	6.3
321.976	6.17
322.349	6.36
322.723	6.78
323.096	6.51
323.469	6.37
323.843	6.92
324.216	6.02
324.589	6.63
324.962	6.97
325.335	6.26
325.708	6.67
326.081	6.9
326.454	6.53
326.827	6.52
327.2	7.54
327.573	7.71
327.945	6.91
328.318	6.76
328.691	7.26
329.063	7.31
329.436	6.97
329.809	7.22
330.181	6.59
330.553	6.49
330.926	7.11
331.298	7.02
331.671	7.32
332.043	7.02
332.415	7.23
332.787	8.06
333.159	7.4
333.532	7.8
333.904	7.97
334.276	7.34
334.648	7.2
335.02	7.15
335.391	7.88
335.763	7.29
336.135	7.52
336.507	7.51
336.879	7.69
337.25	7.72
337.622	7.76
337.993	8.09
338.365	7.76
338.736	7.89
339.108	8.19
339.479	7.57
339.851	7.96
340.222	7.77
340.593	8.29
340.964	7.79
341.336	8.22
341.707	8.08
342.078	7.8
342.449	7.97
342.82	8.29
343.191	8.51
343.562	8.08
343.933	8.01
344.303	8.29
344.674	8.47
345.045	8.26
345.416	8.59
345.786	8.32
346.157	8.21
346.527	8.14
346.898	8.03
347.268	8.31
347.639	8.25
348.009	8.62
348.38	8.51
348.75	8.55
349.12	9.01
349.49	8.65
349.861	8.7
350.231	8.95
350.601	8.63
350.971	8.57
351.341	9
351.711	8.81
352.081	8.95
352.45	8.82
352.82	8.78
353.19	9.26
353.56	8.68
353.929	9.28
354.299	9.29
354.669	9.15
355.038	8.96
355.408	8.96
355.777	9.54
356.147	9.15
356.516	9.39
356.885	9.34
357.254	9.05
357.624	8.82
357.993	9.38
358.362	9.66
358.731	9.1
359.1	9.1
359.469	9.21
359.838	9.25
360.207	9.67
360.576	9.51
360.945	9.47
361.314	9.21
361.682	9.11
362.051	9.39
362.42	9.72
362.788	9.97
363.157	9.44
363.525	9.46
363.894	9.62
364.262	9.74
364.631	9.78
364.999	9.93
365.367	9.79
365.735	9.94
366.104	9.83
366.472	10.04
366.84	9.71
367.208	9.82
367.576	10.42
367.944	10.15
368.312	10.19
368.68	10.51
369.048	10.43
369.416	10.26
369.783	10.4
370.151	10.24
370.519	10.2
370.886	10.31
371.254	10.66
371.621	10.55
371.989	10.37
372.356	10.66
372.724	10.7
373.091	10.77
373.458	10.24
373.826	10.54
374.193	10.36
374.56	10.44
374.927	10.72
375.294	10.77
375.661	10.78
376.028	10.73
376.395	10.77
376.762	11.07
377.129	10.67
377.496	10.84
377.863	10.96
378.229	11.27
378.596	11.01
378.963	10.95
379.329	11.11
379.696	11.11
380.062	11.19
380.429	11.23
380.795	11.43
381.161	11.25
381.528	11.1
381.894	11.48
382.26	11.71
382.626	11.51
382.993	11.33
383.359	11.58
383.725	11.32
384.091	11.49
384.457	11.41
384.823	11.52
385.188	11.5
385.554	11.67
385.92	11.34
386.286	11.75
386.651	11.7
387.017	11.68
387.383	11.57
387.748	11.52
388.114	11.65
388.479	11.28
388.845	11.75
389.21	11.63
389.575	11.78
389.94	11.73
390.306	11.99
390.671	11.84
391.036	12.2
391.401	11.96
391.766	12.11
392.131	11.85
392.496	11.94
392.861	12.2
393.226	11.8
393.591	11.85
393.956	12.21
394.32	12.14
394.685	12.24
395.05	12.22
395.414	12.04
395.779	12.27
396.143	12.14
396.508	12.36
396.872	12.56
397.236	12.29
397.601	12.35
397.965	12.4
398.329	12.43
398.694	12.43
399.058	12.68
399.422	12.57
399.786	12.6
400.15	12.55
400.514	12.76
400.878	12.59
401.242	12.62
401.605	12.76
401.969	12.84
402.333	12.47
402.697	12.69
403.06	13.02
403.424	12.43
403.787	12.87
404.151	12.76
404.514	12.74
404.878	12.85
405.241	12.89
405.604	12.9
405.968	12.86
406.331	12.73
406.694	12.85
407.057	12.93
407.42	13.04
407.783	12.94
408.146	13.13
408.509	13.22
408.872	13.23
409.235	13.39
409.598	13.33
409.961	13.24
410.323	13.14
410.686	13.37
411.049	13.25
411.411	13.53
411.774	13.36
412.136	13.2
412.499	13.52
412.861	13.34
413.223	13.39
413.586	13.54
413.948	13.72
414.31	13.41
414.672	13.54
415.035	13.5
415.397	13.6
415.759	13.7
416.121	13.48
416.483	13.62
416.845	13.56
417.206	13.37
417.568	13.66
417.93	13.69
418.292	13.51
418.653	13.79
419.015	13.81
419.377	13.63
419.738	13.75
420.1	13.6
420.461	13.81
420.822	13.7
421.184	13.72
421.545	13.82
421.906	13.81
422.267	13.72
422.629	13.57
422.99	13.67
423.351	13.8
423.712	13.79
424.073	14.09
424.434	14.01
424.795	14.09
425.155	13.97
425.516	13.94
425.877	14.04
426.238	14.1
426.598	13.98
426.959	14.09
427.32	14.23
427.68	14.25
428.041	14.41
428.401	14.33
428.761	14.48
429.122	14.6
429.482	14.61
429.842	14.54
430.202	14.76
430.563	14.88
430.923	14.67
431.283	14.75
431.643	14.68
432.003	14.89
432.363	14.83
432.722	14.94
433.082	14.86
433.442	15.06
433.802	15.06
434.161	14.91
434.521	15.15
434.881	15.18
435.24	15.15
435.6	15.08
435.959	14.96
436.319	14.96
436.678	15.23
437.037	15.18
437.396	15.34
437.756	15.28
438.115	15.1
438.474	15.34
438.833	15.43
439.192	15.53
439.551	15.29
439.91	15.48
440.269	15.61
440.628	15.56
440.987	15.49
441.345	15.67
441.704	15.55
442.063	15.47
442.421	15.55
442.78	15.4
443.138	15.6
443.497	15.64
443.855	15.7
444.214	15.68
444.572	15.89
444.93	15.73
445.288	15.88
445.647	15.96
446.005	15.91
446.363	16.02
446.721	15.85
447.079	15.97
447.437	15.94
447.795	15.96
448.153	15.92
448.51	15.95
448.868	15.98
449.226	15.98
449.584	16.18
449.941	16.14
450.299	16.13
450.656	16.26
451.014	16.33
451.371	16.42
451.729	16.4
452.086	16.45
452.443	16.65
452.801	16.51
453.158	16.57
453.515	16.74
453.872	16.64
454.229	16.76
454.586	16.75
454.943	16.89
455.3	16.97
455.657	16.97
456.014	16.88
456.371	17.17
456.727	16.94
457.084	17.02
457.441	17.07
457.797	17.1
458.154	17.06
458.51	17.22
458.867	17.07
459.223	17.13
459.58	17.13
459.936	17.14
460.292	17.09
460.648	17.24
461.005	17.06
461.361	16.98
461.717	16.98
462.073	17.15
462.429	16.99
462.785	17.22
463.141	17.18
463.496	17.47
463.852	17.48
464.208	17.55
464.564	17.49
464.919	17.69
465.275	17.8
465.631	17.69
465.986	17.8
466.342	17.93
466.697	17.72
467.052	17.84
467.408	17.95
467.763	18.05
468.118	17.9
468.473	18.06
468.829	18.11
469.184	18.01
469.539	18.15
469.894	18.2
470.249	18.36
470.603	18.22
470.958	18.3
471.313	18.31
471.668	18.41
472.023	18.42
472.377	18.44
472.732	18.45
473.086	18.45
473.441	18.43
473.795	18.46
474.15	18.56
474.504	18.58
474.859	18.58
475.213	18.72
475.567	18.63
475.921	18.7
476.275	18.65
476.63	18.95
476.984	18.76
477.338	18.82
477.692	18.57
478.045	18.64
478.399	19.05
478.753	18.64
479.107	18.92
479.461	18.77
479.814	18.81
480.168	18.85
480.521	19.04
480.875	19.18
481.228	19.17
481.582	18.93
481.935	18.99
482.289	18.91
482.642	18.96
482.995	19.03
483.348	18.97
483.701	18.81
484.055	18.74
484.408	18.59
484.761	18.35
485.114	18.15
485.466	18.14
485.819	18.28
486.172	18.38
486.525	18.51
486.878	18.62
487.23	18.66
487.583	18.77
487.936	18.79
488.288	18.84
488.641	18.71
488.993	18.63
489.345	18.61
489.698	18.65
490.05	18.81
490.402	18.86
490.754	19.04
491.107	19.12
491.459	19.21
491.811	19.38
492.163	19.35
492.515	19.37
492.866	19.08
493.218	19.04
493.57	19.07
493.922	19.33
494.274	19.4
494.625	19.56
494.977	19.81
495.328	19.87
495.68	19.95
496.031	20.11
496.383	20.28
496.734	20.25
497.086	20.25
497.437	20.35
497.788	20.18
498.139	20.11
498.49	20.09
498.842	20.1
499.193	20.29
499.544	20.36
499.894	20.31
500.245	20.48
500.596	20.6
500.947	20.59
501.298	20.75
501.648	20.71
501.999	20.7
502.35	20.9
502.7	20.63
503.051	20.81
503.401	20.97
503.752	20.8
504.102	20.89
504.452	21.04
504.803	20.98
505.153	21.07
505.503	21.19
505.853	21.11
506.203	21.15
506.553	20.93
506.903	21.06
507.253	21.24
507.603	21.14
507.953	21.4
508.303	21.49
508.652	21.4
509.002	21.26
509.352	21.26
509.701	21.33
510.051	21.39
510.4	21.32
510.75	21.29
511.099	21.27
511.449	21.4
511.798	21.38
512.147	21.4
512.496	21.52
512.846	21.68
513.195	21.42
513.544	21.49
513.893	21.31
514.242	21.49
514.591	21.74
514.939	21.59
515.288	21.74
515.637	21.95
515.986	22.01
516.334	21.85
516.683	21.92
517.032	21.86
517.38	21.97
517.729	22
518.077	22.09
518.426	22.16
518.774	22.1
519.122	21.93
519.47	21.9
519.819	21.82
520.167	21.74
520.515	21.81
520.863	21.94
521.211	22.07
521.559	22.09
521.907	22.18
522.255	22.24
522.602	22.2
522.95	22.31
523.298	22.65
523.645	22.51
523.993	22.51
524.341	22.69
524.688	22.65
525.036	22.61
525.383	22.61
525.73	22.58
526.078	22.47
526.425	22.57
526.772	22.44
527.119	22.33
527.466	22.38
527.814	22.38
528.161	22.36
528.508	22.37
528.854	22.33
529.201	22.32
529.548	22.07
529.895	21.89
530.242	21.93
530.588	22.13
530.935	22.14
531.282	22.24
531.628	22.38
531.975	22.52
532.321	22.65
532.667	22.76
533.014	22.86
533.36	22.94
533.706	22.93
534.052	22.82
534.399	22.82
534.745	22.68
535.091	22.64
535.437	22.77
535.783	22.89
536.129	23.05
536.474	23.13
536.82	23.14
537.166	23.26
537.512	23.25
537.857	23.3
538.203	23.27
538.549	23.35
538.894	23.43
539.239	23.33
539.585	23.56
539.93	23.73
540.276	23.91
540.621	23.81
540.966	24.06
541.311	23.94
541.656	23.86
542.001	23.71
542.346	23.4
542.691	23.26
543.036	23.1
543.381	23.29
543.726	23.42
544.071	23.55
544.415	23.6
544.76	23.87
545.105	23.67
545.449	23.85
545.794	24.15
546.138	24.19
546.483	24.18
546.827	24.34
547.171	24.39
547.516	24.33
547.86	24.37
548.204	24.18
548.548	24.24
548.892	24.35
549.236	24.55
549.58	24.73
549.924	24.76
550.268	24.87
550.612	24.98
550.956	25.1
551.3	25.15
551.643	25.11
551.987	25.43
552.33	25.47
552.674	25.42
553.017	25.54
553.361	25.57
553.704	25.51
554.048	25.56
554.391	25.31
554.734	25.4
555.077	25.39
555.42	25.6
555.764	25.58
556.107	25.56
556.45	25.83
556.793	25.67
557.135	25.73
557.478	25.95
557.821	25.82
558.164	25.79
558.507	25.85
558.849	25.8
559.192	25.96
559.534	26.21
559.877	26.12
560.219	26.29
560.562	26.28
560.904	26.29
561.246	26.12
561.589	26.22
561.931	26.13
562.273	26.33
562.615	26.06
562.957	26.11
563.299	26.11
563.641	26.39
563.983	26.32
564.325	26.21
564.667	26.43
565.008	26.48
565.35	26.56
565.692	26.43
566.033	26.34
566.375	26.61
566.716	26.6
567.058	26.39
567.399	26.58
567.741	26.47
568.082	26.59
568.423	26.62
568.764	26.58
569.105	26.84
569.447	26.83
569.788	26.6
570.129	26.78
570.47	26.84
570.811	27.03
571.151	27.12
571.492	26.94
571.833	27.03
572.174	27.14
572.514	26.94
572.855	27.04
573.195	26.8
573.536	26.81
573.876	26.92
574.217	26.98
574.557	27
574.898	27.07
575.238	27.21
575.578	27.06
575.918	27.31
576.258	27.36
576.598	27.3
576.938	27.42
577.278	27.23
577.618	27.42
577.958	27.48
578.298	27.44
578.638	27.68
578.977	27.79
579.317	27.66
579.657	27.85
579.996	27.73
580.336	27.91
580.675	27.82
581.014	27.85
581.354	28.02
581.693	27.84
582.032	28
582.372	28.26
582.711	28.3
583.05	28.1
583.389	28.42
583.728	28.3
584.067	28.34
584.406	28.4
584.745	28.68
585.083	28.38
585.422	28.37
585.761	28.49
586.1	28.55
586.438	28.41
586.777	28.56
587.115	28.48
587.454	28.54
587.792	28.61
588.13	28.76
588.469	28.94
588.807	28.74
589.145	28.84
589.483	29.15
589.821	28.95
590.159	29.04
590.497	29.15
590.835	28.67
591.173	28.88
591.511	28.66
591.849	29.06
592.187	28.97
592.524	29.13
592.862	29.01
593.2	29.09
593.537	29.18
593.875	29.65
594.212	29.19
594.55	29.09
594.887	29
595.224	29.42
595.561	29.22
595.899	29.36
596.236	29.26
596.573	29.35
596.91	29.34
597.247	29.35
597.584	29.09
597.921	29.3
598.258	28.97
598.594	29.13
598.931	28.96
599.268	28.98
599.604	29.28
599.941	29.31
600.277	29.28
600.614	29.58
600.95	29.49
601.287	29.84
601.623	30.16
601.959	29.85
602.296	29.92
602.632	29.9
602.968	29.99
603.304	30.04
603.64	30.12
603.976	30.35
604.312	29.72
604.648	29.9
604.984	29.96
605.319	29.76
605.655	29.84
605.991	29.46
606.326	30
606.662	29.94
606.998	29.84
607.333	29.86
607.668	29.79
608.004	30.03
608.339	30.12
608.674	30.34
609.01	30.42
609.345	30.27
609.68	30.29
610.015	30.26
610.35	30.1
610.685	30.2
611.02	30.1
611.355	30.15
611.689	30.38
612.024	30.21
612.359	30.21
612.694	30.34
613.028	30.58
613.363	30.57
613.697	30.64
614.032	30.76
614.366	30.67
614.7	30.56
615.035	30.71
615.369	30.6
615.703	30.86
616.037	30.98
616.371	31.1
616.705	31.07
617.039	31.15
617.373	30.87
617.707	31.01
618.041	31.34
618.375	30.92
618.709	31.31
619.042	31.21
619.376	31.33
619.71	31.41
620.043	31.64
620.377	31.22
620.71	31.35
621.043	31.39
621.377	31.69
621.71	31.3
622.043	31.41
622.376	31.53
622.709	31.15
623.043	31.55
623.376	31.64
623.709	31.68
624.041	31.76
624.374	31.62
624.707	31.78
625.04	31.47
625.373	31.68
625.705	31.8
626.038	31.81
626.37	32.09
626.703	31.83
627.035	31.61
627.368	31.66
627.7	31.42
628.032	31.61
628.365	31.92
628.697	31.85
629.029	31.8
629.361	31.95
629.693	32
630.025	31.89
630.357	32.06
630.689	31.92
631.021	32.12
631.353	32.12
631.684	32
632.016	32.1
632.348	32.34
632.679	32.44
633.011	32.52
633.342	31.91
633.674	32.16
634.005	32.38
634.336	32.22
634.668	32.73
634.999	32.61
635.33	32.35
635.661	32.27
635.992	32.3
636.323	32.4
636.654	32.45
636.985	32.9
637.316	32.46
637.647	32.79
637.977	32.47
638.308	32.62
638.639	32.68
638.969	32.71
639.3	32.9
639.63	33
639.961	32.72
640.291	33.37
640.622	33.25
640.952	33.28
641.282	32.99
641.612	32.52
641.943	33.01
642.273	32.83
642.603	33.04
642.933	33.08
643.263	32.72
643.592	32.97
643.922	33.6
644.252	33.37
644.582	33.02
644.911	33.05
645.241	32.93
645.571	33.25
645.9	33.54
646.23	33.6
646.559	33.63
646.888	33.84
647.218	33.08
647.547	33.46
647.876	33.39
648.205	33.7
648.534	33.3
648.863	33.77
649.192	33.5
649.521	33.6
649.85	33.68
650.179	33.52
650.508	33.34
650.837	34.02
651.165	33.58
651.494	33.61
651.822	33.58
652.151	33.62
652.479	33.55
652.808	33.42
653.136	33.36
653.465	34.16
653.793	33.87
654.121	33.53
654.449	33.43
654.777	34.3
655.105	33.83
655.433	33.72
655.761	34.43
656.089	34.04
656.417	33.94
656.745	34.74
657.073	34.23
657.4	33.92
657.728	33.67
658.056	34.71
658.383	34.11
658.711	34.09
659.038	34.38
659.365	34
659.693	33.87
660.02	34.5
660.347	33.9
660.674	34.1
661.001	33.82
661.329	33.85
661.656	33.78
661.982	34.21
662.309	33.86
662.636	34.5
662.963	34.51
663.29	34.14
663.616	34.36
663.943	34.52
664.27	34.03
664.596	34.94
664.923	34.41
665.249	35.36
665.576	35.09
665.902	34.5
666.228	34.8
666.554	34.07
666.881	34.45
667.207	34.14
667.533	35.32
667.859	35.17
668.185	35.21
668.511	34.74
668.837	34.98
669.162	35.1
669.488	34.5
669.814	35.39
670.139	34.63
670.465	34.61
670.791	34.6
671.116	34.93
671.442	34.73
671.767	35.3
672.092	35.23
672.418	34.79
672.743	34.33
673.068	35.16
673.393	35.41
673.718	35.26
674.043	35.79
674.368	35.42
674.693	34.84
675.018	35.38
675.343	34.8
675.667	35.31
675.992	35.3
676.317	35.52
676.641	34.92
676.966	35.26
677.29	35.33
677.615	35.3
677.939	35.75
678.264	35.34
678.588	35.11
678.912	35.48
679.236	36.13
679.56	35.29
679.885	35.86
680.209	35.41
680.532	35.36
680.856	35.98
681.18	35.34
681.504	35.12
681.828	35.65
682.152	35.55
682.475	34.99
682.799	35.32
683.122	35.65
683.446	36.25
683.769	35.63
684.093	36.31
684.416	35.64
684.739	35.85
685.062	35.11
685.386	36.06
685.709	35.79
686.032	36.21
686.355	36.01
686.678	36.66
687.001	36.33
687.324	35.65
687.646	35.71
687.969	36.8
688.292	36.58
688.614	36.07
688.937	35.89
689.26	35.52
689.582	36.05
689.904	36.16
690.227	36.2
690.549	36.62
690.871	36.43
691.194	36.3
691.516	36.58
691.838	36.51
692.16	35.96
692.482	36.38
692.804	36.26
693.126	36.19
693.448	36.28
693.769	36.04
694.091	36.73
694.413	37.09
694.735	36.26
695.056	36.39
695.378	36.7
695.699	37.16
696.021	36.31
696.342	36.36
696.663	37.04
696.984	36.63
697.306	35.49
697.627	36.46
697.948	36.35
698.269	36.75
698.59	36.32
698.911	36.37
699.232	35.93
699.553	36.06
699.873	37.14
700.194	36.53
700.515	36.3
700.835	36.03
701.156	36.43
701.477	36.42
701.797	36.66
702.117	37.12
702.438	37.16
702.758	36.32
703.078	37.68
703.398	37.28
703.719	37.19
704.039	37.61
704.359	37.65
704.679	37.07
704.999	36.71
705.319	35.9
705.638	37.37
705.958	37.15
706.278	36.92
706.597	37
706.917	36.45
707.237	37.8
707.556	37.39
707.876	37.78
708.195	36.9
708.514	36.74
708.834	37.85
709.153	36.37
709.472	37.22
709.791	37.47
710.11	37.9
710.429	38.19
710.748	37.08
711.067	36.59
711.386	38.19
711.705	38.01
712.023	38.37
712.342	38.08
712.661	38.11
712.979	38.13
713.298	38.13
713.616	37.42
713.935	37.47
714.253	38.49
714.572	37.85
714.89	37.85
715.208	36.9
715.526	37.41
715.844	37.69
716.162	38.11
716.48	37.77
716.798	37.83
717.116	37.75
717.434	38.29
717.752	37.56
718.069	38.24
718.387	38.45
718.705	38.06
719.022	37.53
719.34	38.17
719.657	37.61
719.975	36.55
720.292	37.62
720.609	38
720.927	37.64
721.244	38.05
721.561	38.85
721.878	38.29
722.195	37.47
722.512	39.02
722.829	38.44
723.146	37.94
723.463	37.92
723.779	37.38
724.096	38.57
724.413	39.13
724.729	37.96
725.046	39.09
725.362	38.23
725.679	38.65
725.995	39.11
726.311	38.55
726.628	37.05
726.944	39.1
727.26	38.94
727.576	38.46
727.892	38.58
728.208	39.37
728.524	38.78
728.84	39.34
729.156	38.62
729.472	38.36
729.787	38.81
730.103	37.69
730.419	39.31
730.734	39.01
731.05	38.84
731.365	40.02
731.681	38.8
731.996	38.41
732.311	38.16
732.626	39.38
732.942	37.69
733.257	38.65
733.572	39.19
733.887	39.03
734.202	38.82
734.517	39.83
734.832	38.78
735.146	38.01
735.461	38.53
735.776	38.06
736.091	40.16
736.405	40.13
736.72	38.9
737.034	38.73
737.349	38.27
737.663	39.1
737.977	38.93
738.292	40.07
738.606	39.21
738.92	39.22
739.234	39.14
739.548	37.59
739.862	39.31
740.176	38.98
740.49	39.24
740.804	39.89
741.117	39.92
741.431	38.42
741.745	38.61
742.058	39.17
742.372	38.21
742.685	39.7
742.999	38.74
743.312	40.76
743.626	38.31
743.939	41.95
744.252	39.8
744.565	38.33
744.878	40.95
745.191	40.08
745.505	38.53
745.817	38.81
746.13	41.99
746.443	39.45
746.756	39.29
747.069	40.82
747.381	41.75
747.694	39.83
748.007	39.46
748.319	37.61
748.632	38.67
748.944	39.51
749.256	41.98
749.569	39.16
749.881	39.71
750.193	40.41
750.505	40.3
750.817	40.62
751.129	38.82
751.441	39.7
751.753	39.94
752.065	40.6
752.377	39.39
752.689	41.22
753	39.87
753.312	39.18
753.624	38.76
753.935	41.11
754.247	38.71
754.558	40.33
754.869	41.32
755.181	39.76
755.492	40.11
755.803	38.85
756.114	40.63
756.425	39.06
756.736	39.26
757.047	40.23
757.358	40.9
757.669	39.97
757.98	40.73
758.291	39.93
758.601	41.56
758.912	40.52
759.223	39.7
759.533	40.07
759.844	39.69
760.154	40.09
760.464	38.92
760.775	39.64
761.085	39.88
761.395	39.11
761.705	41.64
762.016	41.75
762.326	38.49
762.636	39.9
762.945	39.35
763.255	41.72
763.565	41.28
763.875	40.35
764.185	40.65
764.494	40.19
764.804	40.98
765.113	41.74
765.423	41.65
765.732	41.43
766.042	41.64
766.351	40.87
766.66	40.92
766.97	40.16
767.279	40.35
767.588	40.84
767.897	40.77
768.206	41.76
768.515	40.28
768.824	39.93
769.133	41.16
769.441	38.71
769.75	43.03
770.059	40.49
770.367	41.34
770.676	40.13
770.984	40.32
771.293	41.87
771.601	40.75
771.91	41.14
772.218	40.42
772.526	35.99
772.834	41.15
773.142	39.86
773.45	39.65
773.758	38.06
774.066	43.2
774.374	39.03
774.682	39.98
774.99	39.97
775.298	42.25
775.605	40.68
775.913	42.05
776.22	39.41
776.528	41.76
776.835	42.07
777.143	41.91
777.45	40.63
777.757	44.94
778.065	42.86
778.372	39.63
778.679	42.17
778.986	41.81
779.293	44.16
779.6	38.96
779.907	40.44
780.214	43.32
780.52	42.73
780.827	41.49
781.134	41.39
781.44	40.96
781.747	42.68
782.053	41.46
782.36	41.65
782.666	41.79
782.973	40.89
783.279	41.24
783.585	42.35
783.891	44.17
784.197	40.42
784.503	41.54
784.809	43.42
785.115	43.57
785.421	42
785.727	39.82
786.033	43.76
786.339	38.46
786.644	43.06
786.95	40.64
787.255	42.88
787.561	41.39
787.866	41.75
788.172	40.26
788.477	39.55
788.782	39.46
789.088	38.61
789.393	41.74
789.698	42.54
790.003	40.02
790.308	42.06
790.613	39.53
790.918	43.19
791.223	40.43
791.527	40.89
791.832	41.43
792.137	43.08
792.441	41.34
792.746	38.65
793.05	40.62
793.355	37.45
793.659	45.01
793.963	44.67
794.268	40.54
794.572	42.66
794.876	37.43
795.18	41.24
795.484	40.25
795.788	39.81
796.092	39.4
796.396	44.59
796.7	40.67
797.004	45.85
797.307	39.48
797.611	40.76
797.915	41.38
798.218	42.13
798.522	41.44
798.825	44.15
799.128	43.34
799.432	35.01
799.735	42.05
800.038	45.14
800.341	39.55
800.644	43.48
800.947	41.92
801.25	39.89
801.553	46.39
801.856	44.25
802.159	43.99
802.462	38.64
802.764	43.46
803.067	38.39
803.37	41.42
803.672	40.57
803.975	42.21
804.277	41.51
804.579	44.17
804.882	42.52
805.184	42.48
805.486	44.31
805.788	46.25
806.09	41.46
806.392	35.88
806.694	39.88
806.996	43.19
807.298	40.91
807.6	39.37
807.902	44.15
808.203	39.39
808.505	38.96
808.807	43.3
809.108	39.03
809.409	41.93
809.711	44.55
810.012	43.25
810.313	47.96
810.615	40.26
810.916	46.8
811.217	40.92
811.518	39.57
811.819	44.67
812.12	44
812.421	48.76
812.722	42.21
813.023	41.55
813.323	44.3
813.624	36.7
813.925	43.61
814.225	38.79
814.526	39.85
814.826	39.79
815.126	44.28
815.427	48.79
815.727	48.66
816.027	44.61
816.327	41.91
816.627	51.82
816.927	44.81
817.227	40.8
817.527	43.29
817.827	44.09
818.127	46.79
818.427	39.58
818.727	42.36
819.026	47.95
819.326	40.59
819.625	46.41
819.925	40.97
820.224	42.28
820.524	43.3
820.823	44.68
821.122	41.78
821.421	44.97
821.72	41.73
822.019	44.32
822.318	46.95
822.617	42.93
822.916	43.59
823.215	44.81
823.514	44.68
823.813	45.42
824.111	41.78
824.41	43.11
824.709	43.1
825.007	43.38
825.306	42.9
825.604	44.52
825.902	44.79
826.201	44.32
826.499	44.21
826.797	46.13
827.095	45.11
827.393	45.65
827.691	44.81
827.989	45.19
828.287	44.05
828.585	44.42
828.882	40.42
829.18	45.58
829.478	45.12
829.775	43.87
830.073	44.36
830.37	46.9
830.668	42.89
830.965	42.92
831.263	43.02
831.56	44.97
831.857	44.31
832.154	39.5
832.451	43.15
832.748	41.25
833.045	40.61
833.342	49.49
833.639	42.74
833.936	44.8
834.232	42.78
834.529	43.29
834.826	41.58
835.122	45.75
835.419	35.05
835.715	45.31
836.012	43.8
836.308	40.17
836.604	43.45
836.901	42.84
837.197	46.24
837.493	45.94
837.789	39.49
838.085	41.92
838.381	46.44
838.677	46.56
838.972	38.93
839.268	42.89
839.564	45.69
839.86	42.93
840.155	44.2
840.451	38.78
840.746	47.34
841.042	46.62
841.337	43.76
841.632	47.32
841.928	46.63
842.223	49.1
842.518	38.65
842.813	40.84
843.108	45.75
843.403	38.14
843.698	47.61
843.993	48.78
844.287	46.6
844.582	41.53
844.877	42.84
845.171	43.48
845.466	43.85
845.761	48.53
846.055	47.97
846.349	25.26
846.644	41.88
846.938	53.52
847.232	35.51
847.526	42.98
847.82	37.44
848.114	39.9
848.408	32.59
848.702	40.65
848.996	47.31
849.29	44.15
849.584	27.03
849.877	30.07
850.171	38.47
850.465	50.96
850.758	28.54
851.052	32.9
851.345	35.52
851.638	39.93
851.932	56.93
852.225	35.11
852.518	42.19
852.811	34.36
853.104	40.84
853.397	41.83
853.69	69.49
853.983	38.03
854.276	25.01
854.569	42.02
854.861	42.71
855.154	48.96
855.447	57.11
855.739	28.11
856.032	46.89
856.324	54.44
856.616	47.73
856.909	27.21
857.201	47.65
857.493	55.85
857.785	65.61
858.077	37.79
858.369	62.59
858.661	45.12
858.953	60.13
859.245	46.02
859.537	43.02
859.829	35.98
860.12	59.68
860.412	33.35
860.703	47.66
860.995	50.99
861.286	20.71
861.578	20.01
861.869	39.89
862.16	41.02
862.452	46.02
862.743	61.16
863.034	39.63
863.325	45.52
863.616	56.56
863.907	39.5
864.198	27.28
864.488	50.43
864.779	40.11
865.07	41.84
865.36	34.97
865.651	49.58
865.941	41.19
866.232	42.8
866.522	46.86
866.813	38.74
867.103	34.49
867.393	49.52
867.683	37.86
867.973	52.88
868.263	43.54
868.553	32.79
868.843	50.68
869.133	26.75
869.423	25.33
869.713	35.67
870.002	52.8
870.292	27.25
870.582	66.42
870.871	56.69
871.161	34.45
871.45	70.52
871.739	15.23
872.029	20.07
872.318	31.01
872.607	43.11
872.896	58.96
873.185	53.38
873.474	48.96
873.763	36.22
874.052	46.54
874.341	46.91
874.63	45.89
874.918	46.64
875.207	33.33
875.496	32.98
875.784	44.31
876.073	31.04
876.361	43.8
876.649	52.1
876.938	41.8
877.226	36.08
877.514	49.52
877.802	38.96
878.09	67.2
878.378	36.8
878.666	42.54
878.954	45.33
879.242	26.89
879.53	36.7
879.817	39.3
880.105	27.47
880.392	74.49
880.68	25.77
880.967	58.28
881.255	47.3
881.542	38.97
881.83	41.42
882.117	67.68
882.404	62.24
882.691	56.81
882.978	63.41
883.265	44.99
883.552	47.86
883.839	40.41
884.126	41.79
884.413	46.78
884.699	44.71
884.986	36.95
885.273	52.65
885.559	52.65
885.846	52.65
