Data from 20-2_forehead_Reflection__3__43.txt Node

Date: Fri Nov 11 20:30:11 CST 2022
User: ToomeyLab
Spectrometer: FLMS14357
Trigger mode: 0
Integration Time (sec): 1.000000E-2
Scans to average: 100
Electric dark correction enabled: true
Nonlinearity correction enabled: false
Boxcar width: 0
XAxis mode: Wavelengths
Number of Pixels in Spectrum: 2048
>>>>>Begin Spectral Data<<<<<
189.047	538
189.435	538
189.823	538
190.211	241.22
190.599	506.33
190.987	338.89
191.375	133.12
191.763	-70
192.151	-96.18
192.538	31.42
192.926	306.69
193.314	190.57
193.702	99.29
194.089	75.06
194.477	-541.43
194.864	145.22
195.252	245.75
195.639	82.37
196.027	-224.22
196.414	31.94
196.801	717.98
197.189	315.4
197.576	-124.19
197.963	34.96
198.351	-19.62
198.738	19.15
199.125	19.8
199.512	66.25
199.899	-86.39
200.286	19.07
200.673	-21.51
201.06	20.68
201.447	36.94
201.833	43.33
202.22	8.48
202.607	31.66
202.994	38.39
203.38	37
203.767	23.85
204.154	14.29
204.54	-2.48
204.927	14.77
205.313	26.43
205.699	-55
206.086	52.12
206.472	12.2
206.858	39.69
207.245	24.5
207.631	7.78
208.017	1.28
208.403	28.6
208.789	24.12
209.175	-1.57
209.561	56.48
209.947	35.68
210.333	15.29
210.719	34.1
211.105	45.31
211.491	31.82
211.876	29.18
212.262	28.96
212.648	35.81
213.034	6.72
213.419	-28.57
213.805	0.22
214.19	12.84
214.576	0.35
214.961	12.38
215.346	-15.7
215.732	-3.76
216.117	18.59
216.502	4.61
216.888	-4.18
217.273	11.56
217.658	-25.3
218.043	36.77
218.428	15.98
218.813	20.95
219.198	1.98
219.583	-7.59
219.968	2.54
220.353	7.73
220.738	-23.77
221.122	0.74
221.507	-9.34
221.892	-0.23
222.276	30.69
222.661	27.86
223.046	-13.35
223.43	1.47
223.815	5.45
224.199	3.26
224.583	-9.25
224.968	-11.41
225.352	7.8
225.736	6.77
226.121	4
226.505	-3.8
226.889	-4.12
227.273	8.7
227.657	-2.32
228.041	-0.3
228.425	0.27
228.809	-0.67
229.193	3.31
229.577	4.72
229.961	2.81
230.344	2.09
230.728	0.59
231.112	0.71
231.495	2.07
231.879	-0.26
232.263	1.26
232.646	1.7
233.03	1.88
233.413	0.77
233.797	3.13
234.18	2.47
234.563	4.83
234.946	-0.67
235.33	1.9
235.713	1.35
236.096	0.89
236.479	1.21
236.862	3.49
237.245	1.49
237.628	1.96
238.011	1.6
238.394	2.62
238.777	1.65
239.16	2.44
239.543	0.07
239.925	1.56
240.308	-0.02
240.691	3.83
241.073	1.94
241.456	1.12
241.838	3.17
242.221	1.66
242.603	2.23
242.986	1.68
243.368	1.76
243.75	1.54
244.133	2.08
244.515	1.5
244.897	1.7
245.279	1.17
245.661	2.03
246.043	0.66
246.425	2.67
246.807	1.15
247.189	1.77
247.571	2.26
247.953	1.45
248.335	1.48
248.717	1.68
249.098	1.93
249.48	1.5
249.862	2.2
250.243	1.76
250.625	2.25
251.006	2.74
251.388	2.17
251.769	2.79
252.151	2.09
252.532	1.63
252.913	2.03
253.295	2.08
253.676	1.13
254.057	1.53
254.438	1.75
254.819	1.77
255.2	2.74
255.581	2.46
255.962	1.9
256.343	1.12
256.724	1.94
257.105	0.69
257.486	1.71
257.867	2.64
258.247	0.94
258.628	1.53
259.009	1.74
259.389	1.2
259.77	2.54
260.15	1.69
260.531	1.65
260.911	1.8
261.292	1.89
261.672	1.7
262.052	1.64
262.432	1.63
262.813	1.64
263.193	1.55
263.573	1.62
263.953	2.18
264.333	1.48
264.713	1.76
265.093	2.08
265.473	1.94
265.853	1.64
266.233	2.07
266.612	1.82
266.992	0.99
267.372	2.33
267.752	1.84
268.131	1.14
268.511	2.13
268.89	1.21
269.27	1.51
269.649	1.6
270.029	2.49
270.408	1.97
270.787	1.18
271.167	1.55
271.546	1.31
271.925	1.91
272.304	2.03
272.683	1.62
273.062	1.49
273.441	1.76
273.82	1.25
274.199	1.56
274.578	1.4
274.957	2.02
275.336	1.83
275.715	1.89
276.093	1.85
276.472	1.73
276.851	1.38
277.229	1.7
277.608	2.02
277.986	1.51
278.365	1.59
278.743	2.06
279.122	2.06
279.5	1.59
279.878	1.96
280.257	1.69
280.635	1.33
281.013	1.45
281.391	1.95
281.769	1.16
282.147	1.49
282.525	0.92
282.903	1.54
283.281	1.97
283.659	1.78
284.037	1.84
284.415	1.75
284.792	1.83
285.17	1.62
285.548	1.31
285.925	1.48
286.303	1.68
286.68	1.95
287.058	1.78
287.435	1.56
287.813	1.5
288.19	1.45
288.567	1.75
288.945	1.81
289.322	1.97
289.699	1.34
290.076	1.76
290.453	1.88
290.83	1.27
291.207	1.48
291.584	2.3
291.961	1.69
292.338	1.61
292.715	1.79
293.092	1.77
293.469	2.09
293.845	2.01
294.222	1.86
294.599	2.68
294.975	1.8
295.352	2.1
295.728	1.76
296.105	1.81
296.481	1.66
296.858	2.03
297.234	2.08
297.61	1.82
297.986	2.35
298.363	2.17
298.739	1.83
299.115	2.15
299.491	2.2
299.867	2.13
300.243	2.3
300.619	2.31
300.995	2.39
301.371	2.57
301.746	2.87
302.122	2.34
302.498	2.6
302.874	2.04
303.249	2.42
303.625	2.22
304	2.05
304.376	2.16
304.751	2.07
305.127	2.45
305.502	2.66
305.878	2.46
306.253	2.55
306.628	2.36
307.003	2.62
307.378	2.55
307.754	2.82
308.129	2.99
308.504	2.82
308.879	2.48
309.254	2.85
309.629	2.65
310.003	2.7
310.378	2.93
310.753	2.94
311.128	3.44
311.502	3.14
311.877	3.13
312.252	3.03
312.626	2.9
313.001	2.99
313.375	3.2
313.75	2.93
314.124	2.53
314.498	2.9
314.873	2.98
315.247	3.35
315.621	3.23
315.995	3.72
316.369	3.56
316.743	3.37
317.117	4.05
317.491	3.3
317.865	3.23
318.239	3.49
318.613	3.99
318.987	3.83
319.361	3.35
319.734	3.62
320.108	3.63
320.482	4.06
320.855	3.47
321.229	3.85
321.602	3.46
321.976	3.79
322.349	3.75
322.723	4.09
323.096	4.08
323.469	3.84
323.843	3.72
324.216	3.87
324.589	4.09
324.962	4.27
325.335	3.92
325.708	4.02
326.081	4.08
326.454	3.95
326.827	3.53
327.2	3.99
327.573	4.71
327.945	4.08
328.318	4.05
328.691	4.47
329.063	4.39
329.436	4.23
329.809	4.25
330.181	3.94
330.553	4.08
330.926	4.19
331.298	4.08
331.671	4.38
332.043	4.21
332.415	4.47
332.787	4.67
333.159	4.5
333.532	4.5
333.904	4.76
334.276	4.48
334.648	4.22
335.02	4.52
335.391	4.82
335.763	4.7
336.135	4.6
336.507	4.84
336.879	4.86
337.25	4.34
337.622	5.05
337.993	5.16
338.365	4.92
338.736	4.66
339.108	5.08
339.479	4.88
339.851	4.99
340.222	4.7
340.593	5.48
340.964	5.08
341.336	4.95
341.707	4.67
342.078	4.1
342.449	4.97
342.82	5.27
343.191	5.18
343.562	5.2
343.933	4.58
344.303	4.96
344.674	5.27
345.045	4.79
345.416	5.18
345.786	4.94
346.157	5.03
346.527	5.27
346.898	4.69
347.268	4.97
347.639	5.2
348.009	5.15
348.38	5.29
348.75	5.02
349.12	5.94
349.49	5.58
349.861	5.56
350.231	5.17
350.601	5.63
350.971	5.25
351.341	5.89
351.711	5.38
352.081	5.51
352.45	5.64
352.82	5.42
353.19	5.61
353.56	5.44
353.929	5.77
354.299	5.52
354.669	5.61
355.038	5.45
355.408	5.6
355.777	5.94
356.147	5.66
356.516	5.91
356.885	6.12
357.254	5.79
357.624	5.65
357.993	5.64
358.362	5.91
358.731	5.59
359.1	5.67
359.469	5.46
359.838	5.61
360.207	5.63
360.576	5.92
360.945	6.19
361.314	5.86
361.682	5.85
362.051	6
362.42	6.3
362.788	6.27
363.157	5.92
363.525	5.79
363.894	5.84
364.262	6.17
364.631	6.31
364.999	6.02
365.367	6.21
365.735	6.11
366.104	6.17
366.472	6.19
366.84	5.8
367.208	6.1
367.576	6.23
367.944	6.49
368.312	6.2
368.68	6.31
369.048	6.2
369.416	6.48
369.783	6.63
370.151	6.62
370.519	6.48
370.886	6.24
371.254	6.63
371.621	6.3
371.989	6.21
372.356	6.7
372.724	6.77
373.091	6.73
373.458	6.58
373.826	6.26
374.193	6.33
374.56	6.81
374.927	6.63
375.294	6.83
375.661	7.34
376.028	6.55
376.395	6.75
376.762	6.65
377.129	6.88
377.496	6.71
377.863	6.72
378.229	7.03
378.596	6.76
378.963	6.78
379.329	7.02
379.696	6.83
380.062	6.91
380.429	7.16
380.795	7.32
381.161	7.14
381.528	7.18
381.894	7.22
382.26	7.41
382.626	7.38
382.993	7.12
383.359	7.36
383.725	7.28
384.091	7.2
384.457	7.17
384.823	7.15
385.188	7.22
385.554	7.29
385.92	7.22
386.286	7.32
386.651	7.5
387.017	7.39
387.383	7.33
387.748	7.07
388.114	7.55
388.479	6.99
388.845	7.37
389.21	7.33
389.575	7.53
389.94	7.5
390.306	7.49
390.671	7.44
391.036	7.49
391.401	7.67
391.766	7.41
392.131	7.53
392.496	7.56
392.861	7.44
393.226	7.81
393.591	7.72
393.956	7.66
394.32	7.64
394.685	7.86
395.05	7.85
395.414	7.67
395.779	7.74
396.143	7.77
396.508	7.94
396.872	8.04
397.236	7.81
397.601	8.03
397.965	7.99
398.329	8.01
398.694	8.27
399.058	8.08
399.422	8.05
399.786	8.09
400.15	8.09
400.514	8.08
400.878	8.04
401.242	8.06
401.605	8.21
401.969	8.14
402.333	7.89
402.697	8.39
403.06	8.24
403.424	8.01
403.787	8.3
404.151	8.25
404.514	8.13
404.878	8.2
405.241	8.07
405.604	8.12
405.968	8.21
406.331	8.12
406.694	8.38
407.057	8.23
407.42	8.46
407.783	8.28
408.146	8.59
408.509	8.46
408.872	8.47
409.235	8.78
409.598	8.63
409.961	8.45
410.323	8.45
410.686	8.58
411.049	8.48
411.411	8.54
411.774	8.48
412.136	8.42
412.499	8.47
412.861	8.85
413.223	8.37
413.586	8.6
413.948	8.93
414.31	8.82
414.672	8.71
415.035	8.62
415.397	8.7
415.759	8.62
416.121	8.78
416.483	8.61
416.845	8.84
417.206	8.63
417.568	8.95
417.93	8.53
418.292	8.64
418.653	8.91
419.015	8.85
419.377	8.78
419.738	8.83
420.1	8.75
420.461	8.74
420.822	8.85
421.184	8.88
421.545	8.86
421.906	8.88
422.267	8.77
422.629	8.71
422.99	8.85
423.351	8.87
423.712	8.81
424.073	9.12
424.434	9
424.795	9.06
425.155	9.04
425.516	9.08
425.877	9.03
426.238	8.99
426.598	9.06
426.959	9.08
427.32	9.19
427.68	9.36
428.041	9.33
428.401	9.19
428.761	9.59
429.122	9.46
429.482	9.71
429.842	9.56
430.202	9.49
430.563	9.71
430.923	9.75
431.283	9.38
431.643	9.42
432.003	9.78
432.363	9.69
432.722	9.76
433.082	9.98
433.442	9.89
433.802	9.78
434.161	9.88
434.521	9.84
434.881	9.85
435.24	9.8
435.6	9.87
435.959	9.89
436.319	9.81
436.678	9.97
437.037	10.01
437.396	9.96
437.756	10
438.115	10
438.474	10.11
438.833	10.19
439.192	10.22
439.551	10.11
439.91	10.12
440.269	10.3
440.628	10.17
440.987	10.3
441.345	10.21
441.704	10.2
442.063	10.07
442.421	10.31
442.78	10.04
443.138	10.3
443.497	10.35
443.855	10.42
444.214	10.36
444.572	10.47
444.93	10.46
445.288	10.45
445.647	10.6
446.005	10.59
446.363	10.47
446.721	10.48
447.079	10.44
447.437	10.44
447.795	10.48
448.153	10.45
448.51	10.44
448.868	10.5
449.226	10.64
449.584	10.68
449.941	10.69
450.299	10.6
450.656	10.74
451.014	10.91
451.371	10.9
451.729	10.93
452.086	10.96
452.443	10.97
452.801	11.07
453.158	10.97
453.515	11.12
453.872	10.98
454.229	11.03
454.586	11.14
454.943	11.16
455.3	11.33
455.657	11.18
456.014	11.33
456.371	11.38
456.727	11.34
457.084	11.26
457.441	11.57
457.797	11.27
458.154	11.34
458.51	11.35
458.867	11.4
459.223	11.52
459.58	11.39
459.936	11.45
460.292	11.38
460.648	11.38
461.005	11.26
461.361	11.28
461.717	11.23
462.073	11.42
462.429	11.35
462.785	11.49
463.141	11.51
463.496	11.64
463.852	11.73
464.208	11.74
464.564	11.82
464.919	11.96
465.275	11.7
465.631	11.85
465.986	11.89
466.342	11.94
466.697	11.9
467.052	11.88
467.408	11.91
467.763	11.99
468.118	11.94
468.473	12.12
468.829	12.07
469.184	12.18
469.539	12.13
469.894	12.2
470.249	12.3
470.603	12.24
470.958	12.28
471.313	12.2
471.668	12.21
472.023	12.25
472.377	12.48
472.732	12.34
473.086	12.35
473.441	12.35
473.795	12.44
474.15	12.46
474.504	12.58
474.859	12.52
475.213	12.52
475.567	12.54
475.921	12.8
476.275	12.72
476.63	12.63
476.984	12.75
477.338	12.58
477.692	12.58
478.045	12.56
478.399	12.91
478.753	12.64
479.107	12.7
479.461	12.81
479.814	12.73
480.168	12.78
480.521	12.91
480.875	13.02
481.228	12.76
481.582	12.82
481.935	12.83
482.289	12.77
482.642	12.88
482.995	12.87
483.348	12.69
483.701	12.82
484.055	12.7
484.408	12.58
484.761	12.45
485.114	12.15
485.466	12.1
485.819	12.12
486.172	12.3
486.525	12.51
486.878	12.6
487.23	12.75
487.583	12.76
487.936	12.8
488.288	12.75
488.641	12.57
488.993	12.53
489.345	12.55
489.698	12.6
490.05	12.72
490.402	12.81
490.754	13
491.107	13.01
491.459	13.11
491.811	13.26
492.163	13.29
492.515	13.27
492.866	13.02
493.218	12.89
493.57	12.89
493.922	13.08
494.274	13.29
494.625	13.38
494.977	13.58
495.328	13.74
495.68	13.74
496.031	13.88
496.383	13.86
496.734	13.86
497.086	13.9
497.437	13.99
497.788	13.75
498.139	13.84
498.49	13.71
498.842	13.7
499.193	13.93
499.544	13.95
499.894	13.89
500.245	13.97
500.596	14.03
500.947	14.14
501.298	14.28
501.648	14.13
501.999	14.28
502.35	14.28
502.7	14.36
503.051	14.29
503.401	14.3
503.752	14.26
504.102	14.32
504.452	14.45
504.803	14.5
505.153	14.45
505.503	14.53
505.853	14.57
506.203	14.67
506.553	14.48
506.903	14.58
507.253	14.7
507.603	14.77
507.953	14.64
508.303	14.58
508.652	14.69
509.002	14.66
509.352	14.8
509.701	14.7
510.051	14.71
510.4	14.85
510.75	14.63
511.099	14.64
511.449	14.73
511.798	14.67
512.147	14.75
512.496	14.79
512.846	14.88
513.195	14.87
513.544	14.95
513.893	14.75
514.242	14.83
514.591	15.04
514.939	14.99
515.288	15.13
515.637	15.06
515.986	15.28
516.334	15.25
516.683	15.11
517.032	15.26
517.38	15.32
517.729	15.29
518.077	15.33
518.426	15.28
518.774	15.33
519.122	15.23
519.47	15.15
519.819	15.06
520.167	15.02
520.515	15.08
520.863	15.29
521.211	15.26
521.559	15.28
521.907	15.37
522.255	15.46
522.602	15.44
522.95	15.47
523.298	15.78
523.645	15.7
523.993	15.73
524.341	15.78
524.688	15.71
525.036	15.79
525.383	15.9
525.73	15.7
526.078	15.68
526.425	15.73
526.772	15.68
527.119	15.41
527.466	15.49
527.814	15.57
528.161	15.79
528.508	15.66
528.854	15.6
529.201	15.55
529.548	15.33
529.895	15.16
530.242	15
530.588	15.17
530.935	15.35
531.282	15.52
531.628	15.61
531.975	15.73
532.321	15.83
532.667	16.03
533.014	16.05
533.36	16.09
533.706	16.05
534.052	15.88
534.399	15.89
534.745	15.81
535.091	15.77
535.437	15.83
535.783	15.96
536.129	16.18
536.474	16.22
536.82	16.33
537.166	16.31
537.512	16.3
537.857	16.24
538.203	16.15
538.549	16.29
538.894	16.28
539.239	16.43
539.585	16.56
539.93	16.59
540.276	16.95
540.621	16.79
540.966	16.97
541.311	16.75
541.656	16.76
542.001	16.51
542.346	16.43
542.691	16.31
543.036	16.16
543.381	16.27
543.726	16.31
544.071	16.55
544.415	16.66
544.76	16.72
545.105	16.61
545.449	16.73
545.794	16.98
546.138	16.98
546.483	17.11
546.827	17.26
547.171	17.21
547.516	17.08
547.86	17.07
548.204	17.15
548.548	17.09
548.892	17.23
549.236	17.24
549.58	17.4
549.924	17.48
550.268	17.55
550.612	17.56
550.956	17.78
551.3	17.76
551.643	17.78
551.987	17.89
552.33	17.94
552.674	17.81
553.017	17.91
553.361	18.01
553.704	18.02
554.048	17.93
554.391	17.91
554.734	17.86
555.077	18.09
555.42	18.02
555.764	18.16
556.107	18.19
556.45	18.18
556.793	18.42
557.135	18.18
557.478	18.4
557.821	18.42
558.164	18.36
558.507	18.39
558.849	18.52
559.192	18.51
559.534	18.43
559.877	18.61
560.219	18.7
560.562	18.45
560.904	18.59
561.246	18.53
561.589	18.61
561.931	18.56
562.273	18.64
562.615	18.71
562.957	18.51
563.299	18.65
563.641	18.64
563.983	18.73
564.325	18.85
564.667	18.93
565.008	18.91
565.35	18.77
565.692	18.78
566.033	18.78
566.375	18.94
566.716	19.08
567.058	18.79
567.399	18.89
567.741	18.99
568.082	18.82
568.423	19.02
568.764	19.08
569.105	19.12
569.447	19.17
569.788	19.1
570.129	19.12
570.47	19.1
570.811	19.21
571.151	19.3
571.492	19.3
571.833	19.25
572.174	19.57
572.514	19.42
572.855	19.54
573.195	19.2
573.536	19.29
573.876	19.11
574.217	19.42
574.557	19.4
574.898	19.48
575.238	19.45
575.578	19.45
575.918	19.61
576.258	19.56
576.598	19.47
576.938	19.61
577.278	19.52
577.618	19.59
577.958	19.55
578.298	19.71
578.638	19.88
578.977	20.02
579.317	19.96
579.657	19.96
579.996	19.92
580.336	20.12
580.675	19.94
581.014	20.09
581.354	19.97
581.693	20.16
582.032	20.15
582.372	20.1
582.711	20.38
583.05	20.25
583.389	20.4
583.728	20.32
584.067	20.37
584.406	20.43
584.745	20.53
585.083	20.44
585.422	20.44
585.761	20.48
586.1	20.42
586.438	20.39
586.777	20.52
587.115	20.62
587.454	20.48
587.792	20.73
588.13	20.5
588.469	20.48
588.807	20.77
589.145	20.78
589.483	20.75
589.821	20.94
590.159	20.91
590.497	20.81
590.835	20.73
591.173	20.73
591.511	20.97
591.849	20.58
592.187	20.94
592.524	20.81
592.862	20.93
593.2	20.87
593.537	21.14
593.875	21.21
594.212	21.16
594.55	21.21
594.887	20.86
595.224	21.1
595.561	21.15
595.899	21.12
596.236	21.15
596.573	21.04
596.91	21.29
597.247	21.32
597.584	21.21
597.921	21.21
598.258	21.15
598.594	21.19
598.931	20.86
599.268	20.95
599.604	21.22
599.941	21.41
600.277	21.54
600.614	21.79
600.95	21.37
601.287	21.77
601.623	21.93
601.959	21.47
602.296	21.72
602.632	21.57
602.968	21.66
603.304	21.88
603.64	21.98
603.976	21.82
604.312	21.66
604.648	21.72
604.984	21.63
605.319	21.62
605.655	21.62
605.991	21.62
606.326	21.74
606.662	21.47
606.998	21.82
607.333	21.75
607.668	21.86
608.004	21.92
608.339	21.88
608.674	22.02
609.01	22.11
609.345	22.11
609.68	21.8
610.015	22
610.35	21.97
610.685	21.93
611.02	21.69
611.355	22.02
611.689	22.12
612.024	21.95
612.359	22.16
612.694	22.31
613.028	22.23
613.363	22.58
613.697	22.3
614.032	22.46
614.366	22.47
614.7	22.58
615.035	22.41
615.369	22.38
615.703	22.54
616.037	22.84
616.371	22.84
616.705	23.08
617.039	22.66
617.373	22.76
617.707	22.75
618.041	22.83
618.375	22.56
618.709	23.15
619.042	22.97
619.376	23.05
619.71	23.05
620.043	23.04
620.377	22.77
620.71	22.96
621.043	23.24
621.377	22.87
621.71	22.71
622.043	22.91
622.376	23.23
622.709	22.88
623.043	23.08
623.376	23.12
623.709	23.25
624.041	23.26
624.374	23.13
624.707	23.57
625.04	23.15
625.373	22.74
625.705	23.61
626.038	23.54
626.37	23.22
626.703	23.33
627.035	23.51
627.368	22.57
627.7	23.27
628.032	23.3
628.365	23.34
628.697	23.45
629.029	23.27
629.361	23.26
629.693	23.42
630.025	23.52
630.357	23.66
630.689	23.53
631.021	23.78
631.353	23.76
631.684	23.6
632.016	23.62
632.348	23.45
632.679	23.44
633.011	23.97
633.342	23.57
633.674	23.93
634.005	24.14
634.336	23.56
634.668	23.86
634.999	24.24
635.33	23.76
635.661	23.98
635.992	24
636.323	23.83
636.654	23.84
636.985	23.8
637.316	24.11
637.647	24.33
637.977	24.42
638.308	23.93
638.639	24.18
638.969	24.1
639.3	24.24
639.63	24.42
639.961	24.68
640.291	24.49
640.622	24.8
640.952	24.13
641.282	23.72
641.612	24.44
641.943	24.63
642.273	24.58
642.603	24.4
642.933	24.32
643.263	24.84
643.592	24.53
643.922	24.78
644.252	24.34
644.582	24.19
644.911	24.59
645.241	24.57
645.571	24.21
645.9	24.53
646.23	24.91
646.559	24.89
646.888	25.25
647.218	24.68
647.547	24.54
647.876	24.55
648.205	24.89
648.534	24.43
648.863	25.18
649.192	24.24
649.521	24.84
649.85	24.81
650.179	24.76
650.508	24.99
650.837	24.12
651.165	24.49
651.494	25.02
651.822	24.97
652.151	24.64
652.479	24.12
652.808	24.98
653.136	25.06
653.465	25.47
653.793	25.03
654.121	25.01
654.449	24.88
654.777	26.02
655.105	25.33
655.433	25.46
655.761	25.18
656.089	25.11
656.417	25.48
656.745	25.52
657.073	25.27
657.4	25.18
657.728	25.27
658.056	26.06
658.383	24.89
658.711	25.33
659.038	25.42
659.365	25.06
659.693	24.93
660.02	25.7
660.347	25.37
660.674	25.32
661.001	25.05
661.329	25.17
661.656	25.74
661.982	25.81
662.309	25.6
662.636	26.06
662.963	25.42
663.29	25.48
663.616	25.42
663.943	25.81
664.27	25.92
664.596	26.13
664.923	25.52
665.249	26.11
665.576	26.2
665.902	25.94
666.228	25.73
666.554	25.31
666.881	25.82
667.207	25.57
667.533	26.19
667.859	26.08
668.185	25.77
668.511	26.29
668.837	25.74
669.162	26.3
669.488	25.75
669.814	25.63
670.139	26.02
670.465	26.2
670.791	26.16
671.116	26.13
671.442	26.14
671.767	26.14
672.092	26.04
672.418	26.49
672.743	25.98
673.068	26.93
673.393	26.74
673.718	26.47
674.043	26.58
674.368	26.24
674.693	25.65
675.018	26.24
675.343	26.61
675.667	27.19
675.992	26.65
676.317	26.02
676.641	26.43
676.966	26.33
677.29	26.71
677.615	26.21
677.939	26.26
678.264	26.72
678.588	26.45
678.912	26.06
679.236	26.67
679.56	26.46
679.885	26.32
680.209	26.95
680.532	26.46
680.856	26.74
681.18	26.7
681.504	26.64
681.828	26.48
682.152	26.48
682.475	26.59
682.799	26.44
683.122	26.72
683.446	27.01
683.769	26.77
684.093	27.14
684.416	26.65
684.739	27.33
685.062	26.53
685.386	27.37
685.709	26.9
686.032	26.92
686.355	27.12
686.678	26.98
687.001	27.74
687.324	26.75
687.646	26.37
687.969	27.47
688.292	28.7
688.614	26.93
688.937	27.33
689.26	26.44
689.582	27.37
689.904	26.94
690.227	26.81
690.549	26.98
690.871	26.71
691.194	27.18
691.516	27.11
691.838	27.44
692.16	27.95
692.482	27.8
692.804	27.47
693.126	27.29
693.448	27.06
693.769	27.05
694.091	26.95
694.413	27.45
694.735	27.25
695.056	27.27
695.378	27.65
695.699	27.8
696.021	26.86
696.342	27.36
696.663	28.31
696.984	28.35
697.306	26.79
697.627	26.85
697.948	27.42
698.269	28.09
698.59	26.8
698.911	27.8
699.232	27.36
699.553	27.83
699.873	27.87
700.194	27.45
700.515	27.5
700.835	27.23
701.156	27.68
701.477	27.83
701.797	27.55
702.117	27.67
702.438	28.04
702.758	27.58
703.078	28.29
703.398	28.09
703.719	27.66
704.039	27.99
704.359	27.84
704.679	29.08
704.999	28.12
705.319	27.28
705.638	28.37
705.958	27.86
706.278	28.42
706.597	27.82
706.917	27.21
707.237	28.55
707.556	27.32
707.876	28.29
708.195	28.13
708.514	28.53
708.834	27.86
709.153	27.76
709.472	28.31
709.791	28.49
710.11	28.42
710.429	29.63
710.748	27.57
711.067	27.37
711.386	28.77
711.705	28.1
712.023	28.93
712.342	28.03
712.661	28.3
712.979	28.27
713.298	28.71
713.616	28.74
713.935	28.26
714.253	28.39
714.572	27.77
714.89	28.86
715.208	28.9
715.526	28.53
715.844	28.06
716.162	28.7
716.48	28.95
716.798	28.67
717.116	28.48
717.434	28.64
717.752	28.96
718.069	28.47
718.387	30.09
718.705	28.01
719.022	29.51
719.34	29.52
719.657	28.52
719.975	28.87
720.292	29.05
720.609	27.83
720.927	28.43
721.244	29.1
721.561	28.99
721.878	28.6
722.195	28.94
722.512	28.06
722.829	29.46
723.146	29.24
723.463	29.8
723.779	30.33
724.096	29.78
724.413	29.09
724.729	26.74
725.046	30.44
725.362	28.49
725.679	30.6
725.995	29.11
726.311	28.7
726.628	29.82
726.944	28.76
727.26	28.95
727.576	29.66
727.892	29.22
728.208	29.45
728.524	28.57
728.84	30.4
729.156	28.22
729.472	29.19
729.787	28.09
730.103	29.61
730.419	29.72
730.734	29.64
731.05	28.62
731.365	30.47
731.681	29.11
731.996	29.25
732.311	28.89
732.626	28.01
732.942	29.37
733.257	28.86
733.572	30.32
733.887	29.21
734.202	29.56
734.517	29.42
734.832	29.14
735.146	29.62
735.461	29.12
735.776	29.39
736.091	29.34
736.405	29.84
736.72	29.7
737.034	27.57
737.349	30.14
737.663	29.4
737.977	30.47
738.292	29.78
738.606	28.08
738.92	29.08
739.234	28.87
739.548	29.28
739.862	30.04
740.176	30.46
740.49	28.67
740.804	29.01
741.117	30.37
741.431	28.55
741.745	29.19
742.058	28.84
742.372	29.13
742.685	30.35
742.999	29.28
743.312	30.87
743.626	30.84
743.939	30.03
744.252	30.49
744.565	29.58
744.878	30.9
745.191	30.59
745.505	29.07
745.817	30.06
746.13	30.95
746.443	30.03
746.756	29.1
747.069	30.88
747.381	30.54
747.694	29.27
748.007	30.29
748.319	29.87
748.632	28.73
748.944	28.94
749.256	30.26
749.569	29.23
749.881	31.01
750.193	31.22
750.505	31.5
750.817	30.47
751.129	29.83
751.441	30.56
751.753	29.88
752.065	29.32
752.377	31.08
752.689	31.68
753	30.2
753.312	28.78
753.624	30.33
753.935	29.73
754.247	28.62
754.558	29.82
754.869	30.1
755.181	28.87
755.492	29.87
755.803	29.05
756.114	30.27
756.425	30.22
756.736	30.17
757.047	32.05
757.358	31.35
757.669	30.26
757.98	31.57
758.291	31.62
758.601	29.15
758.912	30.84
759.223	32.17
759.533	31.01
759.844	30.25
760.154	30.57
760.464	30.89
760.775	30.55
761.085	30.21
761.395	29.31
761.705	33.13
762.016	31.41
762.326	29.07
762.636	32.21
762.945	30.98
763.255	31.68
763.565	30.31
763.875	30.62
764.185	30.88
764.494	30.22
764.804	31.02
765.113	32.19
765.423	30.82
765.732	29.99
766.042	31.2
766.351	30.23
766.66	31.69
766.97	31.68
767.279	32.13
767.588	31.48
767.897	30.35
768.206	32.25
768.515	30.89
768.824	29.64
769.133	30.4
769.441	31.55
769.75	34.01
770.059	31.29
770.367	31.2
770.676	29.38
770.984	30.73
771.293	29.28
771.601	33.53
771.91	33.36
772.218	31.78
772.526	28.58
772.834	28.47
773.142	30.03
773.45	30.3
773.758	31.51
774.066	31.41
774.374	30.14
774.682	30.9
774.99	33
775.298	30.36
775.605	30.71
775.913	31.85
776.22	32.48
776.528	32.52
776.835	30.27
777.143	32.52
777.45	30.81
777.757	31.85
778.065	31.91
778.372	34.65
778.679	33.15
778.986	29.43
779.293	34.19
779.6	30.79
779.907	31.97
780.214	31.93
780.52	32.16
780.827	32.16
781.134	30.61
781.44	30.23
781.747	29.51
782.053	36
782.36	34.93
782.666	28.55
782.973	30.93
783.279	30.68
783.585	32.4
783.891	32.38
784.197	31.72
784.503	32.53
784.809	36.47
785.115	28.46
785.421	31.51
785.727	34.05
786.033	34.34
786.339	32.77
786.644	29.66
786.95	31.28
787.255	28.46
787.561	32.99
787.866	34.29
788.172	29.31
788.477	33.01
788.782	33.82
789.088	31.46
789.393	32.96
789.698	31.67
790.003	29.46
790.308	29.19
790.613	30.04
790.918	30.44
791.223	30.44
791.527	29.27
791.832	29.31
792.137	29.19
792.441	32.39
792.746	26.87
793.05	32.02
793.355	30.44
793.659	31.59
793.963	31.94
794.268	32.98
794.572	30.85
794.876	28.03
795.18	33.73
795.484	30.96
795.788	24.08
796.092	30.52
796.396	34.12
796.7	31.04
797.004	33.06
797.307	33.36
797.611	33.79
797.915	33.36
798.218	33.61
798.522	34.02
798.825	32.66
799.128	29.41
799.432	31.3
799.735	27.38
800.038	33.48
800.341	33.41
800.644	32.64
800.947	30.8
801.25	29.3
801.553	31.52
801.856	34.8
802.159	29.98
802.462	30.93
802.764	33.32
803.067	33.27
803.37	32.99
803.672	31.94
803.975	33.82
804.277	34.09
804.579	32.49
804.882	25.76
805.184	31.89
805.486	33
805.788	36.91
806.09	31.16
806.392	31.72
806.694	32.47
806.996	36.31
807.298	33.09
807.6	29.62
807.902	34.81
808.203	30.04
808.505	34.39
808.807	32.86
809.108	31.27
809.409	32.12
809.711	35.1
810.012	37.2
810.313	35.47
810.615	30.37
810.916	31.99
811.217	32.24
811.518	28.37
811.819	35.05
812.12	31.69
812.421	37.24
812.722	32.12
813.023	30.2
813.323	34.49
813.624	35.63
813.925	31.4
814.225	29.33
814.526	33.31
814.826	33.91
815.126	30.63
815.427	34.95
815.727	26.46
816.027	33.11
816.327	33.53
816.627	32.41
816.927	35.94
817.227	33.71
817.527	29.88
817.827	33.79
818.127	36.31
818.427	40.07
818.727	28.73
819.026	32.46
819.326	28.26
819.625	34.34
819.925	35.24
820.224	31.03
820.524	30.07
820.823	34.82
821.122	35.85
821.421	33.72
821.72	28.58
822.019	34.33
822.318	36.16
822.617	33.34
822.916	32.81
823.215	33.74
823.514	34.31
823.813	33.77
824.111	32.11
824.41	33.46
824.709	33.74
825.007	32.87
825.306	33.26
825.604	34.13
825.902	34.69
826.201	34.43
826.499	33.58
826.797	32.43
827.095	34.32
827.393	33.79
827.691	33.45
827.989	33.54
828.287	34.52
828.585	32.37
828.882	34.18
829.18	35.83
829.478	35.2
829.775	33.31
830.073	35.11
830.37	33.15
830.668	32.55
830.965	33.34
831.263	35.87
831.56	36.62
831.857	36.09
832.154	31.29
832.451	32.5
832.748	32.52
833.045	35.43
833.342	34.65
833.639	35.64
833.936	31.45
834.232	33.35
834.529	33.34
834.826	36.19
835.122	33.16
835.419	35.15
835.715	32.3
836.012	35.74
836.308	30.66
836.604	33.59
836.901	33.01
837.197	35.08
837.493	31.72
837.789	32.71
838.085	29.51
838.381	34.49
838.677	32.79
838.972	32.6
839.268	35.54
839.564	37.14
839.86	28.27
840.155	31.02
840.451	28.15
840.746	26.86
841.042	30.21
841.337	38.22
841.632	36.87
841.928	31.75
842.223	36.81
842.518	27.95
842.813	31.47
843.108	30.52
843.403	27.16
843.698	35.31
843.993	36.14
844.287	31.62
844.582	23.28
844.877	30.74
845.171	27.31
845.466	37.99
845.761	26.6
846.055	33.06
846.349	21.46
846.644	31.87
846.938	44.97
847.232	11.31
847.526	32.12
847.82	21.51
848.114	28.89
848.408	31.43
848.702	46.1
848.996	35.37
849.29	32.7
849.584	25.15
849.877	13.42
850.171	17.12
850.465	33.72
850.758	32.24
851.052	25.14
851.345	26.3
851.638	35.2
851.932	26.84
852.225	42.92
852.518	38.75
852.811	26.01
853.104	42.51
853.397	39.8
853.69	31.5
853.983	32.89
854.276	30.4
854.569	32.61
854.861	23.01
855.154	29.2
855.447	32.41
855.739	16.54
856.032	35.04
856.324	46.85
856.616	33.74
856.909	15.36
857.201	43.02
857.493	39.3
857.785	43.94
858.077	26.4
858.369	46.87
858.661	22.43
858.953	39.79
859.245	30.92
859.537	27.17
859.829	13.95
860.12	30.55
860.412	5.5
860.703	58.1
860.995	40.2
861.286	20.77
861.578	23.22
861.869	35.26
862.16	6.8
862.452	45.77
862.743	30.07
863.034	28.43
863.325	32.79
863.616	43.48
863.907	43.67
864.198	-15.69
864.488	43.32
864.779	44.59
865.07	29.17
865.36	44.85
865.651	14.67
865.941	33.69
866.232	39.95
866.522	32.82
866.813	46.23
867.103	53.79
867.393	35.46
867.683	18.38
867.973	16.61
868.263	24.32
868.553	56.6
868.843	46.48
869.133	26.05
869.423	44.75
869.713	29.76
870.002	35.05
870.292	42.36
870.582	40.15
870.871	39.53
871.161	33.77
871.45	51.27
871.739	-2.37
872.029	43.98
872.318	26.37
872.607	32.64
872.896	29.32
873.185	31.59
873.474	37.17
873.763	1.7
874.052	31.02
874.341	42.41
874.63	34.24
874.918	42.72
875.207	26.85
875.496	22.61
875.784	26.28
876.073	26.62
876.361	50.19
876.649	45.13
876.938	28.13
877.226	21.54
877.514	25.26
877.802	26.9
878.09	31.65
878.378	25.83
878.666	7.41
878.954	5.78
879.242	28.1
879.53	37.18
879.817	22.14
880.105	20.85
880.392	59.44
880.68	13.61
880.967	46.86
881.255	22.72
881.542	53.27
881.83	30.97
882.117	40.93
882.404	48.56
882.691	36.19
882.978	34.7
883.265	26.35
883.552	31.96
883.839	40.84
884.126	24.6
884.413	47.04
884.699	27.68
884.986	36.03
885.273	42.36
885.559	42.36
885.846	42.36
