Data from 20-2_crown_Reflection__4__39.txt Node

Date: Fri Nov 11 20:28:49 CST 2022
User: ToomeyLab
Spectrometer: FLMS14357
Trigger mode: 0
Integration Time (sec): 1.000000E-2
Scans to average: 100
Electric dark correction enabled: true
Nonlinearity correction enabled: false
Boxcar width: 0
XAxis mode: Wavelengths
Number of Pixels in Spectrum: 2048
>>>>>Begin Spectral Data<<<<<
189.047	360
189.435	360
189.823	360
190.211	-109.22
190.599	470.8
190.987	186.44
191.375	-497.23
191.763	-101.14
192.151	-52.38
192.538	-12.81
192.926	527.56
193.314	217.38
193.702	-92.62
194.089	135.43
194.477	-516.06
194.864	109.22
195.252	339.9
195.639	10.5
196.027	40
196.414	65.94
196.801	705.93
197.189	136.78
197.576	63.32
197.963	30.75
198.351	-15.22
198.738	-10.14
199.125	-10.53
199.512	-0.86
199.899	-34.25
200.286	-28.08
200.673	4.39
201.06	12.82
201.447	-4.59
201.833	15.89
202.22	19.88
202.607	13.04
202.994	28.72
203.38	37.56
203.767	23.74
204.154	26.14
204.54	-3.47
204.927	36.05
205.313	2.11
205.699	-10.27
206.086	29.13
206.472	7.43
206.858	56.55
207.245	39.83
207.631	-3.16
208.017	-9.73
208.403	-2.27
208.789	13.5
209.175	13.05
209.561	51.55
209.947	15.61
210.333	2.56
210.719	18.16
211.105	28.03
211.491	27.96
211.876	24.13
212.262	41.44
212.648	16.39
213.034	12.32
213.419	9.2
213.805	10.74
214.19	16.51
214.576	10.97
214.961	-26.23
215.346	-17.03
215.732	-46.77
216.117	10.69
216.502	52.48
216.888	-3.76
217.273	4.2
217.658	-11.93
218.043	-8.59
218.428	-7.75
218.813	20.03
219.198	16.59
219.583	19.54
219.968	6.23
220.353	-12.49
220.738	12.38
221.122	6.79
221.507	-11.56
221.892	-8.12
222.276	13.46
222.661	27.13
223.046	-23.37
223.43	-6.72
223.815	-5.71
224.199	12.42
224.583	-1.01
224.968	-0.25
225.352	5.64
225.736	5.09
226.121	4.99
226.505	10.48
226.889	-4.15
227.273	3.75
227.657	-2.14
228.041	0.54
228.425	2.2
228.809	2.78
229.193	5.7
229.577	4
229.961	3.62
230.344	3.62
230.728	2.07
231.112	1.85
231.495	2.93
231.879	1.56
232.263	1.94
232.646	1.28
233.03	2.37
233.413	3.04
233.797	4.02
234.18	0.42
234.563	1.53
234.946	2.17
235.33	3.74
235.713	1.29
236.096	2.22
236.479	2.55
236.862	4.87
237.245	3.05
237.628	3.93
238.011	2.89
238.394	3.42
238.777	2.78
239.16	3.16
239.543	2.33
239.925	3.95
240.308	2.42
240.691	3.82
241.073	2.25
241.456	2.23
241.838	2.66
242.221	2.19
242.603	2.81
242.986	2.78
243.368	2.67
243.75	2.76
244.133	2.65
244.515	2.26
244.897	2.84
245.279	1.73
245.661	2.15
246.043	2.52
246.425	3.47
246.807	2.45
247.189	1.9
247.571	2.4
247.953	2.3
248.335	2.31
248.717	2.42
249.098	2.45
249.48	2.07
249.862	2.81
250.243	2.1
250.625	2.18
251.006	3.02
251.388	2.96
251.769	2.52
252.151	2.1
252.532	3.05
252.913	2.22
253.295	2.28
253.676	1.31
254.057	1.93
254.438	2.58
254.819	1.98
255.2	2.58
255.581	2.89
255.962	2.07
256.343	1.42
256.724	1.39
257.105	2.25
257.486	2.17
257.867	3.11
258.247	1.43
258.628	2.35
259.009	2.48
259.389	2.16
259.77	2.37
260.15	2.13
260.531	1.93
260.911	2.15
261.292	2.43
261.672	2.02
262.052	2.22
262.432	2.5
262.813	2.23
263.193	2.03
263.573	1.92
263.953	2.37
264.333	1.75
264.713	2.63
265.093	2.13
265.473	1.69
265.853	1.98
266.233	2.68
266.612	2.29
266.992	2
267.372	2.71
267.752	2.7
268.131	2.09
268.511	2.5
268.89	1.48
269.27	1.98
269.649	2.14
270.029	2.81
270.408	2.55
270.787	2.39
271.167	1.65
271.546	2.31
271.925	2.29
272.304	2.08
272.683	2.27
273.062	1.9
273.441	2.55
273.82	2.23
274.199	1.65
274.578	1.95
274.957	2.46
275.336	2.63
275.715	2.31
276.093	2.47
276.472	1.97
276.851	2.1
277.229	1.96
277.608	2.4
277.986	2.57
278.365	1.82
278.743	2.12
279.122	2.46
279.5	2.2
279.878	2.05
280.257	2
280.635	1.67
281.013	2
281.391	2.47
281.769	1.71
282.147	1.78
282.525	1.6
282.903	2.12
283.281	2.09
283.659	2.07
284.037	2.23
284.415	1.77
284.792	2.14
285.17	2.06
285.548	1.75
285.925	1.97
286.303	1.97
286.68	2.24
287.058	2.05
287.435	2.08
287.813	2.2
288.19	1.86
288.567	2.12
288.945	2.05
289.322	2.48
289.699	1.23
290.076	2.24
290.453	2.48
290.83	1.81
291.207	2.17
291.584	2.4
291.961	2.09
292.338	2.06
292.715	1.97
293.092	2.22
293.469	1.88
293.845	2.5
294.222	2.17
294.599	2.34
294.975	1.91
295.352	2.32
295.728	2.12
296.105	1.75
296.481	2.13
296.858	1.94
297.234	2.12
297.61	1.99
297.986	2.33
298.363	2.03
298.739	2.16
299.115	2.5
299.491	2.09
299.867	1.97
300.243	2.06
300.619	2.43
300.995	2.1
301.371	2.8
301.746	2.33
302.122	1.97
302.498	2.19
302.874	2.02
303.249	2.18
303.625	2.1
304	1.76
304.376	2.09
304.751	2.05
305.127	1.74
305.502	2.39
305.878	2.44
306.253	2
306.628	2.03
307.003	1.81
307.378	1.74
307.754	2.82
308.129	2.05
308.504	2.27
308.879	2.25
309.254	2.19
309.629	2.19
310.003	2.45
310.378	2.15
310.753	2.45
311.128	2.66
311.502	2.45
311.877	1.97
312.252	2.1
312.626	2.03
313.001	2.08
313.375	2.1
313.75	1.97
314.124	2.24
314.498	2.18
314.873	2.45
315.247	1.95
315.621	2.28
315.995	2.65
316.369	2.3
316.743	2.49
317.117	2.52
317.491	2.04
317.865	1.83
318.239	2.53
318.613	2.66
318.987	2.02
319.361	1.9
319.734	2.3
320.108	1.79
320.482	2.58
320.855	2.01
321.229	2.19
321.602	2.18
321.976	2
322.349	2.39
322.723	2.61
323.096	2.28
323.469	2.03
323.843	2.51
324.216	1.6
324.589	2.39
324.962	2.41
325.335	1.91
325.708	2.26
326.081	2.49
326.454	1.95
326.827	2.16
327.2	2.69
327.573	2.89
327.945	1.96
328.318	2.02
328.691	2.72
329.063	2.03
329.436	1.57
329.809	1.84
330.181	1.42
330.553	2
330.926	2.6
331.298	2.16
331.671	1.87
332.043	1.5
332.415	1.81
332.787	2.54
333.159	2.12
333.532	1.98
333.904	2.51
334.276	1.88
334.648	1.92
335.02	1.9
335.391	2.52
335.763	2.25
336.135	2.31
336.507	1.94
336.879	2.17
337.25	2.18
337.622	2.54
337.993	2.77
338.365	2.62
338.736	2.19
339.108	2.42
339.479	2.1
339.851	2.71
340.222	2.42
340.593	2.43
340.964	2.28
341.336	2.21
341.707	2.4
342.078	1.8
342.449	2.31
342.82	2.68
343.191	2.54
343.562	2.16
343.933	1.98
344.303	2.21
344.674	2.12
345.045	2.32
345.416	2.25
345.786	1.83
346.157	1.88
346.527	2.06
346.898	1.7
347.268	2.09
347.639	2.07
348.009	2.11
348.38	2.52
348.75	2.13
349.12	2.66
349.49	2.68
349.861	2.23
350.231	2.5
350.601	2.33
350.971	2.29
351.341	2.59
351.711	2.22
352.081	2.54
352.45	2.32
352.82	1.87
353.19	2.23
353.56	2.29
353.929	2.19
354.299	2.25
354.669	2.33
355.038	2.12
355.408	2.19
355.777	2.41
356.147	2.5
356.516	2.37
356.885	2.69
357.254	2.2
357.624	1.9
357.993	2.45
358.362	2.19
358.731	1.91
359.1	2.17
359.469	1.89
359.838	2.11
360.207	2.21
360.576	2.36
360.945	2.16
361.314	1.98
361.682	1.99
362.051	2.09
362.42	2.17
362.788	2.4
363.157	2.06
363.525	2.02
363.894	2.22
364.262	2.52
364.631	2.41
364.999	2.28
365.367	2.29
365.735	2.17
366.104	1.84
366.472	2.04
366.84	1.91
367.208	1.96
367.576	2.35
367.944	2.41
368.312	2.23
368.68	2.16
369.048	2.19
369.416	2.52
369.783	2.47
370.151	1.99
370.519	2.25
370.886	2.1
371.254	2.69
371.621	2.08
371.989	2.03
372.356	2.34
372.724	2.59
373.091	2.38
373.458	2.07
373.826	2.05
374.193	2.22
374.56	2.04
374.927	2.17
375.294	2.26
375.661	2.57
376.028	2.26
376.395	2.38
376.762	2.41
377.129	2.15
377.496	2.2
377.863	2.29
378.229	2.37
378.596	2.51
378.963	2.34
379.329	2.28
379.696	2.32
380.062	2.41
380.429	2.27
380.795	2.52
381.161	2.23
381.528	2.46
381.894	2.45
382.26	2.56
382.626	2.49
382.993	2.22
383.359	2.51
383.725	2.31
384.091	2.36
384.457	2.26
384.823	2
385.188	2.48
385.554	2.23
385.92	2.05
386.286	2.36
386.651	2.54
387.017	2.15
387.383	2.1
387.748	2.23
388.114	2.2
388.479	2.11
388.845	2.26
389.21	1.89
389.575	2.19
389.94	2.49
390.306	2.11
390.671	2.22
391.036	2.19
391.401	2.25
391.766	2.47
392.131	2.29
392.496	2.29
392.861	2.27
393.226	2.19
393.591	2.07
393.956	2.47
394.32	2.22
394.685	2.37
395.05	2.59
395.414	2.29
395.779	2.39
396.143	2.18
396.508	2.68
396.872	2.36
397.236	2.35
397.601	2.29
397.965	2.41
398.329	2.36
398.694	2.51
399.058	2.6
399.422	2.19
399.786	2.31
400.15	2.46
400.514	2.6
400.878	2.35
401.242	2.12
401.605	2.4
401.969	2.53
402.333	2.22
402.697	2.39
403.06	2.35
403.424	2.09
403.787	2.28
404.151	2.15
404.514	2.24
404.878	2.44
405.241	2.33
405.604	2.32
405.968	2.42
406.331	1.94
406.694	2.32
407.057	2.33
407.42	2.37
407.783	2.33
408.146	2.35
408.509	2.38
408.872	2.25
409.235	2.39
409.598	2.36
409.961	2.63
410.323	2.32
410.686	2.45
411.049	2.28
411.411	2.51
411.774	2.17
412.136	2.4
412.499	2.39
412.861	2.33
413.223	2.29
413.586	2.42
413.948	2.45
414.31	2.54
414.672	2.49
415.035	2.51
415.397	2.43
415.759	2.08
416.121	2.41
416.483	2.28
416.845	2.41
417.206	2.2
417.568	2.18
417.93	2.32
418.292	2.11
418.653	2.42
419.015	2.33
419.377	2.28
419.738	2.28
420.1	2.43
420.461	2.29
420.822	2.38
421.184	2.32
421.545	2.29
421.906	2.23
422.267	2.32
422.629	2.16
422.99	2.3
423.351	2.25
423.712	2.26
424.073	2.34
424.434	2.42
424.795	2.39
425.155	2.31
425.516	2.32
425.877	2.25
426.238	2.27
426.598	2.28
426.959	2.31
427.32	2.39
427.68	2.35
428.041	2.38
428.401	2.15
428.761	2.39
429.122	2.39
429.482	2.43
429.842	2.36
430.202	2.43
430.563	2.39
430.923	2.37
431.283	2.34
431.643	2.27
432.003	2.34
432.363	2.21
432.722	2.44
433.082	2.27
433.442	2.44
433.802	2.44
434.161	2.34
434.521	2.25
434.881	2.48
435.24	2.28
435.6	2.31
435.959	2.4
436.319	2.33
436.678	2.33
437.037	2.28
437.396	2.45
437.756	2.32
438.115	2.3
438.474	2.35
438.833	2.41
439.192	2.49
439.551	2.35
439.91	2.37
440.269	2.35
440.628	2.39
440.987	2.24
441.345	2.39
441.704	2.33
442.063	2.32
442.421	2.31
442.78	2.22
443.138	2.38
443.497	2.19
443.855	2.25
444.214	2.35
444.572	2.43
444.93	2.35
445.288	2.29
445.647	2.36
446.005	2.43
446.363	2.5
446.721	2.41
447.079	2.39
447.437	2.27
447.795	2.26
448.153	2.25
448.51	2.31
448.868	2.31
449.226	2.34
449.584	2.33
449.941	2.33
450.299	2.36
450.656	2.47
451.014	2.42
451.371	2.46
451.729	2.25
452.086	2.36
452.443	2.32
452.801	2.5
453.158	2.19
453.515	2.44
453.872	2.33
454.229	2.31
454.586	2.32
454.943	2.52
455.3	2.46
455.657	2.46
456.014	2.58
456.371	2.45
456.727	2.57
457.084	2.11
457.441	2.44
457.797	2.36
458.154	2.47
458.51	2.3
458.867	2.21
459.223	2.41
459.58	2.4
459.936	2.28
460.292	2.31
460.648	2.5
461.005	2.39
461.361	2.42
461.717	2.31
462.073	2.41
462.429	2.32
462.785	2.3
463.141	2.31
463.496	2.36
463.852	2.48
464.208	2.4
464.564	2.37
464.919	2.35
465.275	2.31
465.631	2.41
465.986	2.6
466.342	2.42
466.697	2.44
467.052	2.43
467.408	2.44
467.763	2.29
468.118	2.41
468.473	2.5
468.829	2.4
469.184	2.55
469.539	2.49
469.894	2.42
470.249	2.49
470.603	2.34
470.958	2.43
471.313	2.53
471.668	2.37
472.023	2.27
472.377	2.54
472.732	2.49
473.086	2.39
473.441	2.52
473.795	2.32
474.15	2.41
474.504	2.46
474.859	2.42
475.213	2.53
475.567	2.4
475.921	2.54
476.275	2.61
476.63	2.55
476.984	2.57
477.338	2.37
477.692	2.23
478.045	2.42
478.399	2.58
478.753	2.39
479.107	2.46
479.461	2.35
479.814	2.25
480.168	2.41
480.521	2.46
480.875	2.42
481.228	2.44
481.582	2.44
481.935	2.3
482.289	2.37
482.642	2.42
482.995	2.34
483.348	2.38
483.701	2.43
484.055	2.37
484.408	2.33
484.761	2.26
485.114	2.21
485.466	2.19
485.819	2.19
486.172	2.25
486.525	2.29
486.878	2.3
487.23	2.28
487.583	2.29
487.936	2.33
488.288	2.31
488.641	2.27
488.993	2.29
489.345	2.25
489.698	2.27
490.05	2.23
490.402	2.32
490.754	2.35
491.107	2.33
491.459	2.26
491.811	2.41
492.163	2.36
492.515	2.38
492.866	2.33
493.218	2.27
493.57	2.28
493.922	2.35
494.274	2.33
494.625	2.38
494.977	2.46
495.328	2.48
495.68	2.37
496.031	2.43
496.383	2.42
496.734	2.42
497.086	2.46
497.437	2.45
497.788	2.39
498.139	2.39
498.49	2.36
498.842	2.31
499.193	2.47
499.544	2.44
499.894	2.36
500.245	2.46
500.596	2.38
500.947	2.44
501.298	2.4
501.648	2.5
501.999	2.48
502.35	2.63
502.7	2.45
503.051	2.42
503.401	2.39
503.752	2.49
504.102	2.45
504.452	2.34
504.803	2.38
505.153	2.36
505.503	2.42
505.853	2.48
506.203	2.45
506.553	2.31
506.903	2.29
507.253	2.39
507.603	2.44
507.953	2.44
508.303	2.35
508.652	2.48
509.002	2.38
509.352	2.42
509.701	2.35
510.051	2.4
510.4	2.5
510.75	2.39
511.099	2.35
511.449	2.39
511.798	2.43
512.147	2.38
512.496	2.28
512.846	2.47
513.195	2.36
513.544	2.47
513.893	2.34
514.242	2.38
514.591	2.49
514.939	2.37
515.288	2.46
515.637	2.42
515.986	2.5
516.334	2.43
516.683	2.48
517.032	2.39
517.38	2.45
517.729	2.4
518.077	2.49
518.426	2.42
518.774	2.45
519.122	2.46
519.47	2.44
519.819	2.43
520.167	2.32
520.515	2.42
520.863	2.45
521.211	2.36
521.559	2.33
521.907	2.58
522.255	2.44
522.602	2.41
522.95	2.39
523.298	2.45
523.645	2.4
523.993	2.49
524.341	2.46
524.688	2.5
525.036	2.48
525.383	2.42
525.73	2.47
526.078	2.24
526.425	2.31
526.772	2.44
527.119	2.28
527.466	2.41
527.814	2.42
528.161	2.43
528.508	2.36
528.854	2.3
529.201	2.33
529.548	2.28
529.895	2.26
530.242	2.22
530.588	2.25
530.935	2.32
531.282	2.34
531.628	2.4
531.975	2.35
532.321	2.32
532.667	2.46
533.014	2.37
533.36	2.38
533.706	2.44
534.052	2.34
534.399	2.31
534.745	2.32
535.091	2.33
535.437	2.3
535.783	2.38
536.129	2.41
536.474	2.38
536.82	2.42
537.166	2.32
537.512	2.38
537.857	2.33
538.203	2.36
538.549	2.47
538.894	2.37
539.239	2.36
539.585	2.42
539.93	2.47
540.276	2.47
540.621	2.47
540.966	2.47
541.311	2.42
541.656	2.45
542.001	2.42
542.346	2.32
542.691	2.36
543.036	2.31
543.381	2.28
543.726	2.3
544.071	2.38
544.415	2.4
544.76	2.48
545.105	2.33
545.449	2.3
545.794	2.42
546.138	2.35
546.483	2.43
546.827	2.43
547.171	2.45
547.516	2.35
547.86	2.34
548.204	2.52
548.548	2.37
548.892	2.41
549.236	2.38
549.58	2.38
549.924	2.49
550.268	2.51
550.612	2.4
550.956	2.62
551.3	2.41
551.643	2.47
551.987	2.6
552.33	2.48
552.674	2.38
553.017	2.6
553.361	2.53
553.704	2.46
554.048	2.35
554.391	2.5
554.734	2.43
555.077	2.59
555.42	2.45
555.764	2.57
556.107	2.48
556.45	2.62
556.793	2.49
557.135	2.4
557.478	2.56
557.821	2.54
558.164	2.5
558.507	2.39
558.849	2.58
559.192	2.58
559.534	2.53
559.877	2.54
560.219	2.45
560.562	2.48
560.904	2.55
561.246	2.34
561.589	2.51
561.931	2.24
562.273	2.48
562.615	2.37
562.957	2.45
563.299	2.46
563.641	2.36
563.983	2.4
564.325	2.36
564.667	2.6
565.008	2.58
565.35	2.5
565.692	2.47
566.033	2.45
566.375	2.74
566.716	2.56
567.058	2.28
567.399	2.54
567.741	2.52
568.082	2.6
568.423	2.44
568.764	2.65
569.105	2.44
569.447	2.63
569.788	2.56
570.129	2.43
570.47	2.44
570.811	2.53
571.151	2.69
571.492	2.76
571.833	2.55
572.174	2.5
572.514	2.59
572.855	2.63
573.195	2.25
573.536	2.49
573.876	2.55
574.217	2.68
574.557	2.49
574.898	2.56
575.238	2.51
575.578	2.49
575.918	2.57
576.258	2.67
576.598	2.55
576.938	2.62
577.278	2.31
577.618	2.52
577.958	2.52
578.298	2.53
578.638	2.61
578.977	2.59
579.317	2.64
579.657	2.75
579.996	2.66
580.336	2.39
580.675	2.61
581.014	2.65
581.354	2.6
581.693	2.49
582.032	2.49
582.372	2.84
582.711	2.63
583.05	2.54
583.389	2.54
583.728	2.77
584.067	2.83
584.406	2.6
584.745	2.65
585.083	2.59
585.422	2.47
585.761	2.77
586.1	2.43
586.438	2.4
586.777	2.58
587.115	2.45
587.454	2.63
587.792	2.42
588.13	2.71
588.469	2.45
588.807	2.54
589.145	2.39
589.483	2.75
589.821	2.79
590.159	2.9
590.497	2.64
590.835	2.62
591.173	2.55
591.511	2.57
591.849	2.59
592.187	2.69
592.524	2.4
592.862	2.31
593.2	2.6
593.537	2.45
593.875	2.76
594.212	2.58
594.55	2.62
594.887	2.57
595.224	2.52
595.561	2.47
595.899	2.56
596.236	2.41
596.573	2.45
596.91	2.66
597.247	2.5
597.584	2.6
597.921	2.84
598.258	2.51
598.594	2.52
598.931	2.43
599.268	2.51
599.604	2.68
599.941	2.53
600.277	2.68
600.614	2.5
600.95	2.42
601.287	2.65
601.623	2.69
601.959	2.64
602.296	2.51
602.632	2.54
602.968	2.66
603.304	2.63
603.64	2.61
603.976	2.6
604.312	2.52
604.648	2.32
604.984	2.67
605.319	2.77
605.655	2.64
605.991	2.52
606.326	2.74
606.662	2.49
606.998	2.58
607.333	2.73
607.668	2.57
608.004	2.7
608.339	2.62
608.674	2.68
609.01	2.65
609.345	2.74
609.68	2.37
610.015	2.64
610.35	2.35
610.685	2.65
611.02	2.43
611.355	2.43
611.689	2.55
612.024	2.65
612.359	2.5
612.694	2.38
613.028	2.62
613.363	2.55
613.697	2.68
614.032	2.71
614.366	2.37
614.7	2.82
615.035	2.51
615.369	2.5
615.703	2.48
616.037	2.88
616.371	2.68
616.705	2.8
617.039	2.84
617.373	2.58
617.707	2.51
618.041	2.67
618.375	2.52
618.709	3.11
619.042	2.95
619.376	2.87
619.71	2.84
620.043	2.88
620.377	2.6
620.71	2.66
621.043	2.47
621.377	2.83
621.71	2.48
622.043	2.86
622.376	3.03
622.709	2.42
623.043	2.65
623.376	2.97
623.709	2.63
624.041	2.84
624.374	2.46
624.707	2.9
625.04	2.65
625.373	2.23
625.705	2.63
626.038	2.88
626.37	2.49
626.703	2.45
627.035	2.68
627.368	2.31
627.7	2.75
628.032	2.68
628.365	2.72
628.697	2.75
629.029	2.72
629.361	2.58
629.693	2.62
630.025	2.62
630.357	2.67
630.689	2.51
631.021	2.68
631.353	3.02
631.684	2.29
632.016	2.64
632.348	2.57
632.679	2.57
633.011	2.67
633.342	2.9
633.674	2.55
634.005	2.73
634.336	2.79
634.668	2.66
634.999	2.8
635.33	2.82
635.661	2.76
635.992	2.52
636.323	2.54
636.654	2.62
636.985	2.67
637.316	2.55
637.647	3.06
637.977	2.84
638.308	2.7
638.639	2.89
638.969	2.53
639.3	2.85
639.63	3.06
639.961	2.75
640.291	2.99
640.622	2.94
640.952	2.47
641.282	2.75
641.612	2.35
641.943	3.15
642.273	2.79
642.603	2.92
642.933	2.82
643.263	2.6
643.592	2.63
643.922	2.78
644.252	2.92
644.582	3.2
644.911	2.62
645.241	2.88
645.571	2.63
645.9	3.26
646.23	2.78
646.559	2.95
646.888	2.98
647.218	2.65
647.547	2.53
647.876	2.7
648.205	2.78
648.534	2.85
648.863	2.65
649.192	2.71
649.521	2.19
649.85	2.98
650.179	2.83
650.508	2.91
650.837	2.74
651.165	2.48
651.494	2.95
651.822	2.83
652.151	2.65
652.479	2.41
652.808	2.77
653.136	2.53
653.465	2.74
653.793	3
654.121	2.87
654.449	2.35
654.777	3.14
655.105	2.73
655.433	2.71
655.761	2.93
656.089	2.72
656.417	2.28
656.745	2.87
657.073	2.49
657.4	2.73
657.728	2.75
658.056	2.79
658.383	2.58
658.711	2.65
659.038	2.97
659.365	2.71
659.693	2.61
660.02	3.16
660.347	2.62
660.674	2.61
661.001	2.29
661.329	2.43
661.656	2.79
661.982	2.95
662.309	2.82
662.636	3.01
662.963	2.66
663.29	2.76
663.616	2.72
663.943	2.58
664.27	2.86
664.596	3.17
664.923	3.44
665.249	3.35
665.576	3.23
665.902	3.08
666.228	2.71
666.554	3.12
666.881	3.05
667.207	2.88
667.533	3.18
667.859	2.86
668.185	3.06
668.511	2.6
668.837	2.72
669.162	2.88
669.488	2.74
669.814	2.71
670.139	2.51
670.465	2.67
670.791	2.61
671.116	3.36
671.442	2.64
671.767	2.87
672.092	3.61
672.418	3.08
672.743	2.96
673.068	3.22
673.393	3.36
673.718	2.65
674.043	3.07
674.368	3.37
674.693	2.46
675.018	3.55
675.343	3.14
675.667	3.16
675.992	3.34
676.317	2.64
676.641	2.81
676.966	3.01
677.29	2.95
677.615	2.77
677.939	2.56
678.264	3
678.588	2.53
678.912	2.58
679.236	2.2
679.56	3.45
679.885	2.93
680.209	2.54
680.532	3.25
680.856	3.66
681.18	3.37
681.504	2.69
681.828	3.22
682.152	2.95
682.475	3.09
682.799	2.43
683.122	2.89
683.446	3.5
683.769	2.82
684.093	2.74
684.416	2.69
684.739	3.53
685.062	2.59
685.386	2.88
685.709	2.66
686.032	2.64
686.355	3.17
686.678	2.58
687.001	2.95
687.324	2.79
687.646	2.4
687.969	3.43
688.292	3.74
688.614	2.5
688.937	2.75
689.26	2.19
689.582	3.01
689.904	3.03
690.227	2.65
690.549	2.75
690.871	3.2
691.194	3.08
691.516	2.35
691.838	3.1
692.16	3.02
692.482	2.42
692.804	3.22
693.126	2.78
693.448	2.46
693.769	2.87
694.091	2.95
694.413	3.79
694.735	3.08
695.056	3.2
695.378	3.93
695.699	3.27
696.021	2.47
696.342	2.55
696.663	3.49
696.984	3.63
697.306	2.75
697.627	2.97
697.948	3.17
698.269	3.66
698.59	2.57
698.911	3.55
699.232	2.89
699.553	3.64
699.873	3.34
700.194	3.43
700.515	3.23
700.835	2.79
701.156	2.98
701.477	3.39
701.797	2.91
702.117	3.54
702.438	3.18
702.758	2.43
703.078	3.7
703.398	3.9
703.719	2.74
704.039	3.09
704.359	2.81
704.679	3.11
704.999	3
705.319	2.65
705.638	3.79
705.958	2.99
706.278	2.6
706.597	3.42
706.917	3.13
707.237	3.92
707.556	3.16
707.876	3.29
708.195	3.48
708.514	3.13
708.834	4.78
709.153	3.12
709.472	3.42
709.791	2.47
710.11	3.52
710.429	3.61
710.748	3.45
711.067	2.76
711.386	3.02
711.705	3.12
712.023	3.24
712.342	3.07
712.661	2.28
712.979	2.96
713.298	3.72
713.616	3.71
713.935	2.82
714.253	3
714.572	2.45
714.89	4.17
715.208	4.16
715.526	2.53
715.844	3.24
716.162	3.72
716.48	3.52
716.798	3.09
717.116	3.58
717.434	4.02
717.752	2.73
718.069	3.06
718.387	4.23
718.705	3.18
719.022	3.23
719.34	3
719.657	2.34
719.975	3.08
720.292	3.75
720.609	3.67
720.927	2.63
721.244	3.96
721.561	4.08
721.878	5.1
722.195	4.14
722.512	3.58
722.829	3.67
723.146	2.29
723.463	1.68
723.779	3.28
724.096	5.16
724.413	4.56
724.729	3.11
725.046	3.97
725.362	3.22
725.679	5.24
725.995	3.32
726.311	3.45
726.628	3.13
726.944	4.38
727.26	2.26
727.576	2.83
727.892	2.79
728.208	3.2
728.524	3.76
728.84	3.84
729.156	3.38
729.472	4.06
729.787	3.24
730.103	3
730.419	2.94
730.734	1.89
731.05	4.31
731.365	4.12
731.681	3.84
731.996	3.37
732.311	2.11
732.626	3.1
732.942	4.28
733.257	1.67
733.572	3.3
733.887	3.46
734.202	3.4
734.517	3.51
734.832	3.32
735.146	3.5
735.461	2.01
735.776	4.36
736.091	2.5
736.405	3.4
736.72	3.15
737.034	1.29
737.349	3.96
737.663	4.44
737.977	5.19
738.292	4.31
738.606	1.92
738.92	5.02
739.234	3.14
739.548	4.09
739.862	3.92
740.176	4.84
740.49	2.79
740.804	4
741.117	3.84
741.431	1.8
741.745	3.3
742.058	3.71
742.372	1.99
742.685	4.43
742.999	4.29
743.312	4.04
743.626	4.13
743.939	3.83
744.252	1.51
744.565	3.36
744.878	2.83
745.191	5.04
745.505	3.28
745.817	2.95
746.13	5.28
746.443	2.47
746.756	2.11
747.069	3.21
747.381	6.6
747.694	2.47
748.007	5.42
748.319	3.07
748.632	2.48
748.944	3.35
749.256	3.96
749.569	3.42
749.881	3.54
750.193	3.45
750.505	6.41
750.817	4.24
751.129	3.33
751.441	2.52
751.753	3.27
752.065	3.81
752.377	3.88
752.689	4.71
753	4.03
753.312	3.62
753.624	2.52
753.935	3.7
754.247	2.51
754.558	2.74
754.869	4.7
755.181	2.41
755.492	5.76
755.803	2.51
756.114	3.99
756.425	4.6
756.736	4.15
757.047	3.22
757.358	3.98
757.669	2.43
757.98	3.92
758.291	3.25
758.601	3.67
758.912	3.18
759.223	5.35
759.533	3.87
759.844	1.33
760.154	3.07
760.464	3.02
760.775	2.83
761.085	3.34
761.395	3.08
761.705	4.16
762.016	4.27
762.326	4.32
762.636	2.81
762.945	4.23
763.255	4.95
763.565	2.63
763.875	4.32
764.185	3.8
764.494	3.48
764.804	4.64
765.113	4.54
765.423	3.34
765.732	3.39
766.042	4.37
766.351	3.53
766.66	3.77
766.97	3.26
767.279	3.94
767.588	4.04
767.897	2.7
768.206	5.44
768.515	2.91
768.824	3.81
769.133	3.73
769.441	1.79
769.75	7.47
770.059	4.61
770.367	1.02
770.676	3.36
770.984	2.93
771.293	3.58
771.601	4.71
771.91	4.69
772.218	1.92
772.526	2.99
772.834	3.23
773.142	2.29
773.45	2.15
773.758	4.64
774.066	6.11
774.374	3.98
774.682	5.81
774.99	4.8
775.298	5.92
775.605	5.12
775.913	4.29
776.22	7.08
776.528	8.56
776.835	5.51
777.143	4.28
777.45	2.57
777.757	5.86
778.065	3.28
778.372	3.97
778.679	5.92
778.986	5.7
779.293	4.8
779.6	2.78
779.907	3.67
780.214	5.33
780.52	4.19
780.827	5.53
781.134	4.8
781.44	3.64
781.747	5.26
782.053	3.29
782.36	10.1
782.666	5.3
782.973	1.91
783.279	4.22
783.585	6.59
783.891	4.29
784.197	7.13
784.503	2.71
784.809	6.61
785.115	4.37
785.421	5.79
785.727	5.05
786.033	6.29
786.339	1.71
786.644	9.72
786.95	1.17
787.255	3.72
787.561	3.68
787.866	1.95
788.172	1.81
788.477	6.9
788.782	5.14
789.088	0.94
789.393	3.25
789.698	5.73
790.003	6.57
790.308	0.53
790.613	5.38
790.918	3.22
791.223	-0.24
791.527	1.52
791.832	0.65
792.137	6.49
792.441	6.92
792.746	2.76
793.05	2.27
793.355	3.84
793.659	5.38
793.963	0.16
794.268	3.81
794.572	3.55
794.876	-0.5
795.18	3.42
795.484	5.24
795.788	-3.43
796.092	3.23
796.396	5.52
796.7	4.56
797.004	7.07
797.307	3.89
797.611	4.65
797.915	6.38
798.218	6.38
798.522	6.29
798.825	-0.59
799.128	2.81
799.432	2.09
799.735	-0
800.038	3.28
800.341	0.08
800.644	5.13
800.947	2.75
801.25	3.83
801.553	5.35
801.856	2.55
802.159	0.59
802.462	3.17
802.764	-0.72
803.067	5.85
803.37	4.82
803.672	-0.31
803.975	1.88
804.277	2.38
804.579	4.71
804.882	3.22
805.184	3.5
805.486	6.79
805.788	8.68
806.09	2.12
806.392	6.78
806.694	4.02
806.996	10.28
807.298	2.12
807.6	2.79
807.902	5.58
808.203	5.14
808.505	4.69
808.807	3.74
809.108	7.44
809.409	6.51
809.711	9.27
810.012	11.45
810.313	9.74
810.615	2.11
810.916	8.95
811.217	10.46
811.518	7.22
811.819	5.71
812.12	-1.35
812.421	12.13
812.722	6.18
813.023	3.8
813.323	5.3
813.624	5.61
813.925	4.11
814.225	3.86
814.526	4.92
814.826	2.52
815.126	6.39
815.427	12.75
815.727	0.19
816.027	5.33
816.327	6.97
816.627	11.22
816.927	4.45
817.227	9.25
817.527	3.33
817.827	11.21
818.127	9.15
818.427	1.66
818.727	-2.45
819.026	8.29
819.326	4.34
819.625	2.11
819.925	10.64
820.224	2.61
820.524	4.48
820.823	4.33
821.122	6.56
821.421	3.62
821.72	7.3
822.019	2.67
822.318	6.24
822.617	3.57
822.916	7.65
823.215	5.22
823.514	3.78
823.813	6.11
824.111	5.28
824.41	5.58
824.709	5.52
825.007	4.19
825.306	5.39
825.604	5.49
825.902	4.62
826.201	4.23
826.499	3.4
826.797	4.76
827.095	4.72
827.393	6.8
827.691	5.34
827.989	3.28
828.287	5.57
828.585	2.2
828.882	4.45
829.18	5.63
829.478	5.48
829.775	3.2
830.073	4.82
830.37	5.82
830.668	3.14
830.965	2.94
831.263	4.06
831.56	6.07
831.857	6.19
832.154	1.3
832.451	3.69
832.748	3.4
833.045	4.34
833.342	7.73
833.639	6.64
833.936	-2.61
834.232	4.45
834.529	1.85
834.826	5.54
835.122	1.07
835.419	6.88
835.715	5.61
836.012	6.73
836.308	3.39
836.604	5.94
836.901	4.55
837.197	8.89
837.493	4.4
837.789	7.32
838.085	7.09
838.381	7.73
838.677	2.05
838.972	4.14
839.268	8.96
839.564	7.71
839.86	1.31
840.155	1.7
840.451	-0.64
840.746	5.4
841.042	4.85
841.337	11.35
841.632	11.81
841.928	2.32
842.223	10.18
842.518	0.18
842.813	-4.22
843.108	6.32
843.403	1.84
843.698	3.95
843.993	8.53
844.287	11.86
844.582	0.8
844.877	2.25
845.171	5.75
845.466	5.94
845.761	13.33
846.055	6.15
846.349	-8.97
846.644	13.99
846.938	14.57
847.232	5.8
847.526	9.79
847.82	5.45
848.114	-0.92
848.408	4.8
848.702	5.01
848.996	15.36
849.29	-0.54
849.584	4.76
849.877	-26.74
850.171	7.8
850.465	-2.45
850.758	12.31
851.052	16.13
851.345	14.26
851.638	12.32
851.932	-4.58
852.225	15.8
852.518	8.66
852.811	11.92
853.104	24.63
853.397	19.97
853.69	12.46
853.983	7.94
854.276	5.43
854.569	18.45
854.861	11.67
855.154	10.32
855.447	14.5
855.739	3.71
856.032	1.14
856.324	22.18
856.616	10.36
856.909	-14.37
857.201	7.01
857.493	22.97
857.785	12.21
858.077	8.06
858.369	26.65
858.661	15.96
858.953	20.03
859.245	20.18
859.537	2.24
859.829	6.12
860.12	2.06
860.412	-5.34
860.703	13.68
860.995	14.43
861.286	-10.37
861.578	-16.24
861.869	7.48
862.16	21.19
862.452	14.36
862.743	13.2
863.034	-11.42
863.325	17.49
863.616	11.92
863.907	-1.09
864.198	-16.29
864.488	33.92
864.779	10.48
865.07	1.18
865.36	12.34
865.651	-10.48
865.941	23
866.232	-4.47
866.522	-1.94
866.813	6.79
867.103	9.74
867.393	12.84
867.683	-7.38
867.973	23.73
868.263	6.01
868.553	3.96
868.843	18.38
869.133	21.56
869.423	-0.82
869.713	3.96
870.002	-11.57
870.292	-19.16
870.582	-9.81
870.871	31.13
871.161	18.79
871.45	15.35
871.739	-0.61
872.029	17.79
872.318	-9.47
872.607	17.75
872.896	2.32
873.185	3.59
873.474	-1.84
873.763	2.82
874.052	5.82
874.341	27.96
874.63	7.14
874.918	23.36
875.207	-5.23
875.496	-9.75
875.784	-8.14
876.073	6.31
876.361	3.81
876.649	1.48
876.938	7.88
877.226	-3.12
877.514	-3.37
877.802	18.64
878.09	4.56
878.378	5.12
878.666	7.91
878.954	-49.96
879.242	-1.3
879.53	-7.81
879.817	11.47
880.105	-6.76
880.392	25.33
880.68	-23.67
880.967	16.97
881.255	18.61
881.542	-0.14
881.83	-9.51
882.117	20.94
882.404	12.5
882.691	17.79
882.978	15.64
883.265	3.52
883.552	18.82
883.839	-9.76
884.126	-2.16
884.413	4.43
884.699	7.6
884.986	6.22
885.273	8.29
885.559	8.29
885.846	8.29
