Data from 20-2_chest_Reflection__2__32.txt Node

Date: Fri Nov 11 20:27:03 CST 2022
User: ToomeyLab
Spectrometer: FLMS14357
Trigger mode: 0
Integration Time (sec): 1.000000E-2
Scans to average: 100
Electric dark correction enabled: true
Nonlinearity correction enabled: false
Boxcar width: 0
XAxis mode: Wavelengths
Number of Pixels in Spectrum: 2048
>>>>>Begin Spectral Data<<<<<
189.047	165.6
189.435	165.6
189.823	165.6
190.211	51.68
190.599	-51.42
190.987	382.86
191.375	40.05
191.763	-22.43
192.151	-71.83
192.538	3.64
192.926	77.43
193.314	37.07
193.702	-202.35
194.089	-4.38
194.477	-732.98
194.864	108.98
195.252	200.29
195.639	73.63
196.027	-28.35
196.414	55.4
196.801	274.7
197.189	261.49
197.576	-156.87
197.963	-0.85
198.351	-30.85
198.738	-19.98
199.125	49.59
199.512	30.49
199.899	-14.18
200.286	1.03
200.673	-8.35
201.06	22
201.447	27.37
201.833	25.75
202.22	12.59
202.607	32.52
202.994	15.57
203.38	42.5
203.767	17.2
204.154	53.34
204.54	-6.18
204.927	-33.45
205.313	-24.03
205.699	-22.89
206.086	55.82
206.472	28.19
206.858	36.13
207.245	43.57
207.631	3.04
208.017	16.84
208.403	38.4
208.789	13.75
209.175	33.61
209.561	49.11
209.947	26.14
210.333	30.78
210.719	28.88
211.105	47.77
211.491	8.52
211.876	23.14
212.262	40.71
212.648	-3.32
213.034	21.66
213.419	-14.05
213.805	0.8
214.19	0.01
214.576	13.5
214.961	-40.7
215.346	5.39
215.732	15.14
216.117	16.61
216.502	9.57
216.888	9.46
217.273	18.22
217.658	-1.03
218.043	3.89
218.428	-4.64
218.813	20.68
219.198	6.32
219.583	12.31
219.968	3.57
220.353	-24.6
220.738	-5.2
221.122	13.93
221.507	-21.82
221.892	2.31
222.276	11.7
222.661	20.4
223.046	9.42
223.43	-6.15
223.815	4.53
224.199	9.1
224.583	-4.31
224.968	9.85
225.352	11.46
225.736	3.02
226.121	4.15
226.505	4.07
226.889	-3.92
227.273	6.29
227.657	-4.39
228.041	3.24
228.425	0.63
228.809	4.66
229.193	7.63
229.577	5.04
229.961	4.89
230.344	4.16
230.728	3.77
231.112	2.6
231.495	4.27
231.879	2.95
232.263	4.59
232.646	3.36
233.03	4.21
233.413	4.43
233.797	3.16
234.18	4.17
234.563	5.61
234.946	3.64
235.33	4.07
235.713	2.84
236.096	3.47
236.479	3.57
236.862	5.65
237.245	4.09
237.628	4.47
238.011	4.75
238.394	4.51
238.777	5.73
239.16	4.73
239.543	3.83
239.925	3.81
240.308	3
240.691	4.08
241.073	3.45
241.456	2.8
241.838	4.4
242.221	4.08
242.603	3.65
242.986	3.31
243.368	3.35
243.75	3.58
244.133	3.66
244.515	3.21
244.897	3.97
245.279	3.79
245.661	3.77
246.043	3.97
246.425	3.6
246.807	3.77
247.189	4.18
247.571	3.8
247.953	3.29
248.335	3.63
248.717	3.46
249.098	3.88
249.48	3.35
249.862	3.95
250.243	3.36
250.625	3.56
251.006	4.18
251.388	3.97
251.769	4.05
252.151	3.68
252.532	4.12
252.913	4.15
253.295	3.64
253.676	2.96
254.057	3.42
254.438	3.77
254.819	3.72
255.2	4.58
255.581	3.8
255.962	3.87
256.343	3.33
256.724	3.56
257.105	2.85
257.486	3.4
257.867	4.25
258.247	3.21
258.628	3.1
259.009	3.71
259.389	2.66
259.77	3.61
260.15	3.82
260.531	3.55
260.911	3.35
261.292	3.64
261.672	3.21
262.052	3.39
262.432	3.73
262.813	3.51
263.193	3.5
263.573	3.26
263.953	4.05
264.333	3.23
264.713	3.49
265.093	3.81
265.473	3.22
265.853	3.71
266.233	3.98
266.612	3.26
266.992	2.87
267.372	3.9
267.752	3.5
268.131	3.3
268.511	3.36
268.89	3.49
269.27	3.19
269.649	2.99
270.029	3.53
270.408	3.73
270.787	3.23
271.167	3.05
271.546	2.96
271.925	3.68
272.304	3.36
272.683	3.07
273.062	2.81
273.441	3.12
273.82	3.57
274.199	3.09
274.578	3.15
274.957	3.65
275.336	3.74
275.715	3.69
276.093	3.03
276.472	3.07
276.851	2.94
277.229	3.2
277.608	3.45
277.986	3.17
278.365	2.52
278.743	3.53
279.122	3.79
279.5	3.52
279.878	3.01
280.257	3.75
280.635	3.47
281.013	3.49
281.391	3.13
281.769	2.77
282.147	2.87
282.525	2.63
282.903	2.87
283.281	3.1
283.659	3.31
284.037	3.24
284.415	2.99
284.792	2.88
285.17	3.22
285.548	2.83
285.925	2.86
286.303	2.67
286.68	3.34
287.058	3.11
287.435	3.09
287.813	3.42
288.19	2.87
288.567	3.2
288.945	3.45
289.322	3.6
289.699	3.05
290.076	3.8
290.453	3.18
290.83	2.89
291.207	3.41
291.584	3.6
291.961	3.16
292.338	3.35
292.715	3.16
293.092	3.36
293.469	2.93
293.845	3.34
294.222	3.44
294.599	3.78
294.975	3.25
295.352	3.34
295.728	2.93
296.105	3.02
296.481	3.24
296.858	3.47
297.234	3.7
297.61	3.06
297.986	3.79
298.363	3.5
298.739	3.54
299.115	3.57
299.491	3.51
299.867	3.25
300.243	3.63
300.619	3.69
300.995	3.63
301.371	3.82
301.746	3.67
302.122	3.74
302.498	3.83
302.874	3.32
303.249	3.42
303.625	3.52
304	3.1
304.376	4.1
304.751	3.31
305.127	3.7
305.502	3.48
305.878	3.8
306.253	3.2
306.628	3.58
307.003	3.39
307.378	3.43
307.754	4.12
308.129	3.8
308.504	3.8
308.879	3.67
309.254	3.63
309.629	3.61
310.003	3.62
310.378	3.6
310.753	3.67
311.128	4.04
311.502	3.9
311.877	3.58
312.252	3.54
312.626	3.66
313.001	3.29
313.375	3.62
313.75	3.77
314.124	3.25
314.498	3.4
314.873	3.55
315.247	3.69
315.621	3.87
315.995	4.27
316.369	4.27
316.743	3.73
317.117	3.58
317.491	3.47
317.865	3.54
318.239	3.5
318.613	4.2
318.987	3.82
319.361	3.26
319.734	3.85
320.108	3.1
320.482	3.95
320.855	3.36
321.229	3.67
321.602	4.34
321.976	3.74
322.349	3.59
322.723	4.18
323.096	3.63
323.469	3.8
323.843	4.36
324.216	3.65
324.589	3.97
324.962	4.09
325.335	3.69
325.708	4
326.081	3.86
326.454	3.79
326.827	3.73
327.2	4.52
327.573	4.72
327.945	3.88
328.318	3.88
328.691	3.98
329.063	4.22
329.436	3.3
329.809	3.75
330.181	3.44
330.553	3.13
330.926	3.69
331.298	4.08
331.671	3.75
332.043	3.63
332.415	3.69
332.787	4.51
333.159	4.08
333.532	4.33
333.904	4.21
334.276	3.64
334.648	3.42
335.02	3.8
335.391	3.96
335.763	3.64
336.135	3.78
336.507	3.53
336.879	3.9
337.25	3.49
337.622	3.86
337.993	4.35
338.365	4.25
338.736	4.18
339.108	3.72
339.479	3.34
339.851	4.04
340.222	3.59
340.593	4.09
340.964	4.08
341.336	4.15
341.707	3.61
342.078	3.68
342.449	4.18
342.82	4.33
343.191	4.15
343.562	3.8
343.933	3.53
344.303	3.71
344.674	3.75
345.045	3.75
345.416	4.05
345.786	3.35
346.157	3.64
346.527	3.98
346.898	3.29
347.268	3.64
347.639	3.87
348.009	3.82
348.38	4.12
348.75	4.24
349.12	4.45
349.49	4.2
349.861	3.9
350.231	4.16
350.601	3.96
350.971	3.99
351.341	4.05
351.711	4.13
352.081	3.88
352.45	3.71
352.82	3.91
353.19	4.07
353.56	3.82
353.929	3.77
354.299	3.99
354.669	3.92
355.038	3.67
355.408	3.82
355.777	3.96
356.147	3.86
356.516	3.78
356.885	3.89
357.254	4.08
357.624	3.62
357.993	3.89
358.362	4.19
358.731	3.69
359.1	3.86
359.469	3.78
359.838	3.8
360.207	4.33
360.576	3.81
360.945	3.89
361.314	3.88
361.682	3.83
362.051	3.89
362.42	4.04
362.788	4.19
363.157	3.77
363.525	3.84
363.894	3.65
364.262	3.89
364.631	4.1
364.999	3.77
365.367	3.77
365.735	3.93
366.104	3.74
366.472	3.81
366.84	3.47
367.208	3.77
367.576	4.09
367.944	3.86
368.312	3.91
368.68	3.85
369.048	4.08
369.416	3.94
369.783	3.91
370.151	4.02
370.519	4.09
370.886	3.74
371.254	4.3
371.621	3.72
371.989	3.62
372.356	4.32
372.724	4.35
373.091	4.14
373.458	3.98
373.826	3.59
374.193	3.56
374.56	3.91
374.927	4.01
375.294	3.99
375.661	4.44
376.028	3.62
376.395	4.07
376.762	4.14
377.129	4.05
377.496	3.99
377.863	3.6
378.229	4.21
378.596	3.93
378.963	4.05
379.329	4.09
379.696	3.98
380.062	4.05
380.429	4.02
380.795	4.45
381.161	4.13
381.528	4.15
381.894	4.15
382.26	4.39
382.626	3.95
382.993	3.76
383.359	3.98
383.725	3.66
384.091	4.26
384.457	4.02
384.823	3.88
385.188	3.84
385.554	3.93
385.92	3.96
386.286	4.02
386.651	4.13
387.017	4.01
387.383	4.14
387.748	4.08
388.114	4.06
388.479	3.86
388.845	4.03
389.21	3.9
389.575	3.98
389.94	4.02
390.306	3.96
390.671	3.85
391.036	4.01
391.401	3.93
391.766	4.12
392.131	4.04
392.496	4.18
392.861	4.11
393.226	3.89
393.591	3.94
393.956	3.97
394.32	3.93
394.685	3.86
395.05	4.04
395.414	4.06
395.779	3.94
396.143	4.15
396.508	4.24
396.872	4.16
397.236	4.02
397.601	3.92
397.965	4.19
398.329	4.08
398.694	4.27
399.058	4.06
399.422	4.24
399.786	3.93
400.15	3.91
400.514	4.02
400.878	4.04
401.242	4.04
401.605	4.15
401.969	4.01
402.333	3.78
402.697	4.17
403.06	4.29
403.424	3.92
403.787	4.18
404.151	3.95
404.514	3.81
404.878	4.16
405.241	4.14
405.604	4.03
405.968	3.96
406.331	3.65
406.694	3.89
407.057	4.2
407.42	4.21
407.783	4.03
408.146	4.34
408.509	4.07
408.872	3.96
409.235	4.22
409.598	4.1
409.961	4.2
410.323	4.12
410.686	3.95
411.049	3.98
411.411	4.09
411.774	3.97
412.136	4.18
412.499	4.14
412.861	4.18
413.223	4.05
413.586	4.04
413.948	4.55
414.31	4.21
414.672	4.2
415.035	4.07
415.397	4.21
415.759	4.08
416.121	4.01
416.483	4.21
416.845	4.07
417.206	4.04
417.568	4
417.93	3.95
418.292	4.02
418.653	4.2
419.015	4.19
419.377	4.08
419.738	4.06
420.1	4.02
420.461	4.07
420.822	4.05
421.184	3.93
421.545	4.05
421.906	4.01
422.267	4
422.629	3.93
422.99	4.04
423.351	4.04
423.712	4.02
424.073	4.1
424.434	4.06
424.795	3.99
425.155	3.98
425.516	4.03
425.877	4.03
426.238	3.99
426.598	3.96
426.959	4.03
427.32	4.1
427.68	4.13
428.041	4.11
428.401	3.89
428.761	4.15
429.122	4.05
429.482	4.3
429.842	4.01
430.202	4.16
430.563	4.22
430.923	4.21
431.283	4.16
431.643	4.2
432.003	4.38
432.363	4.11
432.722	4.24
433.082	4.13
433.442	4.12
433.802	4.21
434.161	4.17
434.521	4.2
434.881	4.28
435.24	4.16
435.6	4.15
435.959	4.04
436.319	4.02
436.678	4.11
437.037	4.05
437.396	4.21
437.756	4.19
438.115	4.19
438.474	4.14
438.833	4.27
439.192	4.18
439.551	4.33
439.91	4.15
440.269	4.14
440.628	4.22
440.987	4.19
441.345	4.12
441.704	4.11
442.063	4.22
442.421	4.09
442.78	4.02
443.138	4.22
443.497	4.1
443.855	4.18
444.214	4.18
444.572	4.25
444.93	4.24
445.288	4.19
445.647	4.34
446.005	4.29
446.363	4.27
446.721	4.22
447.079	4.22
447.437	4.18
447.795	4.18
448.153	4.15
448.51	4.16
448.868	4.18
449.226	4.19
449.584	4.21
449.941	4.25
450.299	4.11
450.656	4.34
451.014	4.34
451.371	4.27
451.729	4.25
452.086	4.25
452.443	4.26
452.801	4.35
453.158	4.29
453.515	4.41
453.872	4.16
454.229	4.22
454.586	4.28
454.943	4.35
455.3	4.3
455.657	4.44
456.014	4.35
456.371	4.47
456.727	4.31
457.084	4.16
457.441	4.47
457.797	4.29
458.154	4.29
458.51	4.5
458.867	4.49
459.223	4.47
459.58	4.33
459.936	4.29
460.292	4.36
460.648	4.35
461.005	4.26
461.361	4.23
461.717	4.22
462.073	4.3
462.429	4.28
462.785	4.26
463.141	4.29
463.496	4.22
463.852	4.46
464.208	4.34
464.564	4.39
464.919	4.42
465.275	4.4
465.631	4.48
465.986	4.54
466.342	4.42
466.697	4.42
467.052	4.36
467.408	4.51
467.763	4.41
468.118	4.34
468.473	4.42
468.829	4.25
469.184	4.34
469.539	4.57
469.894	4.51
470.249	4.41
470.603	4.27
470.958	4.42
471.313	4.52
471.668	4.54
472.023	4.34
472.377	4.6
472.732	4.49
473.086	4.4
473.441	4.4
473.795	4.38
474.15	4.51
474.504	4.51
474.859	4.42
475.213	4.53
475.567	4.52
475.921	4.5
476.275	4.54
476.63	4.53
476.984	4.7
477.338	4.41
477.692	4.35
478.045	4.54
478.399	4.59
478.753	4.27
479.107	4.45
479.461	4.48
479.814	4.31
480.168	4.57
480.521	4.56
480.875	4.58
481.228	4.4
481.582	4.54
481.935	4.42
482.289	4.29
482.642	4.46
482.995	4.36
483.348	4.45
483.701	4.45
484.055	4.39
484.408	4.41
484.761	4.27
485.114	4.21
485.466	4.17
485.819	4.19
486.172	4.22
486.525	4.31
486.878	4.32
487.23	4.3
487.583	4.33
487.936	4.37
488.288	4.29
488.641	4.33
488.993	4.31
489.345	4.24
489.698	4.33
490.05	4.32
490.402	4.34
490.754	4.37
491.107	4.39
491.459	4.42
491.811	4.47
492.163	4.45
492.515	4.43
492.866	4.4
493.218	4.35
493.57	4.33
493.922	4.4
494.274	4.43
494.625	4.4
494.977	4.56
495.328	4.61
495.68	4.59
496.031	4.52
496.383	4.58
496.734	4.62
497.086	4.78
497.437	4.66
497.788	4.6
498.139	4.6
498.49	4.53
498.842	4.42
499.193	4.62
499.544	4.66
499.894	4.56
500.245	4.65
500.596	4.69
500.947	4.62
501.298	4.63
501.648	4.66
501.999	4.8
502.35	4.83
502.7	4.68
503.051	4.76
503.401	4.67
503.752	4.58
504.102	4.67
504.452	4.64
504.803	4.68
505.153	4.7
505.503	4.76
505.853	4.76
506.203	4.81
506.553	4.64
506.903	4.63
507.253	4.75
507.603	4.83
507.953	4.73
508.303	4.7
508.652	4.74
509.002	4.78
509.352	4.69
509.701	4.83
510.051	4.74
510.4	4.79
510.75	4.71
511.099	4.69
511.449	4.73
511.798	4.75
512.147	4.67
512.496	4.62
512.846	4.85
513.195	4.76
513.544	4.6
513.893	4.65
514.242	4.81
514.591	4.8
514.939	4.77
515.288	4.75
515.637	4.85
515.986	4.77
516.334	4.84
516.683	4.75
517.032	4.87
517.38	4.84
517.729	4.85
518.077	4.78
518.426	4.96
518.774	4.92
519.122	4.9
519.47	4.79
519.819	4.8
520.167	4.78
520.515	4.76
520.863	4.9
521.211	4.84
521.559	4.82
521.907	4.91
522.255	4.83
522.602	4.89
522.95	4.84
523.298	4.96
523.645	4.92
523.993	5.01
524.341	4.98
524.688	5.06
525.036	5.03
525.383	4.98
525.73	4.87
526.078	4.86
526.425	4.95
526.772	4.93
527.119	4.79
527.466	4.86
527.814	4.86
528.161	4.94
528.508	4.94
528.854	4.9
529.201	4.9
529.548	4.89
529.895	4.8
530.242	4.71
530.588	4.78
530.935	4.78
531.282	4.82
531.628	4.88
531.975	4.91
532.321	4.88
532.667	5.01
533.014	5
533.36	5.02
533.706	5.07
534.052	4.99
534.399	4.99
534.745	4.94
535.091	4.97
535.437	4.92
535.783	4.94
536.129	5.03
536.474	5.09
536.82	5.05
537.166	5.01
537.512	5.07
537.857	5.07
538.203	5.04
538.549	5.11
538.894	5.06
539.239	5.03
539.585	5.16
539.93	5.18
540.276	5.41
540.621	5.22
540.966	5.28
541.311	5.25
541.656	5.16
542.001	5.24
542.346	5.16
542.691	5.06
543.036	5
543.381	5.07
543.726	5.09
544.071	5.15
544.415	5.14
544.76	5.2
545.105	5.17
545.449	5.16
545.794	5.38
546.138	5.33
546.483	5.28
546.827	5.4
547.171	5.42
547.516	5.27
547.86	5.28
548.204	5.47
548.548	5.33
548.892	5.38
549.236	5.36
549.58	5.48
549.924	5.64
550.268	5.49
550.612	5.53
550.956	5.66
551.3	5.54
551.643	5.4
551.987	5.62
552.33	5.57
552.674	5.51
553.017	5.68
553.361	5.74
553.704	5.62
554.048	5.59
554.391	5.58
554.734	5.59
555.077	5.72
555.42	5.57
555.764	5.76
556.107	5.6
556.45	5.84
556.793	5.67
557.135	5.79
557.478	5.73
557.821	5.85
558.164	5.69
558.507	5.8
558.849	5.89
559.192	5.77
559.534	5.96
559.877	5.95
560.219	5.82
560.562	5.75
560.904	6.08
561.246	5.74
561.589	5.81
561.931	5.87
562.273	5.84
562.615	5.9
562.957	6.01
563.299	5.85
563.641	5.93
563.983	5.91
564.325	5.85
564.667	6.06
565.008	6.17
565.35	5.95
565.692	5.81
566.033	5.93
566.375	6.08
566.716	6.15
567.058	5.98
567.399	6.21
567.741	6.15
568.082	6.04
568.423	6.07
568.764	6.15
569.105	6.04
569.447	6.25
569.788	6.1
570.129	6.1
570.47	6.2
570.811	6.12
571.151	6.22
571.492	6.33
571.833	6.13
572.174	6.17
572.514	6.3
572.855	6.4
573.195	6.06
573.536	6.37
573.876	6.29
574.217	6.31
574.557	6.32
574.898	6.28
575.238	6.24
575.578	6.32
575.918	6.5
576.258	6.37
576.598	6.35
576.938	6.41
577.278	6.25
577.618	6.44
577.958	6.38
578.298	6.6
578.638	6.48
578.977	6.63
579.317	6.54
579.657	6.63
579.996	6.47
580.336	6.6
580.675	6.67
581.014	6.7
581.354	6.74
581.693	6.6
582.032	6.53
582.372	6.74
582.711	6.84
583.05	6.65
583.389	6.79
583.728	6.75
584.067	6.84
584.406	6.84
584.745	7.12
585.083	6.63
585.422	6.57
585.761	6.79
586.1	6.72
586.438	6.67
586.777	6.93
587.115	6.98
587.454	6.88
587.792	7.09
588.13	6.95
588.469	7.03
588.807	6.77
589.145	7.17
589.483	7.23
589.821	6.97
590.159	7.13
590.497	7.09
590.835	6.99
591.173	6.89
591.511	7.02
591.849	6.92
592.187	7.02
592.524	6.97
592.862	7.16
593.2	7.23
593.537	7.25
593.875	7.42
594.212	7.19
594.55	7.34
594.887	7.15
595.224	7.23
595.561	7.1
595.899	7.27
596.236	7.39
596.573	7.21
596.91	7.27
597.247	7.53
597.584	7.3
597.921	7.33
598.258	7.27
598.594	7.48
598.931	7.3
599.268	7.32
599.604	7.56
599.941	7.36
600.277	7.52
600.614	7.57
600.95	7.35
601.287	7.46
601.623	7.91
601.959	7.72
602.296	7.51
602.632	7.58
602.968	7.64
603.304	7.78
603.64	7.73
603.976	7.61
604.312	7.83
604.648	7.67
604.984	7.68
605.319	7.8
605.655	7.78
605.991	7.79
606.326	7.9
606.662	7.79
606.998	7.77
607.333	7.92
607.668	7.86
608.004	7.94
608.339	7.98
608.674	8.08
609.01	8.26
609.345	7.85
609.68	8
610.015	7.91
610.35	7.77
610.685	8.12
611.02	7.98
611.355	8.02
611.689	8.05
612.024	8.01
612.359	7.99
612.694	8.06
613.028	8.13
613.363	7.96
613.697	8.21
614.032	8.45
614.366	8.2
614.7	8.14
615.035	8.17
615.369	8.19
615.703	8.41
616.037	8.42
616.371	8.69
616.705	8.49
617.039	8.49
617.373	8.42
617.707	8.27
618.041	8.53
618.375	8.37
618.709	8.76
619.042	8.78
619.376	8.75
619.71	8.6
620.043	8.74
620.377	8.76
620.71	8.51
621.043	8.6
621.377	8.62
621.71	8.64
622.043	8.67
622.376	8.72
622.709	8.45
623.043	8.6
623.376	8.89
623.709	8.96
624.041	8.86
624.374	8.5
624.707	8.8
625.04	8.76
625.373	8.64
625.705	8.8
626.038	8.86
626.37	8.94
626.703	8.94
627.035	9.08
627.368	8.44
627.7	9.11
628.032	9.12
628.365	8.96
628.697	9.1
629.029	9.36
629.361	9.11
629.693	9.21
630.025	9.26
630.357	9.13
630.689	9.07
631.021	9.14
631.353	9.47
631.684	9.22
632.016	9.5
632.348	9.13
632.679	9.12
633.011	9.58
633.342	9.66
633.674	9.06
634.005	9.53
634.336	9.38
634.668	9.68
634.999	9.57
635.33	9.79
635.661	9.91
635.992	9.84
636.323	9.61
636.654	10.11
636.985	9.67
637.316	9.46
637.647	9.97
637.977	9.87
638.308	9.98
638.639	9.71
638.969	9.52
639.3	10.11
639.63	10.33
639.961	9.74
640.291	10.25
640.622	10.22
640.952	9.96
641.282	9.72
641.612	9.69
641.943	10.42
642.273	9.84
642.603	9.98
642.933	10.04
643.263	10.16
643.592	10.58
643.922	10.1
644.252	10.22
644.582	10.41
644.911	9.81
645.241	10.22
645.571	10.37
645.9	9.99
646.23	10.55
646.559	10.52
646.888	10.57
647.218	10.02
647.547	10.23
647.876	10.72
648.205	10.47
648.534	10.39
648.863	10.87
649.192	10.15
649.521	10.94
649.85	10.86
650.179	10.58
650.508	10.71
650.837	10.63
651.165	10.7
651.494	11.43
651.822	10.47
652.151	10.49
652.479	10.26
652.808	10.43
653.136	10.9
653.465	11.03
653.793	11.24
654.121	10.66
654.449	10.59
654.777	11.4
655.105	10.71
655.433	10.93
655.761	11.49
656.089	11.19
656.417	10.94
656.745	11.18
657.073	10.92
657.4	10.82
657.728	11.18
658.056	11.53
658.383	11.32
658.711	10.74
659.038	10.99
659.365	11.22
659.693	11.51
660.02	11.71
660.347	11.42
660.674	11.39
661.001	11.23
661.329	11.3
661.656	11.44
661.982	11.51
662.309	11.62
662.636	11.7
662.963	11.43
663.29	11.69
663.616	11.38
663.943	11.43
664.27	11.56
664.596	11.92
664.923	11.68
665.249	12.19
665.576	11.88
665.902	11.59
666.228	11.84
666.554	11.34
666.881	11.48
667.207	12.28
667.533	12.16
667.859	12.66
668.185	12.39
668.511	11.77
668.837	12.33
669.162	12.02
669.488	12.06
669.814	12.23
670.139	11.84
670.465	11.7
670.791	12.22
671.116	12.46
671.442	12.33
671.767	12.16
672.092	11.98
672.418	12.33
672.743	12.13
673.068	12.16
673.393	13.03
673.718	12.29
674.043	12.61
674.368	12.73
674.693	12
675.018	11.88
675.343	12.46
675.667	12.58
675.992	13.02
676.317	12.49
676.641	12.27
676.966	12.68
677.29	12.51
677.615	12.68
677.939	12.88
678.264	12.84
678.588	12.04
678.912	12.37
679.236	13.41
679.56	13.52
679.885	12.7
680.209	12.21
680.532	13.27
680.856	13.43
681.18	13.48
681.504	12.47
681.828	13.2
682.152	13.21
682.475	12.77
682.799	12.58
683.122	13.02
683.446	13.45
683.769	12.84
684.093	13.5
684.416	13.06
684.739	13.74
685.062	12.88
685.386	13.26
685.709	13.56
686.032	13.19
686.355	13.18
686.678	13.76
687.001	13.08
687.324	13.24
687.646	12.55
687.969	13.49
688.292	14.31
688.614	13.07
688.937	12.7
689.26	12.83
689.582	13.6
689.904	14.01
690.227	13.86
690.549	13.21
690.871	13.32
691.194	13.83
691.516	13.24
691.838	13.63
692.16	14.27
692.482	13.84
692.804	13.73
693.126	14.28
693.448	13.42
693.769	13.51
694.091	14.56
694.413	14.1
694.735	14.12
695.056	13.81
695.378	14.59
695.699	14.41
696.021	13.36
696.342	13.99
696.663	14.78
696.984	14.25
697.306	14.29
697.627	14.31
697.948	14.32
698.269	14.81
698.59	13.86
698.911	14.38
699.232	13.88
699.553	14.51
699.873	15.01
700.194	14.66
700.515	14.38
700.835	14.38
701.156	14.68
701.477	14.48
701.797	14.53
702.117	14.79
702.438	14.87
702.758	14.11
703.078	15.23
703.398	15.76
703.719	14.56
704.039	14.74
704.359	14.87
704.679	15
704.999	15.08
705.319	15
705.638	15.72
705.958	13.85
706.278	14.47
706.597	15.44
706.917	14.65
707.237	15.08
707.556	14.39
707.876	15.21
708.195	15.35
708.514	14.71
708.834	15.78
709.153	14.72
709.472	14.49
709.791	14.88
710.11	15.53
710.429	16.72
710.748	15.19
711.067	15.64
711.386	15.79
711.705	15.46
712.023	16.11
712.342	15.35
712.661	15.5
712.979	16.11
713.298	16.34
713.616	16.62
713.935	15.97
714.253	16.8
714.572	15.43
714.89	15.83
715.208	15.6
715.526	15.13
715.844	15.23
716.162	16.31
716.48	15.99
716.798	16.73
717.116	16.14
717.434	16.65
717.752	16.31
718.069	16.09
718.387	17.17
718.705	15.78
719.022	16.38
719.34	16.29
719.657	16.25
719.975	16.9
720.292	16.53
720.609	16.15
720.927	15.96
721.244	16.34
721.561	16.09
721.878	16.18
722.195	15.59
722.512	17.26
722.829	17.2
723.146	16.95
723.463	15.15
723.779	17.22
724.096	17.99
724.413	16.91
724.729	16.34
725.046	17.97
725.362	17.31
725.679	17.87
725.995	17.05
726.311	16.61
726.628	16.79
726.944	17.73
727.26	16.05
727.576	16.83
727.892	17.28
728.208	17.64
728.524	17.51
728.84	18.35
729.156	15.96
729.472	17.23
729.787	16.65
730.103	17.15
730.419	17.41
730.734	16.41
731.05	17.69
731.365	18.02
731.681	16.68
731.996	18.02
732.311	16.41
732.626	17.04
732.942	17.44
733.257	16.18
733.572	18.19
733.887	17.57
734.202	16.46
734.517	17.88
734.832	17.84
735.146	17.46
735.461	16.72
735.776	19.06
736.091	18.39
736.405	16.83
736.72	17.08
737.034	16.47
737.349	18.81
737.663	18.06
737.977	18.99
738.292	17.53
738.606	17.84
738.92	17.54
739.234	16.67
739.548	17.21
739.862	17.55
740.176	18.5
740.49	17.44
740.804	18.03
741.117	17.76
741.431	18.32
741.745	18.55
742.058	16.63
742.372	17.41
742.685	17.6
742.999	18.09
743.312	18.29
743.626	16.89
743.939	18.14
744.252	17.83
744.565	17.81
744.878	18.59
745.191	21.47
745.505	17.8
745.817	18.58
746.13	19.25
746.443	18.25
746.756	19.83
747.069	19.2
747.381	20.63
747.694	19.14
748.007	18.4
748.319	18.8
748.632	17.61
748.944	18.06
749.256	19.43
749.569	18.85
749.881	18.46
750.193	19.86
750.505	18.64
750.817	20.18
751.129	18.71
751.441	18.19
751.753	18.82
752.065	19.36
752.377	19.67
752.689	20.38
753	17.33
753.312	18.93
753.624	19.27
753.935	19.57
754.247	18.7
754.558	19.23
754.869	20.83
755.181	19.05
755.492	19.95
755.803	16.43
756.114	19.71
756.425	18.97
756.736	19.77
757.047	18.64
757.358	20.9
757.669	18.13
757.98	20.24
758.291	20.49
758.601	19.73
758.912	20.63
759.223	20.13
759.533	21.02
759.844	18.67
760.154	20.64
760.464	19.82
760.775	19.48
761.085	20.23
761.395	18.86
761.705	20.98
762.016	20.56
762.326	20.86
762.636	20.54
762.945	19.19
763.255	21.13
763.565	18.99
763.875	19.14
764.185	21.86
764.494	20.97
764.804	21.21
765.113	21.19
765.423	20.23
765.732	19.43
766.042	20.37
766.351	21.16
766.66	20.96
766.97	21.45
767.279	19.95
767.588	19.84
767.897	20.49
768.206	21.19
768.515	20.71
768.824	19.18
769.133	21.85
769.441	20.71
769.75	24.08
770.059	20.32
770.367	19.21
770.676	20.33
770.984	20.3
771.293	21.03
771.601	21.71
771.91	22.14
772.218	20.13
772.526	20.67
772.834	20.2
773.142	20.28
773.45	20.14
773.758	22.43
774.066	24.63
774.374	22.79
774.682	19.93
774.99	23.12
775.298	21.96
775.605	21.29
775.913	24.17
776.22	23.86
776.528	22.54
776.835	18.9
777.143	22.78
777.45	23.1
777.757	24.17
778.065	21.64
778.372	21.8
778.679	20.38
778.986	21.97
779.293	24.27
779.6	20.08
779.907	20.81
780.214	20.01
780.52	23.8
780.827	22.09
781.134	23.1
781.44	22.78
781.747	23.1
782.053	22.87
782.36	23.55
782.666	20.18
782.973	20.07
783.279	23.3
783.585	23.77
783.891	22.57
784.197	23.89
784.503	21.72
784.809	22.94
785.115	23.06
785.421	22.03
785.727	21.93
786.033	20.13
786.339	20.34
786.644	22.91
786.95	20.74
787.255	24.86
787.561	21.58
787.866	22.33
788.172	18.43
788.477	22.3
788.782	23.46
789.088	22.19
789.393	19.97
789.698	22.87
790.003	24.19
790.308	18.33
790.613	21.64
790.918	21.36
791.223	22.05
791.527	18.16
791.832	23.21
792.137	20.37
792.441	22.89
792.746	22.73
793.05	18.93
793.355	21.59
793.659	23.19
793.963	18.16
794.268	22.33
794.572	23.16
794.876	18.38
795.18	19.45
795.484	22.94
795.788	17.39
796.092	22.66
796.396	25.71
796.7	23.14
797.004	22.92
797.307	24.13
797.611	23.08
797.915	24.17
798.218	19.89
798.522	23.95
798.825	25.15
799.128	26.48
799.432	21.88
799.735	20.07
800.038	23.86
800.341	23.03
800.644	25.53
800.947	21.9
801.25	21.22
801.553	26.21
801.856	23.74
802.159	21.14
802.462	21.58
802.764	21.98
803.067	23.3
803.37	24.94
803.672	20.33
803.975	24.04
804.277	25.52
804.579	27.34
804.882	21.42
805.184	20.17
805.486	26.48
805.788	30.74
806.09	20.69
806.392	25.42
806.694	23.8
806.996	23.86
807.298	20.42
807.6	23.66
807.902	24.97
808.203	26.34
808.505	20.98
808.807	25.12
809.108	27.87
809.409	27.77
809.711	28.31
810.012	25.85
810.313	25.64
810.615	26.46
810.916	24.32
811.217	24.72
811.518	28.63
811.819	22.23
812.12	28.9
812.421	28.3
812.722	26.36
813.023	22.47
813.323	22.4
813.624	23.15
813.925	25.74
814.225	26.74
814.526	24.28
814.826	22.74
815.126	25.49
815.427	26.77
815.727	24.78
816.027	27.88
816.327	25.23
816.627	27.39
816.927	29.02
817.227	24.18
817.527	18.68
817.827	29.41
818.127	28.43
818.427	24.12
818.727	24.12
819.026	23.72
819.326	23.83
819.625	22.67
819.925	19.97
820.224	23.55
820.524	27.3
820.823	26.55
821.122	26.34
821.421	24.67
821.72	24.97
822.019	23.26
822.318	26.96
822.617	23.34
822.916	26.24
823.215	24.09
823.514	25.28
823.813	29.77
824.111	25.27
824.41	27.4
824.709	25.4
825.007	24.84
825.306	26.26
825.604	26.5
825.902	26.73
826.201	25.99
826.499	24.37
826.797	27
827.095	24.9
827.393	25.29
827.691	26.53
827.989	25.48
828.287	26.02
828.585	25.69
828.882	27.06
829.18	24.64
829.478	25.91
829.775	25.06
830.073	26.24
830.37	27.56
830.668	25.96
830.965	23.69
831.263	25.84
831.56	27.3
831.857	28.99
832.154	22.55
832.451	24.38
832.748	24.76
833.045	24.96
833.342	29.38
833.639	26.57
833.936	27.69
834.232	28.45
834.529	28.79
834.826	29.56
835.122	24.03
835.419	24.13
835.715	26.08
836.012	29.13
836.308	25.21
836.604	27.52
836.901	27.7
837.197	28.84
837.493	25.84
837.789	26.85
838.085	25.62
838.381	27.65
838.677	29.97
838.972	25.13
839.268	30.7
839.564	31.44
839.86	19.6
840.155	23.83
840.451	19.45
840.746	24.78
841.042	25.07
841.337	35.79
841.632	25.96
841.928	27.17
842.223	22.91
842.518	24.23
842.813	15.48
843.108	30.91
843.403	26.02
843.698	25.11
843.993	36.24
844.287	21.75
844.582	26.65
844.877	26.38
845.171	27.56
845.466	32.17
845.761	28.27
846.055	23.97
846.349	19.34
846.644	26.35
846.938	30.53
847.232	19.55
847.526	25.66
847.82	29.33
848.114	17.71
848.408	21.91
848.702	26.26
848.996	31.9
849.29	15.19
849.584	13.55
849.877	12.42
850.171	26.85
850.465	24.96
850.758	25.77
851.052	18.19
851.345	19.33
851.638	28.43
851.932	35.88
852.225	27.38
852.518	36.01
852.811	22.1
853.104	45.88
853.397	29.11
853.69	38.67
853.983	43.04
854.276	31.78
854.569	33.51
854.861	19.13
855.154	16.42
855.447	32.2
855.739	14.34
856.032	27.4
856.324	41.15
856.616	24.93
856.909	12.21
857.201	20.54
857.493	36.41
857.785	23.17
858.077	28.41
858.369	38.65
858.661	18.32
858.953	37.37
859.245	42.75
859.537	29.5
859.829	22.83
860.12	29.3
860.412	36.29
860.703	75.27
860.995	34.42
861.286	31.7
861.578	7.94
861.869	32.86
862.16	17.87
862.452	30.93
862.743	31.53
863.034	21.2
863.325	26.47
863.616	40.22
863.907	26.36
864.198	0.09
864.488	48.75
864.779	49.34
865.07	7.25
865.36	27.29
865.651	27.45
865.941	42.99
866.232	57.32
866.522	41.02
866.813	29.14
867.103	24.09
867.393	42.97
867.683	15.15
867.973	26.99
868.263	37.87
868.553	33.39
868.843	15.84
869.133	29.53
869.423	19.44
869.713	40.32
870.002	-9.51
870.292	0.91
870.582	54.44
870.871	36.63
871.161	18.32
871.45	24.86
871.739	4.28
872.029	10.42
872.318	31.55
872.607	14.88
872.896	24.96
873.185	24.03
873.474	40
873.763	-0.23
874.052	32.41
874.341	18.17
874.63	18.88
874.918	16.91
875.207	16.11
875.496	19.61
875.784	27.84
876.073	19.76
876.361	37.76
876.649	27.6
876.938	18.25
877.226	28.34
877.514	26.01
877.802	15.47
878.09	36.49
878.378	37.63
878.666	37.09
878.954	14.43
879.242	30.17
879.53	16.49
879.817	20.07
880.105	28.3
880.392	40.34
880.68	33.2
880.967	35.8
881.255	54.94
881.542	19.44
881.83	35.98
882.117	45.98
882.404	34.42
882.691	36.96
882.978	47.3
883.265	35.22
883.552	42.46
883.839	14.61
884.126	18.08
884.413	41.44
884.699	24.2
884.986	34.28
885.273	35.57
885.559	35.57
885.846	35.57
