Data from 20-2_forehead_Reflection__4__44.txt Node

Date: Fri Nov 11 20:30:22 CST 2022
User: ToomeyLab
Spectrometer: FLMS14357
Trigger mode: 0
Integration Time (sec): 1.000000E-2
Scans to average: 100
Electric dark correction enabled: true
Nonlinearity correction enabled: false
Boxcar width: 0
XAxis mode: Wavelengths
Number of Pixels in Spectrum: 2048
>>>>>Begin Spectral Data<<<<<
189.047	-236
189.435	-236
189.823	-236
190.211	-404.25
190.599	-320.67
190.987	-67.98
191.375	16.37
191.763	41.9
192.151	12.78
192.538	-23.95
192.926	489.5
193.314	136.72
193.702	-232.18
194.089	169.18
194.477	-315.42
194.864	82.03
195.252	181.55
195.639	-113.93
196.027	117.03
196.414	22.55
196.801	560.08
197.189	101.09
197.576	-43.85
197.963	40.27
198.351	-46.41
198.738	4.39
199.125	46.9
199.512	22.87
199.899	-2.25
200.286	18.05
200.673	-0.35
201.06	34.37
201.447	44.99
201.833	13.99
202.22	12.39
202.607	47.81
202.994	32.66
203.38	39.04
203.767	23.84
204.154	35.76
204.54	6.35
204.927	20.3
205.313	18.24
205.699	-19.76
206.086	30.34
206.472	17.4
206.858	59.94
207.245	59.58
207.631	41.53
208.017	40.27
208.403	48.73
208.789	23.46
209.175	31.78
209.561	42.57
209.947	18.99
210.333	4.97
210.719	10.88
211.105	39.19
211.491	16.36
211.876	41.76
212.262	37.9
212.648	7.12
213.034	19.71
213.419	16.79
213.805	3.8
214.19	21.87
214.576	28.96
214.961	-8.51
215.346	-21.41
215.732	-12.18
216.117	43.43
216.502	16.68
216.888	6.69
217.273	17.34
217.658	-1.65
218.043	19.63
218.428	10.09
218.813	2.21
219.198	13.12
219.583	18.12
219.968	17.73
220.353	-20.76
220.738	3.22
221.122	10.51
221.507	-16.4
221.892	7.87
222.276	20.15
222.661	33.76
223.046	-5.71
223.43	-2.9
223.815	3.67
224.199	14.9
224.583	0.75
224.968	-5.91
225.352	3.59
225.736	5.28
226.121	2.76
226.505	9.6
226.889	-6.62
227.273	1.14
227.657	-0.06
228.041	0.9
228.425	2.39
228.809	4.18
229.193	5.23
229.577	3.8
229.961	1.36
230.344	3.23
230.728	1.63
231.112	1.19
231.495	2.47
231.879	3.48
232.263	2.33
232.646	0.97
233.03	2.64
233.413	1.74
233.797	2.5
234.18	2.35
234.563	5.47
234.946	1.42
235.33	4.35
235.713	1.8
236.096	2.52
236.479	2.42
236.862	4.14
237.245	4.06
237.628	3.25
238.011	3.87
238.394	2.72
238.777	3.44
239.16	3.5
239.543	1.66
239.925	5.23
240.308	2.68
240.691	3.48
241.073	2.75
241.456	0.26
241.838	4.07
242.221	2.22
242.603	2.59
242.986	1.49
243.368	2.23
243.75	2.67
244.133	2.46
244.515	2.03
244.897	3.11
245.279	2.18
245.661	2.3
246.043	3.08
246.425	2.67
246.807	2.84
247.189	2.19
247.571	2.12
247.953	1.98
248.335	2.33
248.717	2.46
249.098	2.65
249.48	1.98
249.862	2.66
250.243	2.33
250.625	2.42
251.006	3.34
251.388	2.72
251.769	2.62
252.151	2.39
252.532	2.97
252.913	2.91
253.295	2.32
253.676	1.86
254.057	2.2
254.438	2.51
254.819	2.14
255.2	3.69
255.581	2.8
255.962	1.65
256.343	2.24
256.724	2.37
257.105	2.26
257.486	2.78
257.867	3.02
258.247	2.68
258.628	2.17
259.009	2.59
259.389	2.38
259.77	3.29
260.15	2.15
260.531	2.73
260.911	2.38
261.292	2.5
261.672	2.19
262.052	2.36
262.432	2.49
262.813	2.35
263.193	2.04
263.573	2.44
263.953	3.25
264.333	2.3
264.713	2.19
265.093	2.94
265.473	2.44
265.853	2.98
266.233	2.92
266.612	2.28
266.992	2.34
267.372	2.79
267.752	2.14
268.131	1.96
268.511	2.05
268.89	2.39
269.27	2.43
269.649	2.14
270.029	3.11
270.408	2.56
270.787	1.72
271.167	1.94
271.546	2.31
271.925	2.35
272.304	2.1
272.683	2.34
273.062	1.92
273.441	2.27
273.82	2.25
274.199	2.47
274.578	2.03
274.957	2.53
275.336	2.48
275.715	2.55
276.093	1.83
276.472	2.15
276.851	2.26
277.229	2.45
277.608	2.15
277.986	2.74
278.365	1.79
278.743	2.14
279.122	3.11
279.5	2.38
279.878	2.99
280.257	2.63
280.635	2.5
281.013	2.75
281.391	2.24
281.769	2.17
282.147	2.15
282.525	1.81
282.903	1.95
283.281	2.25
283.659	2.58
284.037	2.27
284.415	1.91
284.792	2.3
285.17	2.76
285.548	2.27
285.925	2.3
286.303	2.23
286.68	2.09
287.058	2.49
287.435	2.07
287.813	2.43
288.19	1.91
288.567	2.18
288.945	2.22
289.322	2.89
289.699	2.06
290.076	2.35
290.453	2.65
290.83	1.9
291.207	2.44
291.584	2.61
291.961	2.44
292.338	2.12
292.715	2.56
293.092	2.45
293.469	2.44
293.845	2.68
294.222	2.59
294.599	3.34
294.975	2.57
295.352	2.36
295.728	2.58
296.105	2.45
296.481	2.2
296.858	2.81
297.234	2.63
297.61	2.32
297.986	2.85
298.363	3.01
298.739	2.83
299.115	3.03
299.491	2.69
299.867	2.69
300.243	2.64
300.619	3.05
300.995	3.04
301.371	3.52
301.746	3.12
302.122	2.8
302.498	3.35
302.874	2.79
303.249	3.33
303.625	2.85
304	2.59
304.376	3.09
304.751	3.47
305.127	2.71
305.502	3.33
305.878	3.74
306.253	3.55
306.628	2.87
307.003	3.52
307.378	2.86
307.754	3.59
308.129	3.11
308.504	3.45
308.879	3.07
309.254	3.76
309.629	3.57
310.003	3.6
310.378	3.81
310.753	3.41
311.128	3.56
311.502	3.79
311.877	3.71
312.252	3.6
312.626	3.61
313.001	3.59
313.375	3.69
313.75	3.48
314.124	3.3
314.498	3.65
314.873	4.07
315.247	4.19
315.621	4.02
315.995	4.08
316.369	4.12
316.743	4.06
317.117	4.08
317.491	4.24
317.865	3.68
318.239	4.73
318.613	4.65
318.987	4.5
319.361	4.49
319.734	4.85
320.108	4.26
320.482	4.67
320.855	4.04
321.229	4.62
321.602	4.76
321.976	4.86
322.349	4.66
322.723	5.42
323.096	4.8
323.469	4.79
323.843	4.8
324.216	4.46
324.589	5.03
324.962	5.26
325.335	4.59
325.708	4.79
326.081	4.86
326.454	4.54
326.827	4.58
327.2	5.22
327.573	5.71
327.945	4.9
328.318	4.75
328.691	5.23
329.063	5.04
329.436	4.63
329.809	4.8
330.181	4.8
330.553	4.67
330.926	5.31
331.298	5.04
331.671	5.12
332.043	4.95
332.415	5.37
332.787	5.87
333.159	5.15
333.532	5.23
333.904	5.18
334.276	5.67
334.648	5.31
335.02	5.13
335.391	5.73
335.763	5.33
336.135	5.21
336.507	5.45
336.879	5.26
337.25	5.52
337.622	5.58
337.993	5.53
338.365	5.71
338.736	5.83
339.108	5.65
339.479	5.33
339.851	5.99
340.222	5.62
340.593	5.88
340.964	5.97
341.336	5.81
341.707	5.78
342.078	5.76
342.449	5.73
342.82	5.98
343.191	5.85
343.562	5.82
343.933	5.71
344.303	5.42
344.674	6.24
345.045	5.85
345.416	5.95
345.786	5.86
346.157	5.86
346.527	6.29
346.898	5.46
347.268	5.8
347.639	6.11
348.009	5.88
348.38	6.28
348.75	6
349.12	6.59
349.49	6.64
349.861	6.5
350.231	6.49
350.601	6.4
350.971	6.07
351.341	6.65
351.711	6.34
352.081	6.66
352.45	6.46
352.82	6.05
353.19	6.73
353.56	6.06
353.929	6.42
354.299	6.42
354.669	6.5
355.038	6.27
355.408	6.51
355.777	6.76
356.147	6.94
356.516	6.31
356.885	6.6
357.254	6.46
357.624	6.39
357.993	6.98
358.362	6.51
358.731	6.51
359.1	6.77
359.469	6.41
359.838	6.62
360.207	6.98
360.576	6.96
360.945	7.07
361.314	6.66
361.682	6.96
362.051	6.78
362.42	7.01
362.788	7.08
363.157	6.8
363.525	6.85
363.894	6.81
364.262	7.03
364.631	7.02
364.999	6.9
365.367	7.06
365.735	7.05
366.104	7.02
366.472	7.01
366.84	6.84
367.208	6.97
367.576	7.47
367.944	7.4
368.312	7.04
368.68	7.19
369.048	7.33
369.416	7.15
369.783	7.44
370.151	7.37
370.519	7.56
370.886	7.44
371.254	7.7
371.621	7.34
371.989	7.12
372.356	7.6
372.724	7.79
373.091	7.79
373.458	7.68
373.826	7.34
374.193	7.45
374.56	7.59
374.927	7.5
375.294	8.05
375.661	7.99
376.028	7.5
376.395	7.59
376.762	7.95
377.129	7.79
377.496	7.48
377.863	7.97
378.229	8.07
378.596	7.7
378.963	7.75
379.329	7.73
379.696	7.71
380.062	7.81
380.429	7.87
380.795	8.32
381.161	8.33
381.528	8.12
381.894	8.32
382.26	8.21
382.626	8.32
382.993	7.95
383.359	8.46
383.725	8
384.091	8.14
384.457	8.28
384.823	8.07
385.188	8.35
385.554	8.2
385.92	8.03
386.286	8.11
386.651	8.33
387.017	8.24
387.383	8.57
387.748	8.17
388.114	8.55
388.479	8.32
388.845	8.66
389.21	8.3
389.575	8.6
389.94	8.59
390.306	8.52
390.671	8.68
391.036	8.69
391.401	8.58
391.766	8.71
392.131	8.45
392.496	8.52
392.861	8.61
393.226	8.49
393.591	8.54
393.956	8.57
394.32	8.51
394.685	8.63
395.05	8.96
395.414	8.65
395.779	8.87
396.143	8.58
396.508	8.72
396.872	8.82
397.236	8.61
397.601	8.87
397.965	8.96
398.329	8.86
398.694	9.2
399.058	9.09
399.422	9.08
399.786	8.85
400.15	9.05
400.514	9.06
400.878	9.14
401.242	8.92
401.605	9.31
401.969	9.3
402.333	8.89
402.697	9.27
403.06	9.2
403.424	9.04
403.787	9.33
404.151	9.01
404.514	9.03
404.878	9.21
405.241	9.25
405.604	8.99
405.968	9.26
406.331	9.16
406.694	9.24
407.057	9.18
407.42	9.39
407.783	9.35
408.146	9.54
408.509	9.37
408.872	9.36
409.235	9.6
409.598	9.6
409.961	9.64
410.323	9.64
410.686	9.45
411.049	9.4
411.411	9.64
411.774	9.55
412.136	9.48
412.499	9.69
412.861	9.53
413.223	9.49
413.586	9.64
413.948	9.86
414.31	9.86
414.672	9.69
415.035	9.66
415.397	9.54
415.759	9.53
416.121	9.75
416.483	9.62
416.845	9.78
417.206	9.64
417.568	9.83
417.93	9.7
418.292	9.64
418.653	9.94
419.015	9.85
419.377	9.83
419.738	9.88
420.1	9.78
420.461	9.85
420.822	9.81
421.184	9.72
421.545	9.82
421.906	9.76
422.267	9.78
422.629	9.74
422.99	9.89
423.351	9.94
423.712	9.81
424.073	10.09
424.434	10.03
424.795	10.01
425.155	10.01
425.516	10.07
425.877	10.1
426.238	10.11
426.598	10.08
426.959	10.15
427.32	10.25
427.68	10.34
428.041	10.43
428.401	10.22
428.761	10.52
429.122	10.46
429.482	10.51
429.842	10.45
430.202	10.69
430.563	10.68
430.923	10.66
431.283	10.59
431.643	10.66
432.003	10.93
432.363	10.83
432.722	11.11
433.082	10.84
433.442	10.96
433.802	10.81
434.161	10.89
434.521	10.87
434.881	10.93
435.24	10.85
435.6	10.84
435.959	11.02
436.319	10.91
436.678	11.06
437.037	11.02
437.396	11.03
437.756	11.03
438.115	11.17
438.474	11
438.833	11.13
439.192	11.16
439.551	11.15
439.91	11.26
440.269	11.37
440.628	11.21
440.987	11.27
441.345	11.34
441.704	11.34
442.063	11.28
442.421	11.37
442.78	11.19
443.138	11.42
443.497	11.32
443.855	11.46
444.214	11.41
444.572	11.52
444.93	11.66
445.288	11.48
445.647	11.57
446.005	11.76
446.363	11.69
446.721	11.72
447.079	11.79
447.437	11.56
447.795	11.63
448.153	11.62
448.51	11.61
448.868	11.68
449.226	11.68
449.584	11.8
449.941	11.87
450.299	11.77
450.656	11.99
451.014	12.06
451.371	12.03
451.729	12.1
452.086	12.18
452.443	12.1
452.801	12.18
453.158	12.26
453.515	12.31
453.872	12.23
454.229	12.25
454.586	12.36
454.943	12.43
455.3	12.18
455.657	12.22
456.014	12.65
456.371	12.29
456.727	12.45
457.084	12.28
457.441	12.6
457.797	12.58
458.154	12.54
458.51	12.4
458.867	12.48
459.223	12.76
459.58	12.59
459.936	12.61
460.292	12.78
460.648	12.69
461.005	12.43
461.361	12.48
461.717	12.54
462.073	12.52
462.429	12.56
462.785	12.68
463.141	12.8
463.496	12.81
463.852	12.89
464.208	13.04
464.564	12.93
464.919	13
465.275	12.9
465.631	13.02
465.986	13.13
466.342	13.08
466.697	12.96
467.052	13.19
467.408	13.2
467.763	13.14
468.118	13.2
468.473	13.14
468.829	13.2
469.184	13.4
469.539	13.31
469.894	13.38
470.249	13.57
470.603	13.44
470.958	13.41
471.313	13.51
471.668	13.56
472.023	13.39
472.377	13.58
472.732	13.53
473.086	13.69
473.441	13.58
473.795	13.62
474.15	13.68
474.504	13.82
474.859	13.72
475.213	13.84
475.567	13.86
475.921	13.71
476.275	13.9
476.63	13.82
476.984	14.09
477.338	13.95
477.692	13.57
478.045	13.88
478.399	14
478.753	13.88
479.107	13.88
479.461	13.87
479.814	13.86
480.168	13.97
480.521	14.06
480.875	14.26
481.228	14.02
481.582	14.12
481.935	14.2
482.289	14.09
482.642	14.22
482.995	14.07
483.348	13.99
483.701	13.95
484.055	13.93
484.408	13.85
484.761	13.7
485.114	13.46
485.466	13.48
485.819	13.54
486.172	13.6
486.525	13.67
486.878	13.73
487.23	13.81
487.583	13.95
487.936	13.92
488.288	13.98
488.641	13.92
488.993	13.92
489.345	13.89
489.698	13.95
490.05	13.95
490.402	13.96
490.754	14.15
491.107	14.27
491.459	14.28
491.811	14.46
492.163	14.39
492.515	14.41
492.866	14.3
493.218	14.23
493.57	14.28
493.922	14.29
494.274	14.39
494.625	14.53
494.977	14.73
495.328	14.86
495.68	14.84
496.031	15.09
496.383	15.02
496.734	15.13
497.086	15.33
497.437	15.18
497.788	15.03
498.139	15.1
498.49	15.12
498.842	15.06
499.193	15.16
499.544	15.25
499.894	15.32
500.245	15.3
500.596	15.36
500.947	15.32
501.298	15.51
501.648	15.52
501.999	15.52
502.35	15.72
502.7	15.55
503.051	15.63
503.401	15.59
503.752	15.64
504.102	15.67
504.452	15.72
504.803	15.62
505.153	15.72
505.503	15.86
505.853	15.75
506.203	15.9
506.553	15.71
506.903	15.91
507.253	15.99
507.603	15.93
507.953	15.94
508.303	16
508.652	16.04
509.002	16.01
509.352	15.94
509.701	15.99
510.051	16
510.4	16.2
510.75	16.01
511.099	15.93
511.449	16.06
511.798	16.07
512.147	16.09
512.496	16.16
512.846	16.16
513.195	16.26
513.544	16.08
513.893	16.13
514.242	16.24
514.591	16.39
514.939	16.38
515.288	16.48
515.637	16.4
515.986	16.49
516.334	16.46
516.683	16.46
517.032	16.68
517.38	16.55
517.729	16.66
518.077	16.67
518.426	16.69
518.774	16.66
519.122	16.66
519.47	16.61
519.819	16.58
520.167	16.37
520.515	16.47
520.863	16.54
521.211	16.54
521.559	16.65
521.907	16.71
522.255	16.67
522.602	16.84
522.95	16.85
523.298	17
523.645	16.95
523.993	17.1
524.341	17.25
524.688	17.16
525.036	17.12
525.383	17.19
525.73	17.13
526.078	17
526.425	17.1
526.772	16.99
527.119	16.96
527.466	16.95
527.814	16.99
528.161	17.03
528.508	16.87
528.854	16.88
529.201	16.84
529.548	16.71
529.895	16.69
530.242	16.58
530.588	16.78
530.935	16.76
531.282	16.68
531.628	16.85
531.975	17
532.321	17.2
532.667	17.23
533.014	17.33
533.36	17.37
533.706	17.41
534.052	17.21
534.399	17.25
534.745	17.16
535.091	17.28
535.437	17.33
535.783	17.34
536.129	17.53
536.474	17.61
536.82	17.62
537.166	17.71
537.512	17.75
537.857	17.72
538.203	17.65
538.549	17.76
538.894	17.76
539.239	17.78
539.585	17.76
539.93	17.92
540.276	18.18
540.621	18.11
540.966	18.3
541.311	18.29
541.656	18.13
542.001	18.13
542.346	17.87
542.691	17.79
543.036	17.66
543.381	17.78
543.726	17.79
544.071	17.89
544.415	18
544.76	18.09
545.105	18.03
545.449	18.09
545.794	18.33
546.138	18.3
546.483	18.49
546.827	18.53
547.171	18.58
547.516	18.6
547.86	18.58
548.204	18.55
548.548	18.49
548.892	18.57
549.236	18.68
549.58	18.85
549.924	18.89
550.268	18.84
550.612	19.13
550.956	19.29
551.3	19.26
551.643	19.23
551.987	19.34
552.33	19.15
552.674	19.26
553.017	19.5
553.361	19.41
553.704	19.4
554.048	19.34
554.391	19.34
554.734	19.37
555.077	19.54
555.42	19.47
555.764	19.49
556.107	19.59
556.45	19.72
556.793	19.57
557.135	19.72
557.478	19.68
557.821	19.84
558.164	19.75
558.507	19.63
558.849	19.89
559.192	19.76
559.534	19.99
559.877	20.07
560.219	19.98
560.562	19.97
560.904	20.21
561.246	19.75
561.589	20.14
561.931	19.95
562.273	20.04
562.615	20.06
562.957	20.08
563.299	20.32
563.641	20.17
563.983	20.04
564.325	20.09
564.667	20.19
565.008	20.29
565.35	20.34
565.692	20.2
566.033	20.42
566.375	20.51
566.716	20.55
567.058	20.53
567.399	20.63
567.741	20.49
568.082	20.44
568.423	20.41
568.764	20.61
569.105	20.43
569.447	20.71
569.788	20.6
570.129	20.6
570.47	20.51
570.811	20.7
571.151	20.94
571.492	20.76
571.833	20.71
572.174	20.9
572.514	20.71
572.855	20.97
573.195	20.64
573.536	20.76
573.876	20.83
574.217	20.94
574.557	20.72
574.898	20.81
575.238	20.89
575.578	21.01
575.918	21.1
576.258	21.05
576.598	21.09
576.938	21.13
577.278	21.01
577.618	21.14
577.958	21.24
578.298	21.28
578.638	21.32
578.977	21.57
579.317	21.48
579.657	21.63
579.996	21.44
580.336	21.31
580.675	21.58
581.014	21.53
581.354	21.68
581.693	21.75
582.032	21.55
582.372	21.76
582.711	21.7
583.05	21.8
583.389	21.89
583.728	22.01
584.067	21.95
584.406	21.82
584.745	21.97
585.083	22.02
585.422	21.95
585.761	21.96
586.1	21.87
586.438	22.07
586.777	22.03
587.115	22.27
587.454	22.06
587.792	22.35
588.13	22.24
588.469	22.28
588.807	22.29
589.145	22.33
589.483	22.41
589.821	22.53
590.159	22.27
590.497	22.3
590.835	22.46
591.173	22.59
591.511	22.26
591.849	22.26
592.187	22.4
592.524	22.42
592.862	22.23
593.2	22.5
593.537	22.69
593.875	22.84
594.212	22.67
594.55	22.84
594.887	22.57
595.224	22.44
595.561	22.48
595.899	22.6
596.236	22.8
596.573	22.77
596.91	22.65
597.247	22.96
597.584	22.85
597.921	22.76
598.258	22.64
598.594	22.87
598.931	22.54
599.268	22.76
599.604	22.87
599.941	22.92
600.277	22.89
600.614	23.14
600.95	22.88
601.287	23.29
601.623	23.63
601.959	23.28
602.296	23.17
602.632	23.28
602.968	23.3
603.304	23.08
603.64	23.52
603.976	23.47
604.312	23.47
604.648	23.37
604.984	23.45
605.319	23.24
605.655	23.26
605.991	23.23
606.326	23.46
606.662	23.44
606.998	23.46
607.333	23.26
607.668	23.31
608.004	23.43
608.339	23.47
608.674	23.48
609.01	23.8
609.345	23.65
609.68	23.45
610.015	23.59
610.35	23.57
610.685	23.9
611.02	23.7
611.355	23.82
611.689	23.76
612.024	23.9
612.359	23.89
612.694	23.79
613.028	23.79
613.363	23.95
613.697	24.18
614.032	23.94
614.366	24.02
614.7	24.17
615.035	23.72
615.369	24.25
615.703	24.17
616.037	24.33
616.371	24.13
616.705	24.35
617.039	24.36
617.373	24.69
617.707	24.14
618.041	24.43
618.375	24.22
618.709	24.63
619.042	24.3
619.376	24.41
619.71	24.52
620.043	24.74
620.377	24.4
620.71	24.55
621.043	24.42
621.377	24.76
621.71	24.48
622.043	24.7
622.376	24.78
622.709	24.63
623.043	25.08
623.376	25.01
623.709	25.24
624.041	24.62
624.374	24.69
624.707	24.81
625.04	24.8
625.373	24.6
625.705	24.89
626.038	25
626.37	25.3
626.703	24.71
627.035	25.09
627.368	24.9
627.7	24.91
628.032	25.07
628.365	24.99
628.697	25.13
629.029	24.96
629.361	25.06
629.693	25.13
630.025	25.12
630.357	24.9
630.689	24.98
631.021	25.63
631.353	25.44
631.684	25.33
632.016	25.48
632.348	25.24
632.679	25.62
633.011	25.45
633.342	25.15
633.674	25.41
634.005	25.36
634.336	25.63
634.668	25.83
634.999	25.64
635.33	25.81
635.661	25.59
635.992	25.75
636.323	25.74
636.654	25.73
636.985	25.65
637.316	25.58
637.647	25.98
637.977	25.46
638.308	25.71
638.639	25.72
638.969	25.76
639.3	26.02
639.63	26.07
639.961	26.02
640.291	26.18
640.622	26.02
640.952	26.12
641.282	25.93
641.612	25.91
641.943	26.3
642.273	25.91
642.603	26.04
642.933	26.02
643.263	25.88
643.592	26.43
643.922	26.57
644.252	26.77
644.582	26.32
644.911	25.93
645.241	26.5
645.571	26.09
645.9	26.38
646.23	26.99
646.559	26.7
646.888	26.6
647.218	26.03
647.547	26.42
647.876	26.29
648.205	26.48
648.534	26.38
648.863	26.96
649.192	26.46
649.521	26.93
649.85	26.43
650.179	26.84
650.508	26.73
650.837	26.6
651.165	26.54
651.494	26.96
651.822	27.18
652.151	26.57
652.479	26.53
652.808	26.65
653.136	26.94
653.465	27.1
653.793	26.88
654.121	26.34
654.449	26.99
654.777	27.38
655.105	27.32
655.433	27
655.761	27.04
656.089	27.11
656.417	27.07
656.745	27.34
657.073	26.98
657.4	27.02
657.728	27.26
658.056	27.52
658.383	27.08
658.711	27.02
659.038	27.22
659.365	27.07
659.693	27.08
660.02	27.56
660.347	27.41
660.674	27.49
661.001	27.15
661.329	26.94
661.656	27.28
661.982	27.22
662.309	27.06
662.636	27.86
662.963	27.36
663.29	27.1
663.616	26.84
663.943	27.54
664.27	27.62
664.596	28.24
664.923	27.81
665.249	27.63
665.576	27.64
665.902	27.83
666.228	28.34
666.554	27.9
666.881	27.52
667.207	27.78
667.533	28.09
667.859	28.18
668.185	28.21
668.511	27.44
668.837	27.41
669.162	28.32
669.488	27.85
669.814	27.97
670.139	27.86
670.465	27.74
670.791	27.66
671.116	27.75
671.442	28
671.767	28.06
672.092	27.99
672.418	27.8
672.743	28.08
673.068	28.32
673.393	28.89
673.718	28.34
674.043	28.32
674.368	28.64
674.693	28.24
675.018	29.09
675.343	28.45
675.667	28.81
675.992	29.4
676.317	28.2
676.641	27.94
676.966	28.89
677.29	28.63
677.615	28.87
677.939	28.47
678.264	28.46
678.588	27.79
678.912	28.13
679.236	28.65
679.56	28.18
679.885	28.15
680.209	28.09
680.532	28.86
680.856	29.59
681.18	28.59
681.504	28.63
681.828	28.62
682.152	28.91
682.475	28.57
682.799	29.01
683.122	28.84
683.446	29.02
683.769	28.8
684.093	28.23
684.416	28.98
684.739	29.48
685.062	28.53
685.386	29.34
685.709	29.14
686.032	29.27
686.355	28.81
686.678	29.45
687.001	28.75
687.324	28.97
687.646	28.84
687.969	29.32
688.292	29.38
688.614	28.4
688.937	28.94
689.26	27.83
689.582	29.47
689.904	29.22
690.227	28.95
690.549	29.26
690.871	29.76
691.194	29.79
691.516	28.54
691.838	29.94
692.16	29.61
692.482	29.32
692.804	28.85
693.126	29.12
693.448	28.88
693.769	29.2
694.091	30.06
694.413	29.95
694.735	29.83
695.056	29.18
695.378	29.85
695.699	29.39
696.021	28.54
696.342	29.07
696.663	29.45
696.984	31.01
697.306	29.41
697.627	29.5
697.948	29.96
698.269	31.06
698.59	29.74
698.911	29.31
699.232	29.74
699.553	29.79
699.873	29.36
700.194	30.24
700.515	29.33
700.835	29.83
701.156	30.16
701.477	29.25
701.797	29.9
702.117	29.71
702.438	29.84
702.758	29.42
703.078	30.25
703.398	30.11
703.719	29.86
704.039	30.24
704.359	30.27
704.679	29.64
704.999	29.8
705.319	28.9
705.638	31.44
705.958	30.3
706.278	29.63
706.597	29.42
706.917	29.92
707.237	31.08
707.556	30.79
707.876	29.38
708.195	30.89
708.514	31.29
708.834	30.81
709.153	30.17
709.472	30.79
709.791	30.26
710.11	29.9
710.429	30.86
710.748	30.12
711.067	31.36
711.386	30.44
711.705	29.97
712.023	31.13
712.342	29.89
712.661	29.91
712.979	31.18
713.298	30.64
713.616	31.35
713.935	30.57
714.253	30.74
714.572	30.3
714.89	30.8
715.208	30.33
715.526	30.52
715.844	30.56
716.162	30.7
716.48	31.63
716.798	30.64
717.116	30.67
717.434	31.02
717.752	30.54
718.069	30.83
718.387	30.98
718.705	30.34
719.022	31.26
719.34	31.98
719.657	31.53
719.975	31.07
720.292	31.37
720.609	30.78
720.927	31.11
721.244	31.06
721.561	31.51
721.878	31.55
722.195	31.13
722.512	31.86
722.829	32.25
723.146	30.47
723.463	31.05
723.779	31.27
724.096	31.42
724.413	31.9
724.729	31.06
725.046	31.67
725.362	30.73
725.679	31.48
725.995	30.5
726.311	31.41
726.628	30.22
726.944	31.66
727.26	30.04
727.576	32.28
727.892	32.35
728.208	31.17
728.524	31.9
728.84	31.88
729.156	31.02
729.472	31.49
729.787	30.99
730.103	31.25
730.419	31.38
730.734	31.15
731.05	32.27
731.365	31.15
731.681	32.07
731.996	32.45
732.311	30.76
732.626	31.36
732.942	31.8
733.257	31.69
733.572	32.3
733.887	32.24
734.202	31.34
734.517	32.67
734.832	31.81
735.146	31.36
735.461	31.44
735.776	31.92
736.091	32.86
736.405	32.15
736.72	32.37
737.034	31.04
737.349	32.62
737.663	30.98
737.977	32.54
738.292	31.83
738.606	31.67
738.92	31.62
739.234	31.54
739.548	34.49
739.862	32.63
740.176	32.32
740.49	30.78
740.804	32.75
741.117	32.16
741.431	31.67
741.745	32.39
742.058	31.22
742.372	31.36
742.685	32.88
742.999	31.56
743.312	30.98
743.626	31.88
743.939	33.1
744.252	32.8
744.565	31.49
744.878	32.07
745.191	30.98
745.505	31.31
745.817	31.32
746.13	32.82
746.443	30.88
746.756	32.88
747.069	33.46
747.381	33.51
747.694	32.29
748.007	31.86
748.319	30.47
748.632	31.78
748.944	31.43
749.256	34.14
749.569	31.78
749.881	31.48
750.193	32.96
750.505	32.94
750.817	35.87
751.129	33.54
751.441	33.9
751.753	32.13
752.065	31.72
752.377	33.4
752.689	33.87
753	33.33
753.312	31.93
753.624	33.02
753.935	31.82
754.247	31.91
754.558	32.86
754.869	34.31
755.181	31.74
755.492	33.75
755.803	33.38
756.114	33.07
756.425	32.73
756.736	32.99
757.047	33.26
757.358	32.54
757.669	32.04
757.98	33.2
758.291	32.21
758.601	34.3
758.912	33.31
759.223	35.19
759.533	32.37
759.844	31.99
760.154	33.48
760.464	33.8
760.775	33.51
761.085	32.96
761.395	32.11
761.705	34.65
762.016	34.18
762.326	32.52
762.636	33.41
762.945	32.29
763.255	34.46
763.565	33.24
763.875	30.54
764.185	33.87
764.494	32.91
764.804	33.34
765.113	34.47
765.423	34.35
765.732	33.9
766.042	34.64
766.351	32.96
766.66	33.91
766.97	34.41
767.279	32.22
767.588	32.1
767.897	32.53
768.206	33.65
768.515	32.98
768.824	32.51
769.133	34.5
769.441	32.61
769.75	34.77
770.059	33.72
770.367	30.56
770.676	32.33
770.984	35.56
771.293	33.38
771.601	34.74
771.91	35.22
772.218	32.02
772.526	31.3
772.834	33.48
773.142	34.88
773.45	32.77
773.758	33.4
774.066	33.93
774.374	34.13
774.682	33
774.99	35.19
775.298	32.14
775.605	33.35
775.913	36.1
776.22	34.52
776.528	36.16
776.835	34.1
777.143	36.31
777.45	33.97
777.757	36.43
778.065	33.82
778.372	33.2
778.679	35.48
778.986	34.2
779.293	35.85
779.6	33.75
779.907	33.13
780.214	32.21
780.52	37.33
780.827	34.5
781.134	32.16
781.44	34.96
781.747	35.94
782.053	35.11
782.36	39.98
782.666	34.39
782.973	33.33
783.279	32.16
783.585	33.65
783.891	33.59
784.197	36.09
784.503	33.46
784.809	33.75
785.115	33.52
785.421	33.9
785.727	34.08
786.033	35.91
786.339	33.13
786.644	37.37
786.95	31.57
787.255	33.3
787.561	30.84
787.866	35.68
788.172	35.39
788.477	33.84
788.782	36.31
789.088	31.06
789.393	33.38
789.698	35.32
790.003	32.19
790.308	34.63
790.613	33.63
790.918	34.06
791.223	34.6
791.527	31.88
791.832	33.08
792.137	34.3
792.441	35.49
792.746	32.38
793.05	35.39
793.355	32.67
793.659	37.14
793.963	32.93
794.268	36.22
794.572	34.99
794.876	31.02
795.18	35.76
795.484	32.82
795.788	29.98
796.092	31.88
796.396	36.92
796.7	33.84
797.004	34.26
797.307	32.31
797.611	34.01
797.915	35.55
798.218	32.94
798.522	38.21
798.825	35.3
799.128	39.86
799.432	32.42
799.735	34.91
800.038	34.43
800.341	29.01
800.644	35.42
800.947	35.41
801.25	31.05
801.553	37.24
801.856	37.19
802.159	30.58
802.462	33.11
802.764	34.11
803.067	37.24
803.37	35.53
803.672	31.51
803.975	35.93
804.277	32.78
804.579	34.51
804.882	33.18
805.184	34.25
805.486	34.42
805.788	44.88
806.09	30.92
806.392	31.27
806.694	32.9
806.996	36.78
807.298	34.64
807.6	34.24
807.902	37.11
808.203	33.35
808.505	34.97
808.807	35.23
809.108	32.07
809.409	33.86
809.711	39.68
810.012	39.46
810.313	36.97
810.615	34.01
810.916	36.4
811.217	39.21
811.518	35.87
811.819	38.03
812.12	35.72
812.421	40.01
812.722	35.34
813.023	36.16
813.323	33.4
813.624	38.07
813.925	32.56
814.225	35.56
814.526	36.3
814.826	34.61
815.126	36.56
815.427	36.63
815.727	37.99
816.027	36.73
816.327	36.43
816.627	42.37
816.927	33.34
817.227	40.98
817.527	35.91
817.827	38.1
818.127	40.75
818.427	35.46
818.727	30.18
819.026	36.63
819.326	34.65
819.625	40.63
819.925	38.22
820.224	39.09
820.524	33.51
820.823	35.03
821.122	34.22
821.421	36.18
821.72	31.46
822.019	32.37
822.318	37.22
822.617	38.41
822.916	36.48
823.215	33.95
823.514	37.31
823.813	36.01
824.111	35.05
824.41	36.66
824.709	36.13
825.007	36.78
825.306	36.35
825.604	36.48
825.902	36.67
826.201	35.28
826.499	35.21
826.797	35.62
827.095	34.77
827.393	34.35
827.691	35.36
827.989	35.06
828.287	35.16
828.585	34.55
828.882	33.88
829.18	36.82
829.478	37.11
829.775	34.48
830.073	36.34
830.37	36.71
830.668	35.43
830.965	36.36
831.263	34.63
831.56	36.05
831.857	33.38
832.154	33.46
832.451	37.08
832.748	31.84
833.045	32.11
833.342	39.82
833.639	37.01
833.936	27.2
834.232	38
834.529	34.37
834.826	38.07
835.122	34.51
835.419	35.42
835.715	36.91
836.012	39.82
836.308	35.84
836.604	37.17
836.901	35.13
837.197	38.15
837.493	37.27
837.789	37.63
838.085	32.15
838.381	37.54
838.677	33.51
838.972	33.06
839.268	37.35
839.564	36.09
839.86	28.87
840.155	38.39
840.451	29.85
840.746	29.75
841.042	39.31
841.337	41.47
841.632	42
841.928	32.91
842.223	26.85
842.518	37.7
842.813	32.31
843.108	35.65
843.403	33.84
843.698	38.44
843.993	38.84
844.287	36.89
844.582	34.51
844.877	36.32
845.171	33.04
845.466	44.4
845.761	29.28
846.055	33.89
846.349	21.17
846.644	35.39
846.938	45.57
847.232	22.31
847.526	30.2
847.82	21.72
848.114	30.74
848.408	28.84
848.702	41.38
848.996	41.66
849.29	27.67
849.584	31.41
849.877	37.28
850.171	40.37
850.465	30.37
850.758	31.45
851.052	45.65
851.345	40.12
851.638	29.67
851.932	25.34
852.225	30.94
852.518	43.45
852.811	21.59
853.104	37.46
853.397	22.9
853.69	34.26
853.983	44.68
854.276	40.18
854.569	35.73
854.861	20.3
855.154	50.15
855.447	43.91
855.739	27.72
856.032	37.79
856.324	40.05
856.616	36.09
856.909	37.54
857.201	36.15
857.493	47.46
857.785	50.32
858.077	43.22
858.369	57.95
858.661	52.22
858.953	32.9
859.245	33.87
859.537	24.5
859.829	22.2
860.12	42.14
860.412	31.2
860.703	35.15
860.995	17.43
861.286	25.3
861.578	19.14
861.869	53.35
862.16	-5.67
862.452	38.61
862.743	45.99
863.034	31.37
863.325	40.2
863.616	48.69
863.907	40.67
864.198	9.85
864.488	48.26
864.779	43.93
865.07	27.48
865.36	25
865.651	39.25
865.941	39.4
866.232	47.75
866.522	23.73
866.813	33.44
867.103	20.73
867.393	31.54
867.683	25.95
867.973	42.44
868.263	39.98
868.553	27.9
868.843	42.85
869.133	49.63
869.423	54.52
869.713	51.57
870.002	34.23
870.292	37.85
870.582	24.43
870.871	53.91
871.161	34.01
871.45	45.28
871.739	22.44
872.029	13.27
872.318	23.24
872.607	35.01
872.896	44.91
873.185	31.58
873.474	45.45
873.763	39.62
874.052	50.9
874.341	37.4
874.63	31.7
874.918	50.1
875.207	40.31
875.496	28.28
875.784	41.93
876.073	42.38
876.361	24.1
876.649	44.24
876.938	45.4
877.226	24.78
877.514	44.75
877.802	38.61
878.09	49.57
878.378	45.35
878.666	28.06
878.954	31.09
879.242	33.17
879.53	17.88
879.817	35.9
880.105	30.65
880.392	58.42
880.68	12.71
880.967	51.7
881.255	44.28
881.542	39.17
881.83	29.42
882.117	33.19
882.404	62.05
882.691	59.72
882.978	44.15
883.265	46.18
883.552	49.66
883.839	39.24
884.126	36.03
884.413	37.5
884.699	40.77
884.986	33.69
885.273	40.79
885.559	40.79
885.846	40.79
