Data from 0389_forehead_Reflection__2__73.txt Node

Date: Fri Dec 15 16:53:10 CST 2023
User: ToomeyLab
Spectrometer: FLMS14357
Trigger mode: 0
Integration Time (sec): 1.000000E-2
Scans to average: 100
Electric dark correction enabled: true
Nonlinearity correction enabled: false
Boxcar width: 0
XAxis mode: Wavelengths
Number of Pixels in Spectrum: 2048
>>>>>Begin Spectral Data<<<<<
189.047	388.32
189.435	388.32
189.823	388.32
190.211	8.17
190.599	-96.93
190.987	49.11
191.375	6055.93
191.763	252.72
192.151	11.41
192.538	144.76
192.926	94.47
193.314	62.11
193.702	-1853.71
194.089	65.3
194.477	2.82
194.864	-265.32
195.252	59.26
195.639	106.39
196.027	628.02
196.414	79.32
196.801	109.4
197.189	170.07
197.576	388.14
197.963	-113.52
198.351	15.25
198.738	104.9
199.125	22.89
199.512	2.66
199.899	13.65
200.286	30.21
200.673	1.19
201.06	-9.24
201.447	1.89
201.833	6.46
202.22	58.37
202.607	9.35
202.994	25.66
203.38	40.89
203.767	74.09
204.154	27.82
204.54	39.76
204.927	-37.97
205.313	6.37
205.699	38.21
206.086	40.93
206.472	24.41
206.858	34.32
207.245	-18.16
207.631	22.24
208.017	18.67
208.403	-0.06
208.789	31
209.175	15.85
209.561	-30.93
209.947	56.34
210.333	-23.15
210.719	23.39
211.105	29.91
211.491	6.99
211.876	73.39
212.262	10.3
212.648	54.41
213.034	41.79
213.419	-9.47
213.805	47.6
214.19	-0.2
214.576	43.42
214.961	-13.91
215.346	-8.92
215.732	31.26
216.117	23.88
216.502	22.1
216.888	11.99
217.273	29.69
217.658	43.65
218.043	29.99
218.428	-6.63
218.813	35.54
219.198	-11.25
219.583	-1.41
219.968	17.78
220.353	-11.3
220.738	24.19
221.122	28.53
221.507	1.17
221.892	0.3
222.276	5.71
222.661	7.14
223.046	12.9
223.43	15.8
223.815	26.04
224.199	6.36
224.583	4.94
224.968	6.6
225.352	14.36
225.736	2.9
226.121	-13.17
226.505	5.34
226.889	10.53
227.273	5.54
227.657	15.78
228.041	4.2
228.425	6.92
228.809	8.46
229.193	7.77
229.577	3.75
229.961	4.43
230.344	4.04
230.728	4.58
231.112	3.93
231.495	3.93
231.879	4.74
232.263	5.8
232.646	5.48
233.03	4.21
233.413	3.22
233.797	5.95
234.18	3.8
234.563	3.83
234.946	4.48
235.33	6.3
235.713	5.58
236.096	6.16
236.479	5.02
236.862	3.67
237.245	7.74
237.628	3.89
238.011	6.59
238.394	4.96
238.777	6.69
239.16	5.07
239.543	5.05
239.925	5.22
240.308	4.62
240.691	6.7
241.073	5.4
241.456	4.22
241.838	3.64
242.221	4.53
242.603	4.42
242.986	4.57
243.368	4.08
243.75	5.66
244.133	4.47
244.515	4.44
244.897	4.7
245.279	4.89
245.661	3.94
246.043	3.8
246.425	3.18
246.807	5.15
247.189	5.07
247.571	5.1
247.953	4.66
248.335	4.66
248.717	4.38
249.098	4.07
249.48	4.28
249.862	4.27
250.243	4.22
250.625	4.73
251.006	5.17
251.388	3.26
251.769	3.87
252.151	5.3
252.532	4.44
252.913	4.1
253.295	3.87
253.676	4.38
254.057	4.94
254.438	4.63
254.819	3.94
255.2	5.11
255.581	5.39
255.962	5.3
256.343	5.15
256.724	4.8
257.105	5.22
257.486	5.03
257.867	6.12
258.247	4.99
258.628	4.42
259.009	5.09
259.389	5.35
259.77	4.29
260.15	4.4
260.531	3.59
260.911	4.9
261.292	4.5
261.672	4.32
262.052	4.47
262.432	4.58
262.813	4.67
263.193	4.34
263.573	4.12
263.953	4.71
264.333	4.9
264.713	4.49
265.093	4.06
265.473	4.59
265.853	4.58
266.233	4.58
266.612	2.92
266.992	3.69
267.372	5.55
267.752	3.56
268.131	4.59
268.511	4.93
268.89	4.27
269.27	3.98
269.649	4.35
270.029	4.26
270.408	5.47
270.787	4.1
271.167	5.32
271.546	4.57
271.925	3.62
272.304	4.33
272.683	4.86
273.062	4.19
273.441	4.43
273.82	3.76
274.199	3.88
274.578	4.48
274.957	3.86
275.336	4.37
275.715	3.67
276.093	4.41
276.472	4.65
276.851	4.51
277.229	4.17
277.608	4.22
277.986	3.84
278.365	4.52
278.743	3.66
279.122	4.06
279.5	4.61
279.878	3.96
280.257	3.75
280.635	3.78
281.013	4.01
281.391	4.28
281.769	4.72
282.147	5.03
282.525	4.86
282.903	3.88
283.281	4.39
283.659	4.78
284.037	4.57
284.415	4.55
284.792	4.29
285.17	4.01
285.548	3.87
285.925	4.6
286.303	4.4
286.68	4.01
287.058	3.71
287.435	4.16
287.813	4.17
288.19	4.23
288.567	4.42
288.945	4.11
289.322	4.37
289.699	4.59
290.076	4.35
290.453	4.45
290.83	4.5
291.207	4.29
291.584	4.28
291.961	4.91
292.338	4.52
292.715	5.09
293.092	4.54
293.469	4.4
293.845	4.72
294.222	4.47
294.599	5.19
294.975	4.44
295.352	5.09
295.728	4.65
296.105	4.8
296.481	5.25
296.858	5.12
297.234	4.81
297.61	4.99
297.986	4.9
298.363	5.42
298.739	5.2
299.115	4.92
299.491	5.17
299.867	5.32
300.243	5.39
300.619	4.7
300.995	5.49
301.371	5.51
301.746	5.1
302.122	5.78
302.498	5.38
302.874	5.48
303.249	5.46
303.625	5.69
304	5.66
304.376	6.41
304.751	5.72
305.127	6.11
305.502	5.36
305.878	5.17
306.253	5.64
306.628	6.53
307.003	5.9
307.378	6.41
307.754	6.31
308.129	5.86
308.504	6.16
308.879	6.34
309.254	7.01
309.629	6.9
310.003	6.22
310.378	7.53
310.753	7.06
311.128	6.93
311.502	6.92
311.877	7.01
312.252	6.66
312.626	7.03
313.001	7.01
313.375	7.48
313.75	6.75
314.124	7.58
314.498	7.38
314.873	7.68
315.247	7.81
315.621	7.92
315.995	7.71
316.369	7.86
316.743	8.32
317.117	8.7
317.491	8.19
317.865	8.35
318.239	8.16
318.613	8.65
318.987	8.77
319.361	8.15
319.734	9.12
320.108	9.1
320.482	8.79
320.855	9.27
321.229	9.25
321.602	8.39
321.976	9.21
322.349	9.81
322.723	9.68
323.096	9.63
323.469	9.59
323.843	10.46
324.216	10.3
324.589	10.14
324.962	9.87
325.335	9.51
325.708	9.65
326.081	9.89
326.454	10.54
326.827	10.02
327.2	10.37
327.573	10.56
327.945	10.83
328.318	10.49
328.691	10.26
329.063	10.96
329.436	10.39
329.809	10.96
330.181	10.63
330.553	10.84
330.926	10.91
331.298	10.69
331.671	11.32
332.043	11.75
332.415	11.85
332.787	11.5
333.159	12.2
333.532	11.65
333.904	11.79
334.276	11.56
334.648	11.54
335.02	11.5
335.391	11.79
335.763	11.52
336.135	12.54
336.507	11.98
336.879	11.91
337.25	11.86
337.622	12.22
337.993	11.38
338.365	12.62
338.736	12.79
339.108	12.51
339.479	12.04
339.851	12.47
340.222	12.47
340.593	12.77
340.964	12.82
341.336	13.6
341.707	12.84
342.078	13.6
342.449	13.25
342.82	13.37
343.191	13.27
343.562	13.37
343.933	13.07
344.303	13.53
344.674	13.71
345.045	14.04
345.416	13.63
345.786	13.16
346.157	14.03
346.527	13.65
346.898	13.3
347.268	14.03
347.639	14.01
348.009	13.93
348.38	13.65
348.75	14.07
349.12	14.35
349.49	14.68
349.861	14.35
350.231	14.85
350.601	15.24
350.971	14.51
351.341	14.46
351.711	14.63
352.081	14.65
352.45	14.62
352.82	15.26
353.19	15.35
353.56	14.94
353.929	15.38
354.299	15.42
354.669	14.75
355.038	15.74
355.408	15.58
355.777	15.49
356.147	15.58
356.516	15.38
356.885	16.02
357.254	15.69
357.624	16.22
357.993	16.03
358.362	15.86
358.731	15.98
359.1	16.45
359.469	16.41
359.838	16.55
360.207	15.96
360.576	16.01
360.945	16.54
361.314	16.56
361.682	16.62
362.051	16.36
362.42	16.39
362.788	16.57
363.157	16.75
363.525	16.76
363.894	16.7
364.262	17.06
364.631	16.75
364.999	17.24
365.367	16.7
365.735	17.87
366.104	17.45
366.472	17.46
366.84	17.12
367.208	17.32
367.576	17.53
367.944	17.65
368.312	17.8
368.68	17.18
369.048	17.75
369.416	18.05
369.783	17.66
370.151	18.18
370.519	18.39
370.886	18.12
371.254	18.19
371.621	18.3
371.989	18.53
372.356	17.91
372.724	18.55
373.091	18.19
373.458	18.3
373.826	18.45
374.193	18.72
374.56	18.55
374.927	18.86
375.294	19.35
375.661	18.85
376.028	19.1
376.395	19.21
376.762	19.13
377.129	19.12
377.496	19.37
377.863	19.43
378.229	18.83
378.596	19.2
378.963	19.44
379.329	19.69
379.696	19.84
380.062	20.01
380.429	19.99
380.795	19.53
381.161	19.96
381.528	20.15
381.894	20.13
382.26	19.78
382.626	20.34
382.993	20.22
383.359	20.68
383.725	20.49
384.091	20.43
384.457	20.39
384.823	20.47
385.188	20.87
385.554	20.87
385.92	20.79
386.286	20.81
386.651	21.25
387.017	21.19
387.383	21.22
387.748	20.85
388.114	21.24
388.479	21.39
388.845	21.29
389.21	21.62
389.575	21.79
389.94	21.61
390.306	21.74
390.671	21.76
391.036	21.51
391.401	21.74
391.766	21.51
392.131	21.76
392.496	22.22
392.861	21.89
393.226	22.12
393.591	22.21
393.956	21.82
394.32	21.96
394.685	22.04
395.05	22.32
395.414	22.33
395.779	22.16
396.143	22.51
396.508	22.44
396.872	22.58
397.236	22.57
397.601	22.69
397.965	22.7
398.329	22.76
398.694	22.72
399.058	22.81
399.422	22.69
399.786	23.14
400.15	23.2
400.514	23.07
400.878	23.34
401.242	23.13
401.605	23.26
401.969	23.06
402.333	23.46
402.697	23.5
403.06	23.38
403.424	23.73
403.787	23.54
404.151	23.5
404.514	23.86
404.878	23.58
405.241	23.83
405.604	24.02
405.968	23.83
406.331	24.11
406.694	23.93
407.057	23.6
407.42	23.99
407.783	23.74
408.146	23.87
408.509	24.19
408.872	24.26
409.235	24.28
409.598	24.54
409.961	24.18
410.323	24.82
410.686	24.64
411.049	24.6
411.411	24.48
411.774	24.54
412.136	24.89
412.499	24.31
412.861	24.61
413.223	24.77
413.586	24.81
413.948	24.67
414.31	24.93
414.672	24.89
415.035	25.05
415.397	25.17
415.759	25.38
416.121	25.35
416.483	25.3
416.845	25.45
417.206	25.51
417.568	25.32
417.93	25.35
418.292	25.57
418.653	25.79
419.015	25.42
419.377	25.6
419.738	25.58
420.1	25.57
420.461	25.66
420.822	25.73
421.184	25.78
421.545	25.81
421.906	25.8
422.267	25.82
422.629	25.69
422.99	25.85
423.351	25.85
423.712	25.86
424.073	25.87
424.434	26.08
424.795	26.08
425.155	26.39
425.516	26.25
425.877	26.12
426.238	26.47
426.598	26.44
426.959	26.5
427.32	26.55
427.68	26.71
428.041	26.87
428.401	27.27
428.761	27.15
429.122	27.09
429.482	27.01
429.842	27.55
430.202	27.58
430.563	27.47
430.923	27.76
431.283	28.03
431.643	28.07
432.003	28.07
432.363	27.99
432.722	27.86
433.082	28.1
433.442	27.93
433.802	28.15
434.161	28.46
434.521	28.39
434.881	28.55
435.24	28.45
435.6	28.52
435.959	28.52
436.319	28.49
436.678	28.53
437.037	28.73
437.396	28.93
437.756	29.04
438.115	28.94
438.474	28.96
438.833	29.12
439.192	29.22
439.551	29.47
439.91	29.29
440.269	29.34
440.628	29.42
440.987	29.57
441.345	29.3
441.704	29.54
442.063	29.42
442.421	29.49
442.78	29.49
443.138	29.47
443.497	29.47
443.855	29.68
444.214	30.09
444.572	30.2
444.93	30.01
445.288	29.96
445.647	30.33
446.005	30.14
446.363	30.26
446.721	30.34
447.079	30.21
447.437	30.33
447.795	30.38
448.153	30.16
448.51	30.17
448.868	30.38
449.226	30.33
449.584	30.5
449.941	30.7
450.299	30.7
450.656	30.86
451.014	30.78
451.371	30.96
451.729	31.27
452.086	31.36
452.443	31.42
452.801	31.57
453.158	31.52
453.515	31.35
453.872	31.57
454.229	31.53
454.586	31.56
454.943	31.76
455.3	31.95
455.657	31.93
456.014	31.85
456.371	32
456.727	32.3
457.084	32.17
457.441	32.24
457.797	32.61
458.154	32.27
458.51	32.45
458.867	32.62
459.223	32.54
459.58	32.65
459.936	32.68
460.292	32.89
460.648	32.61
461.005	32.57
461.361	32.56
461.717	32.44
462.073	32.41
462.429	32.4
462.785	32.58
463.141	32.56
463.496	32.88
463.852	33.07
464.208	33.08
464.564	33.39
464.919	33.44
465.275	33.74
465.631	33.76
465.986	33.61
466.342	33.51
466.697	33.51
467.052	33.72
467.408	33.87
467.763	33.85
468.118	34.07
468.473	33.89
468.829	33.95
469.184	33.92
469.539	34.04
469.894	34.12
470.249	34.14
470.603	34.36
470.958	34.37
471.313	34.45
471.668	34.57
472.023	34.43
472.377	34.48
472.732	34.61
473.086	34.48
473.441	34.68
473.795	35.06
474.15	35.07
474.504	34.83
474.859	34.96
475.213	34.66
475.567	34.83
475.921	35.08
476.275	35
476.63	35.27
476.984	35.41
477.338	35.3
477.692	35.27
478.045	35.35
478.399	35.51
478.753	35.31
479.107	35.47
479.461	35.53
479.814	35.45
480.168	35.58
480.521	35.3
480.875	35.57
481.228	35.53
481.582	35.73
481.935	35.77
482.289	35.82
482.642	35.79
482.995	35.84
483.348	35.58
483.701	35.91
484.055	35.62
484.408	35.7
484.761	35.37
485.114	35.25
485.466	34.87
485.819	35.07
486.172	35.14
486.525	34.93
486.878	34.9
487.23	35.17
487.583	35.43
487.936	35.64
488.288	35.68
488.641	35.73
488.993	35.61
489.345	35.64
489.698	35.61
490.05	35.5
490.402	35.62
490.754	35.79
491.107	35.84
491.459	36.21
491.811	36.37
492.163	36.52
492.515	36.63
492.866	36.48
493.218	36.4
493.57	36.16
493.922	36.16
494.274	36.24
494.625	36.47
494.977	36.66
495.328	36.91
495.68	37.19
496.031	37.62
496.383	37.46
496.734	37.7
497.086	37.64
497.437	37.47
497.788	37.79
498.139	37.75
498.49	37.73
498.842	37.64
499.193	37.75
499.544	37.79
499.894	37.77
500.245	37.8
500.596	37.73
500.947	37.97
501.298	38.2
501.648	38.29
501.999	38.34
502.35	38.45
502.7	38.35
503.051	38.25
503.401	38.47
503.752	38.7
504.102	38.69
504.452	38.66
504.803	38.8
505.153	38.95
505.503	38.57
505.853	38.86
506.203	38.99
506.553	38.66
506.903	38.88
507.253	38.99
507.603	38.96
507.953	39.31
508.303	39.18
508.652	39.04
509.002	39.18
509.352	39.26
509.701	39.32
510.051	39.15
510.4	39.02
510.75	39.12
511.099	39.24
511.449	38.96
511.798	39.19
512.147	39.34
512.496	39.27
512.846	39.46
513.195	39.4
513.544	39.43
513.893	39.45
514.242	39.51
514.591	39.49
514.939	39.73
515.288	39.59
515.637	39.66
515.986	40
516.334	39.95
516.683	40.2
517.032	40.03
517.38	40.36
517.729	40.11
518.077	40.03
518.426	40.48
518.774	40.31
519.122	40.3
519.47	40.22
519.819	39.93
520.167	39.91
520.515	39.84
520.863	39.71
521.211	39.81
521.559	39.94
521.907	40.14
522.255	40.23
522.602	40.38
522.95	40.37
523.298	40.47
523.645	40.55
523.993	40.55
524.341	40.84
524.688	40.77
525.036	40.77
525.383	40.83
525.73	41
526.078	40.89
526.425	40.77
526.772	40.79
527.119	41
527.466	40.72
527.814	40.64
528.161	40.62
528.508	40.51
528.854	40.66
529.201	40.71
529.548	40.59
529.895	40.42
530.242	40.2
530.588	40.2
530.935	40.2
531.282	40.09
531.628	40.01
531.975	40.12
532.321	40.48
532.667	40.82
533.014	40.92
533.36	40.97
533.706	41.16
534.052	41.27
534.399	41.05
534.745	41.07
535.091	40.77
535.437	41.06
535.783	41.01
536.129	41
536.474	41.11
536.82	41.39
537.166	41.36
537.512	41.85
537.857	41.67
538.203	41.74
538.549	41.61
538.894	41.55
539.239	41.66
539.585	41.87
539.93	41.79
540.276	42.21
540.621	42.15
540.966	42.32
541.311	42.43
541.656	42.39
542.001	42.39
542.346	42.44
542.691	41.95
543.036	41.72
543.381	41.67
543.726	41.68
544.071	41.68
544.415	41.82
544.76	41.88
545.105	42.08
545.449	42.37
545.794	42.38
546.138	42.25
546.483	42.55
546.827	42.7
547.171	42.88
547.516	42.88
547.86	42.86
548.204	42.86
548.548	42.83
548.892	43.08
549.236	42.8
549.58	42.86
549.924	43.19
550.268	43.2
550.612	43.37
550.956	43.62
551.3	43.58
551.643	43.81
551.987	43.7
552.33	43.74
552.674	43.81
553.017	43.8
553.361	43.62
553.704	43.89
554.048	44
554.391	44.02
554.734	44.02
555.077	43.77
555.42	43.88
555.764	43.86
556.107	43.76
556.45	44.06
556.793	44.12
557.135	44.2
557.478	44.33
557.821	44.54
558.164	44.44
558.507	44.44
558.849	44.39
559.192	44.53
559.534	44.46
559.877	44.7
560.219	44.81
560.562	44.79
560.904	44.65
561.246	44.98
561.589	44.81
561.931	44.79
562.273	44.53
562.615	44.9
562.957	44.76
563.299	44.67
563.641	45.13
563.983	44.84
564.325	44.8
564.667	44.88
565.008	44.95
565.35	45.1
565.692	45.23
566.033	44.8
566.375	45.37
566.716	45.49
567.058	45.1
567.399	45.33
567.741	45.05
568.082	45.37
568.423	45.31
568.764	44.97
569.105	45.14
569.447	45.07
569.788	45.2
570.129	45.31
570.47	45.45
570.811	45.34
571.151	45.49
571.492	45.62
571.833	45.38
572.174	45.52
572.514	45.81
572.855	45.33
573.195	45.95
573.536	45.61
573.876	45.58
574.217	45.37
574.557	45.64
574.898	45.88
575.238	45.93
575.578	45.72
575.918	45.75
576.258	46.04
576.598	45.66
576.938	45.93
577.278	46.03
577.618	45.85
577.958	45.92
578.298	46.12
578.638	46.16
578.977	46.08
579.317	46.18
579.657	46.8
579.996	46.48
580.336	46.53
580.675	46.72
581.014	46.45
581.354	46.62
581.693	46.92
582.032	46.88
582.372	46.75
582.711	46.75
583.05	46.87
583.389	46.91
583.728	46.83
584.067	46.35
584.406	46.95
584.745	46.99
585.083	46.78
585.422	47.34
585.761	47.12
586.1	47.32
586.438	46.84
586.777	47.33
587.115	47.17
587.454	47.32
587.792	47.18
588.13	47.69
588.469	47.48
588.807	47.74
589.145	47.35
589.483	47.62
589.821	47.6
590.159	47.62
590.497	47.5
590.835	47.49
591.173	47.45
591.511	47.88
591.849	47.82
592.187	47.42
592.524	47.69
592.862	47.65
593.2	47.87
593.537	47.46
593.875	47.61
594.212	48.07
594.55	48.04
594.887	47.96
595.224	47.84
595.561	47.58
595.899	48.01
596.236	47.86
596.573	47.99
596.91	47.9
597.247	47.99
597.584	48.15
597.921	47.95
598.258	47.66
598.594	47.81
598.931	48.05
599.268	47.89
599.604	48.09
599.941	47.83
600.277	47.74
600.614	48.09
600.95	48.28
601.287	48.43
601.623	47.82
601.959	48.5
602.296	48.62
602.632	48.57
602.968	48.55
603.304	48.63
603.64	48.71
603.976	48.55
604.312	48.6
604.648	48.62
604.984	48.57
605.319	48.63
605.655	48.68
605.991	48.77
606.326	48.51
606.662	48.6
606.998	48.56
607.333	48.52
607.668	48.49
608.004	48.55
608.339	48.71
608.674	48.67
609.01	48.78
609.345	48.87
609.68	49.19
610.015	49.01
610.35	49.24
610.685	48.93
611.02	48.9
611.355	49.23
611.689	49.16
612.024	49.33
612.359	49.04
612.694	49.26
613.028	49.35
613.363	49.19
613.697	49.29
614.032	49.39
614.366	49.73
614.7	49.64
615.035	49.45
615.369	49.51
615.703	49.6
616.037	49.64
616.371	49.51
616.705	49.96
617.039	49.8
617.373	49.92
617.707	49.88
618.041	50.13
618.375	49.94
618.709	50.01
619.042	50.24
619.376	50.44
619.71	49.82
620.043	49.92
620.377	49.74
620.71	50.07
621.043	49.98
621.377	50.07
621.71	49.98
622.043	50.12
622.376	50.09
622.709	50.26
623.043	50.51
623.376	50.29
623.709	49.79
624.041	50.71
624.374	50.37
624.707	49.83
625.04	50.57
625.373	50.41
625.705	50.43
626.038	51.02
626.37	50.78
626.703	50.67
627.035	49.81
627.368	50.8
627.7	50.47
628.032	50.73
628.365	50.59
628.697	50.61
629.029	50.37
629.361	50.93
629.693	50.7
630.025	51.02
630.357	51.04
630.689	50.49
631.021	51.14
631.353	51.1
631.684	50.59
632.016	50.76
632.348	51.19
632.679	50.84
633.011	51.04
633.342	51.51
633.674	50.77
634.005	51.78
634.336	51.03
634.668	51.13
634.999	51.39
635.33	51.31
635.661	51.73
635.992	51.36
636.323	51.68
636.654	51.46
636.985	51.6
637.316	51.21
637.647	51.54
637.977	51.85
638.308	51.72
638.639	51.3
638.969	51.86
639.3	51.13
639.63	51.55
639.961	51.18
640.291	51.82
640.622	52.15
640.952	51.84
641.282	52.16
641.612	51.87
641.943	51.5
642.273	51.99
642.603	51.99
642.933	51.77
643.263	51.73
643.592	51.99
643.922	51.82
644.252	51.52
644.582	51.28
644.911	51.87
645.241	51.91
645.571	51.55
645.9	52.11
646.23	52.28
646.559	52.31
646.888	52.37
647.218	52.09
647.547	52.33
647.876	51.77
648.205	52.62
648.534	51.99
648.863	51.99
649.192	51.96
649.521	52.39
649.85	51.9
650.179	52.36
650.508	52.4
650.837	52.27
651.165	53.24
651.494	52.51
651.822	52.47
652.151	52.41
652.479	53.25
652.808	52.14
653.136	52.7
653.465	52.51
653.793	52.33
654.121	52.52
654.449	53.23
654.777	52.74
655.105	53.38
655.433	52.7
655.761	52.66
656.089	52.83
656.417	53.37
656.745	52.99
657.073	52.83
657.4	53.1
657.728	53.78
658.056	53.04
658.383	53
658.711	53.04
659.038	53
659.365	53.31
659.693	52.72
660.02	52.86
660.347	53.42
660.674	53.1
661.001	53.15
661.329	53.2
661.656	53.56
661.982	53.49
662.309	53.41
662.636	52.78
662.963	53.04
663.29	53.45
663.616	53.02
663.943	53.24
664.27	53.19
664.596	53.84
664.923	53.2
665.249	53.23
665.576	53.52
665.902	54.15
666.228	53.74
666.554	53.94
666.881	53.82
667.207	53.89
667.533	52.97
667.859	53.46
668.185	53.49
668.511	54.09
668.837	53.1
669.162	53.99
669.488	53.17
669.814	53.51
670.139	53.64
670.465	53.98
670.791	54.14
671.116	53.88
671.442	53.9
671.767	54.1
672.092	53.77
672.418	54.16
672.743	54.07
673.068	53.24
673.393	54.53
673.718	54.11
674.043	54.16
674.368	54.72
674.693	54.9
675.018	54.31
675.343	53.62
675.667	54.29
675.992	55.05
676.317	54.82
676.641	54.18
676.966	54.11
677.29	53.88
677.615	54.06
677.939	54.21
678.264	55.33
678.588	54.56
678.912	53.4
679.236	54.48
679.56	54.3
679.885	54.37
680.209	54.18
680.532	54.63
680.856	54.98
681.18	54.4
681.504	54.57
681.828	54.68
682.152	54.8
682.475	54.94
682.799	55.54
683.122	54.77
683.446	55.07
683.769	54.96
684.093	54.4
684.416	55.53
684.739	55.86
685.062	55.2
685.386	54.63
685.709	54.56
686.032	54.61
686.355	55.08
686.678	54.65
687.001	54.97
687.324	55.67
687.646	54.22
687.969	54.75
688.292	54.92
688.614	55.11
688.937	56.17
689.26	54.57
689.582	55.21
689.904	55.67
690.227	55.02
690.549	54.04
690.871	55.94
691.194	55.61
691.516	55.79
691.838	54.87
692.16	56
692.482	55.57
692.804	55.74
693.126	55.92
693.448	54.92
693.769	56.41
694.091	55.78
694.413	55.24
694.735	55.3
695.056	54.43
695.378	56.21
695.699	56.19
696.021	55.32
696.342	55.71
696.663	55.5
696.984	54.99
697.306	54.25
697.627	56.16
697.948	55.43
698.269	56.32
698.59	55.27
698.911	55.22
699.232	56.52
699.553	55.5
699.873	55.62
700.194	55.97
700.515	56.29
700.835	55.8
701.156	56.45
701.477	55.96
701.797	55.86
702.117	55.7
702.438	56.49
702.758	55.9
703.078	55.62
703.398	56.51
703.719	55.95
704.039	56.2
704.359	55.46
704.679	56.97
704.999	56.12
705.319	55.74
705.638	54.7
705.958	56.85
706.278	57.4
706.597	56.39
706.917	55
707.237	56.02
707.556	56.21
707.876	55.51
708.195	57.59
708.514	55.84
708.834	56.25
709.153	56.19
709.472	57.21
709.791	57.56
710.11	56.59
710.429	57.15
710.748	57.63
711.067	57.1
711.386	57.16
711.705	56.38
712.023	57.51
712.342	56.15
712.661	56.57
712.979	57.2
713.298	56.24
713.616	57.14
713.935	57.57
714.253	56.7
714.572	57.81
714.89	57.02
715.208	57.58
715.526	57.21
715.844	56.4
716.162	57.35
716.48	57.12
716.798	56.03
717.116	58.27
717.434	56.69
717.752	56.79
718.069	57.74
718.387	57.21
718.705	56.87
719.022	55.94
719.34	57.4
719.657	56.55
719.975	57.31
720.292	57.08
720.609	57.35
720.927	56.87
721.244	56.99
721.561	56.87
721.878	58.42
722.195	57.15
722.512	59.18
722.829	56.8
723.146	56.14
723.463	58.26
723.779	57.95
724.096	57.77
724.413	58.52
724.729	57.07
725.046	56.84
725.362	58.06
725.679	58.38
725.995	56.65
726.311	57.39
726.628	56.54
726.944	56.96
727.26	56.73
727.576	56.59
727.892	57.95
728.208	57.69
728.524	57.19
728.84	55.99
729.156	56.65
729.472	57.02
729.787	58.81
730.103	57.86
730.419	58
730.734	58.61
731.05	56.72
731.365	57.5
731.681	59.11
731.996	59.46
732.311	59.06
732.626	58.59
732.942	58.09
733.257	59.13
733.572	58.03
733.887	59.27
734.202	58.17
734.517	57.62
734.832	57.97
735.146	58.66
735.461	58.72
735.776	58.31
736.091	57.75
736.405	58.85
736.72	58.47
737.034	56.47
737.349	59.6
737.663	57.2
737.977	58.07
738.292	57.87
738.606	56.93
738.92	58.77
739.234	60.17
739.548	58.89
739.862	57.29
740.176	57.93
740.49	59.61
740.804	58.61
741.117	57.96
741.431	58.69
741.745	58.46
742.058	58.28
742.372	59.57
742.685	58.68
742.999	59.39
743.312	56.77
743.626	57.82
743.939	59.39
744.252	57.62
744.565	57.14
744.878	57.71
745.191	58.56
745.505	58.14
745.817	58.86
746.13	57.18
746.443	59.47
746.756	59.87
747.069	56.71
747.381	59.6
747.694	57.41
748.007	57.87
748.319	59.27
748.632	59.64
748.944	57.7
749.256	58.86
749.569	56.43
749.881	59.69
750.193	59.28
750.505	58.24
750.817	57.85
751.129	57.55
751.441	58.66
751.753	58.25
752.065	58.86
752.377	56.33
752.689	60.14
753	58.82
753.312	59.2
753.624	58.96
753.935	59.34
754.247	59.79
754.558	58.76
754.869	58.54
755.181	58.55
755.492	58.86
755.803	59.21
756.114	59.63
756.425	60.45
756.736	59.35
757.047	58.76
757.358	59.12
757.669	60.15
757.98	60.12
758.291	60.46
758.601	59.75
758.912	60.99
759.223	60.45
759.533	59.18
759.844	60.97
760.154	58.22
760.464	59.98
760.775	59.51
761.085	60.32
761.395	60.2
761.705	57.85
762.016	61.26
762.326	59.58
762.636	59.36
762.945	58.73
763.255	58.68
763.565	60.12
763.875	59.67
764.185	60.06
764.494	60.77
764.804	59.72
765.113	59.74
765.423	61.16
765.732	60.57
766.042	60.3
766.351	60.43
766.66	60.17
766.97	59.66
767.279	58.73
767.588	58.3
767.897	59.22
768.206	60.06
768.515	59.77
768.824	59.62
769.133	60.17
769.441	61.53
769.75	59.14
770.059	59.41
770.367	61.62
770.676	59.83
770.984	58.8
771.293	60.01
771.601	62.97
771.91	62.56
772.218	58.45
772.526	58.96
772.834	61.49
773.142	61.5
773.45	58.06
773.758	57.55
774.066	58.14
774.374	58.5
774.682	62.91
774.99	62.96
775.298	62.22
775.605	58.27
775.913	56.99
776.22	62.17
776.528	61.69
776.835	58.79
777.143	60.24
777.45	57.65
777.757	63.19
778.065	55.72
778.372	59.47
778.679	54.29
778.986	59.48
779.293	60.46
779.6	63.91
779.907	60.02
780.214	60.89
780.52	63.81
780.827	60.48
781.134	58.66
781.44	59.23
781.747	61.2
782.053	58.82
782.36	59.99
782.666	62.49
782.973	63
783.279	61.18
783.585	56.68
783.891	59.52
784.197	61.13
784.503	61.69
784.809	56.99
785.115	58.89
785.421	62.48
785.727	58.21
786.033	58.07
786.339	59.43
786.644	60.81
786.95	60.14
787.255	61.6
787.561	64.66
787.866	58.51
788.172	64.99
788.477	60.18
788.782	59.67
789.088	60.23
789.393	58.88
789.698	61.01
790.003	62.48
790.308	60.36
790.613	60.76
790.918	64.43
791.223	61.89
791.527	59.56
791.832	64.53
792.137	57.16
792.441	60.63
792.746	60.47
793.05	59.29
793.355	60.92
793.659	64.9
793.963	62.53
794.268	59.53
794.572	56.67
794.876	58.84
795.18	57.84
795.484	59.56
795.788	61.29
796.092	60.91
796.396	64.18
796.7	59.56
797.004	60.18
797.307	56.84
797.611	58.47
797.915	64.69
798.218	61.66
798.522	60.4
798.825	60.98
799.128	56.06
799.432	59.07
799.735	58.34
800.038	57.68
800.341	63.88
800.644	60.15
800.947	61.27
801.25	59.53
801.553	61.71
801.856	54.42
802.159	59.28
802.462	53.95
802.764	58.09
803.067	59.81
803.37	61.73
803.672	58.37
803.975	60.46
804.277	58.41
804.579	55.3
804.882	61.33
805.184	62.26
805.486	56.06
805.788	67.75
806.09	63.52
806.392	62.42
806.694	59.01
806.996	62.09
807.298	58.3
807.6	61.96
807.902	64.79
808.203	60.59
808.505	61.72
808.807	57.79
809.108	62.62
809.409	59.9
809.711	54.1
810.012	62.96
810.313	60.38
810.615	57.79
810.916	57.42
811.217	59.04
811.518	65.69
811.819	61.32
812.12	53.58
812.421	63.48
812.722	62.15
813.023	68.32
813.323	55.75
813.624	62.39
813.925	62.68
814.225	55.46
814.526	55.99
814.826	58.18
815.126	59.68
815.427	59.06
815.727	60.7
816.027	66.01
816.327	57.65
816.627	59.85
816.927	62.08
817.227	67.64
817.527	60.53
817.827	64.46
818.127	57.4
818.427	67.87
818.727	60.98
819.026	67.82
819.326	67.32
819.625	59.37
819.925	51.96
820.224	66.28
820.524	60.96
820.823	63.38
821.122	66.9
821.421	63.15
821.72	55.84
822.019	65.91
822.318	59.92
822.617	63.44
822.916	60.36
823.215	61.99
823.514	66.15
823.813	62.81
824.111	62.15
824.41	63.03
824.709	62.9
825.007	62.5
825.306	63.48
825.604	62.67
825.902	63.83
826.201	61.28
826.499	61.83
826.797	62.43
827.095	62.48
827.393	61.39
827.691	63.18
827.989	59.97
828.287	60.61
828.585	59.34
828.882	62.11
829.18	63.71
829.478	63.51
829.775	62.54
830.073	62.92
830.37	63.39
830.668	63.86
830.965	62.46
831.263	63.3
831.56	63.63
831.857	65.33
832.154	59.42
832.451	62.43
832.748	63.55
833.045	64.58
833.342	63.46
833.639	58.25
833.936	64.4
834.232	61.36
834.529	57.72
834.826	64.25
835.122	63.38
835.419	60.68
835.715	57.41
836.012	64.63
836.308	63.27
836.604	63.14
836.901	62.74
837.197	62.87
837.493	62.11
837.789	59.44
838.085	64.96
838.381	61.6
838.677	63.64
838.972	67.66
839.268	64.66
839.564	62.26
839.86	57.78
840.155	57.49
840.451	68.7
840.746	66.57
841.042	61.77
841.337	61.76
841.632	58.56
841.928	67.48
842.223	47.43
842.518	60.17
842.813	61.18
843.108	64.44
843.403	61.59
843.698	65.95
843.993	65.86
844.287	70.7
844.582	52.41
844.877	60.65
845.171	53.71
845.466	60.17
845.761	69.64
846.055	46.18
846.349	63.57
846.644	60.17
846.938	65.16
847.232	56.81
847.526	64.09
847.82	64.22
848.114	64.08
848.408	56.27
848.702	66.25
848.996	49.17
849.29	59.52
849.584	63.38
849.877	70.91
850.171	61.39
850.465	61.38
850.758	52
851.052	61.38
851.345	56.62
851.638	70.45
851.932	52.47
852.225	55.81
852.518	47.42
852.811	59.46
853.104	53.66
853.397	50.52
853.69	63.7
853.983	64.01
854.276	67.11
854.569	32.6
854.861	54.71
855.154	44.14
855.447	56
855.739	59.12
856.032	44.56
856.324	55.02
856.616	69.55
856.909	63.93
857.201	59.46
857.493	44.44
857.785	71.11
858.077	45.97
858.369	56.69
858.661	50.24
858.953	79.11
859.245	63.51
859.537	70.38
859.829	67.22
860.12	52.34
860.412	64.2
860.703	44.13
860.995	66.21
861.286	78.04
861.578	61.63
861.869	72.86
862.16	39.44
862.452	53.89
862.743	65.75
863.034	45.48
863.325	47.35
863.616	53.33
863.907	54.48
864.198	60.97
864.488	75.51
864.779	76.94
865.07	99.72
865.36	71.55
865.651	42.05
865.941	61.44
866.232	45.31
866.522	55.78
866.813	22.36
867.103	61.61
867.393	37.1
867.683	60.21
867.973	83.27
868.263	74.69
868.553	77.82
868.843	63.85
869.133	37.02
869.423	58.05
869.713	58.42
870.002	39.1
870.292	78.95
870.582	55.73
870.871	51.59
871.161	73.56
871.45	48.88
871.739	54.22
872.029	61.14
872.318	91.81
872.607	80.8
872.896	47.23
873.185	45.25
873.474	24.92
873.763	31.54
874.052	57.66
874.341	70.86
874.63	47.7
874.918	61.13
875.207	45.72
875.496	65.93
875.784	32.62
876.073	9.42
876.361	34.19
876.649	67.64
876.938	44
877.226	65.89
877.514	72.67
877.802	68
878.09	43.63
878.378	50.57
878.666	64.71
878.954	50.63
879.242	81.81
879.53	70.97
879.817	75.33
880.105	73.91
880.392	55.93
880.68	46.26
880.967	65.04
881.255	83.03
881.542	56.87
881.83	13.61
882.117	52.71
882.404	39.52
882.691	75.47
882.978	57.43
883.265	47.72
883.552	82.8
883.839	61.84
884.126	54.58
884.413	71.89
884.699	59.92
884.986	58.66
885.273	61.69
885.559	61.69
885.846	61.69
