Data from 0389_crown_Reflection__2__68.txt Node

Date: Fri Dec 15 16:52:05 CST 2023
User: ToomeyLab
Spectrometer: FLMS14357
Trigger mode: 0
Integration Time (sec): 1.000000E-2
Scans to average: 100
Electric dark correction enabled: true
Nonlinearity correction enabled: false
Boxcar width: 0
XAxis mode: Wavelengths
Number of Pixels in Spectrum: 2048
>>>>>Begin Spectral Data<<<<<
189.047	154.73
189.435	154.73
189.823	154.73
190.211	103.99
190.599	23.1
190.987	100.85
191.375	-6357.63
191.763	110.01
192.151	54.4
192.538	144.3
192.926	28.47
193.314	58.18
193.702	-569.87
194.089	-85.96
194.477	-11.34
194.864	189.32
195.252	57.48
195.639	96
196.027	853.21
196.414	-3.32
196.801	49.49
197.189	204.67
197.576	1994.92
197.963	48.29
198.351	-16.01
198.738	-26.81
199.125	13.27
199.512	14.27
199.899	27.01
200.286	40.45
200.673	9.41
201.06	-29.84
201.447	26.9
201.833	-19.05
202.22	25.64
202.607	25.33
202.994	28.9
203.38	28.79
203.767	12.27
204.154	24.84
204.54	69.62
204.927	28.59
205.313	-12.87
205.699	54.35
206.086	41.04
206.472	22.53
206.858	21.48
207.245	-3.45
207.631	13.93
208.017	11.97
208.403	3.26
208.789	10.35
209.175	18.49
209.561	-20.55
209.947	24.2
210.333	1.19
210.719	34.49
211.105	29.73
211.491	1.22
211.876	25.52
212.262	35.2
212.648	14.42
213.034	16.12
213.419	-8.39
213.805	35.61
214.19	-26.33
214.576	18.32
214.961	-12.82
215.346	-40.11
215.732	32.12
216.117	11.7
216.502	-6.57
216.888	16.51
217.273	19.03
217.658	-21.08
218.043	25.88
218.428	5.99
218.813	-15.05
219.198	4.52
219.583	32.76
219.968	16.85
220.353	-15.05
220.738	21.74
221.122	17.14
221.507	-0.03
221.892	-9.05
222.276	-1.8
222.661	12.17
223.046	5.33
223.43	13.31
223.815	13.05
224.199	-8.51
224.583	10.87
224.968	13.33
225.352	18.76
225.736	-0.01
226.121	7.97
226.505	11.03
226.889	7.2
227.273	7.24
227.657	5.22
228.041	3.76
228.425	2.84
228.809	9.57
229.193	6.59
229.577	3.41
229.961	6.96
230.344	4.22
230.728	3.57
231.112	4.38
231.495	3.1
231.879	2.53
232.263	5.45
232.646	5.48
233.03	6.08
233.413	2.09
233.797	6.09
234.18	3.22
234.563	5.88
234.946	4.75
235.33	4.88
235.713	4.07
236.096	3.97
236.479	5.42
236.862	3.01
237.245	7.65
237.628	4.99
238.011	3.96
238.394	4.5
238.777	4.02
239.16	3.25
239.543	4.42
239.925	4.88
240.308	4.31
240.691	6.36
241.073	5.55
241.456	4.85
241.838	3.21
242.221	3.99
242.603	5.45
242.986	4.82
243.368	4
243.75	4.57
244.133	4.21
244.515	4.53
244.897	4.1
245.279	4.22
245.661	4.36
246.043	3.27
246.425	2.77
246.807	5.51
247.189	3.83
247.571	4.7
247.953	4.38
248.335	3.85
248.717	4.32
249.098	3.89
249.48	3.98
249.862	4.15
250.243	3.83
250.625	3.96
251.006	4.23
251.388	3.09
251.769	3.69
252.151	5.45
252.532	4.83
252.913	4.07
253.295	3.15
253.676	4.38
254.057	4.34
254.438	4.12
254.819	3.78
255.2	3.16
255.581	4.54
255.962	2.76
256.343	5.14
256.724	3.53
257.105	4.25
257.486	4.04
257.867	4.64
258.247	2.87
258.628	4.65
259.009	4.11
259.389	4.21
259.77	3.68
260.15	3.32
260.531	3.29
260.911	4.57
261.292	3.78
261.672	4.04
262.052	3.77
262.432	4.08
262.813	4.12
263.193	3.65
263.573	3.29
263.953	3.6
264.333	4.15
264.713	4.29
265.093	4.17
265.473	4.27
265.853	2.91
266.233	4.32
266.612	2.82
266.992	3.1
267.372	3.66
267.752	4.13
268.131	3.78
268.511	4.34
268.89	4.23
269.27	3.41
269.649	3.67
270.029	3.59
270.408	4.68
270.787	4.38
271.167	3.69
271.546	4.35
271.925	3.66
272.304	3.91
272.683	3.93
273.062	3.47
273.441	4.12
273.82	3.37
274.199	4.28
274.578	4.07
274.957	3.31
275.336	3.61
275.715	3.36
276.093	3.47
276.472	3.7
276.851	3.18
277.229	3.7
277.608	3.24
277.986	3.4
278.365	3.49
278.743	2.48
279.122	3.69
279.5	3.58
279.878	4.14
280.257	2.98
280.635	3.61
281.013	3.48
281.391	4.28
281.769	3.76
282.147	3.64
282.525	4.44
282.903	3.83
283.281	3.81
283.659	3.6
284.037	3.5
284.415	3.84
284.792	4.11
285.17	3.15
285.548	3.43
285.925	4.03
286.303	3.5
286.68	3.59
287.058	3.44
287.435	3.55
287.813	3.83
288.19	3.77
288.567	3.51
288.945	3.92
289.322	3.62
289.699	3.37
290.076	3.56
290.453	3.6
290.83	3.69
291.207	3.67
291.584	4.09
291.961	4.04
292.338	3.36
292.715	4.19
293.092	3.38
293.469	3.42
293.845	3.97
294.222	3.26
294.599	3.4
294.975	3.26
295.352	4
295.728	3.94
296.105	4.19
296.481	3.83
296.858	3.55
297.234	3.66
297.61	3.66
297.986	3.93
298.363	3.84
298.739	3.81
299.115	3.59
299.491	3.2
299.867	3.97
300.243	3.93
300.619	3.63
300.995	3.68
301.371	4.12
301.746	3.32
302.122	4.48
302.498	3.86
302.874	4.13
303.249	4
303.625	3.87
304	4.13
304.376	3.97
304.751	3.05
305.127	4.14
305.502	3.44
305.878	3.26
306.253	3.69
306.628	4.24
307.003	3.95
307.378	4.19
307.754	3.87
308.129	3.23
308.504	3.95
308.879	2.96
309.254	4.8
309.629	4.32
310.003	3.97
310.378	3.86
310.753	3.92
311.128	4.14
311.502	4.23
311.877	4.08
312.252	3.22
312.626	3.82
313.001	3.8
313.375	4.19
313.75	3.77
314.124	3.78
314.498	3.85
314.873	3.8
315.247	3.55
315.621	4.2
315.995	3.23
316.369	4.05
316.743	3.81
317.117	3.99
317.491	3.58
317.865	4.05
318.239	4.39
318.613	3.8
318.987	3.97
319.361	3.41
319.734	3.97
320.108	3.77
320.482	3.58
320.855	4.15
321.229	4.11
321.602	3.9
321.976	4.06
322.349	3.76
322.723	3.48
323.096	4.1
323.469	3.03
323.843	3.63
324.216	4.16
324.589	4.11
324.962	3.82
325.335	3.92
325.708	4.22
326.081	3.73
326.454	4.1
326.827	3.88
327.2	3.39
327.573	4.32
327.945	3.96
328.318	3.68
328.691	3.43
329.063	3.95
329.436	3.5
329.809	3.62
330.181	3.29
330.553	3.56
330.926	3.87
331.298	4.17
331.671	3.82
332.043	4.43
332.415	4.78
332.787	3.66
333.159	4.5
333.532	3.86
333.904	3.76
334.276	4.13
334.648	3.64
335.02	4.05
335.391	3.25
335.763	3.22
336.135	3.51
336.507	4.16
336.879	4.01
337.25	3.63
337.622	3.63
337.993	3.82
338.365	3.75
338.736	4.14
339.108	3.55
339.479	3.7
339.851	4.24
340.222	3.81
340.593	4.02
340.964	3.42
341.336	4.4
341.707	3.65
342.078	4.52
342.449	3.73
342.82	4.1
343.191	3.87
343.562	4.3
343.933	4.25
344.303	4.07
344.674	3.44
345.045	3.94
345.416	4.19
345.786	3.64
346.157	4.05
346.527	3.65
346.898	3.67
347.268	4.15
347.639	3.95
348.009	4.23
348.38	3.82
348.75	3.58
349.12	3.71
349.49	4.35
349.861	4.21
350.231	3.86
350.601	4.1
350.971	4.05
351.341	3.83
351.711	4.14
352.081	4.32
352.45	3.48
352.82	3.89
353.19	3.81
353.56	3.71
353.929	3.78
354.299	3.73
354.669	3.8
355.038	4.31
355.408	3.8
355.777	4.22
356.147	3.88
356.516	3.95
356.885	4.55
357.254	4.04
357.624	4.17
357.993	3.6
358.362	3.67
358.731	3.7
359.1	3.91
359.469	4.02
359.838	3.79
360.207	3.67
360.576	3.7
360.945	4.17
361.314	4.34
361.682	3.94
362.051	3.72
362.42	3.93
362.788	3.72
363.157	4.24
363.525	4.04
363.894	3.92
364.262	4.08
364.631	3.75
364.999	3.66
365.367	3.56
365.735	4.61
366.104	4.15
366.472	3.78
366.84	3.8
367.208	3.54
367.576	3.83
367.944	3.89
368.312	4.13
368.68	3.7
369.048	4.11
369.416	4.06
369.783	3.73
370.151	4.12
370.519	4.2
370.886	4.39
371.254	3.63
371.621	4.51
371.989	4.16
372.356	3.75
372.724	4.15
373.091	3.44
373.458	4
373.826	3.9
374.193	4.02
374.56	4.01
374.927	3.91
375.294	3.88
375.661	3.25
376.028	3.58
376.395	3.7
376.762	3.74
377.129	4.08
377.496	3.89
377.863	3.62
378.229	3.85
378.596	4.06
378.963	3.72
379.329	3.87
379.696	4.15
380.062	4.21
380.429	4.06
380.795	3.79
381.161	3.77
381.528	4.35
381.894	3.89
382.26	3.76
382.626	4.08
382.993	3.67
383.359	4.18
383.725	3.64
384.091	3.91
384.457	4.27
384.823	3.84
385.188	4.15
385.554	3.88
385.92	4.2
386.286	4.25
386.651	4.15
387.017	4.35
387.383	3.94
387.748	4.12
388.114	4.26
388.479	3.78
388.845	3.97
389.21	4.02
389.575	3.7
389.94	3.95
390.306	3.92
390.671	4.11
391.036	3.49
391.401	3.72
391.766	3.95
392.131	4.28
392.496	4.12
392.861	3.94
393.226	4.11
393.591	4.09
393.956	3.78
394.32	3.98
394.685	3.79
395.05	3.97
395.414	3.96
395.779	3.65
396.143	3.99
396.508	4.15
396.872	4.16
397.236	4.21
397.601	3.79
397.965	4.07
398.329	4.18
398.694	4.28
399.058	4.22
399.422	4.15
399.786	4.12
400.15	4.17
400.514	4.12
400.878	4.16
401.242	4.12
401.605	4.14
401.969	4.23
402.333	4.11
402.697	4.09
403.06	4.21
403.424	4.01
403.787	4.08
404.151	4.14
404.514	4.23
404.878	4.01
405.241	4.27
405.604	4.27
405.968	4.22
406.331	4.16
406.694	4.48
407.057	4.04
407.42	4.12
407.783	3.96
408.146	4.24
408.509	4.17
408.872	4.13
409.235	4.17
409.598	4.29
409.961	4.18
410.323	4.01
410.686	4.2
411.049	3.98
411.411	4.27
411.774	4.08
412.136	4.11
412.499	4.1
412.861	4.03
413.223	4.04
413.586	4.34
413.948	4.32
414.31	4.15
414.672	4.03
415.035	3.96
415.397	4.4
415.759	3.9
416.121	4.17
416.483	4.07
416.845	4.14
417.206	3.99
417.568	4.21
417.93	4.15
418.292	4.14
418.653	4.08
419.015	4.18
419.377	4.04
419.738	4.18
420.1	4.08
420.461	4.14
420.822	4.04
421.184	4.18
421.545	4.09
421.906	4.14
422.267	4.09
422.629	4.06
422.99	4.07
423.351	4
423.712	4.16
424.073	4.05
424.434	4.04
424.795	4.07
425.155	4.19
425.516	4.01
425.877	4.07
426.238	4.09
426.598	4.12
426.959	4.08
427.32	4.08
427.68	4.19
428.041	4.17
428.401	4.3
428.761	4.07
429.122	4.25
429.482	4.21
429.842	4.4
430.202	4.31
430.563	4.11
430.923	4.24
431.283	4.42
431.643	4.23
432.003	4.22
432.363	4.24
432.722	4.07
433.082	4.16
433.442	4.32
433.802	4.16
434.161	4.29
434.521	4.36
434.881	4.47
435.24	4.16
435.6	4.35
435.959	4.25
436.319	4.22
436.678	4.25
437.037	4.36
437.396	4.31
437.756	4.33
438.115	4.08
438.474	4.44
438.833	4.06
439.192	4.36
439.551	4.42
439.91	4.35
440.269	4.33
440.628	4.27
440.987	4.45
441.345	4.19
441.704	4.33
442.063	4.21
442.421	4.2
442.78	4.19
443.138	4.25
443.497	4.24
443.855	4.23
444.214	4.31
444.572	4.42
444.93	4.35
445.288	4.43
445.647	4.37
446.005	4.35
446.363	4.32
446.721	4.37
447.079	4.3
447.437	4.37
447.795	4.39
448.153	4.1
448.51	4.16
448.868	4.42
449.226	4.32
449.584	4.29
449.941	4.43
450.299	4.42
450.656	4.37
451.014	4.44
451.371	4.33
451.729	4.28
452.086	4.52
452.443	4.42
452.801	4.49
453.158	4.46
453.515	4.34
453.872	4.41
454.229	4.4
454.586	4.28
454.943	4.41
455.3	4.38
455.657	4.4
456.014	4.33
456.371	4.36
456.727	4.46
457.084	4.71
457.441	4.47
457.797	4.56
458.154	4.58
458.51	4.55
458.867	4.52
459.223	4.55
459.58	4.52
459.936	4.53
460.292	4.54
460.648	4.46
461.005	4.5
461.361	4.49
461.717	4.52
462.073	4.34
462.429	4.37
462.785	4.48
463.141	4.41
463.496	4.5
463.852	4.53
464.208	4.52
464.564	4.55
464.919	4.57
465.275	4.72
465.631	4.58
465.986	4.61
466.342	4.35
466.697	4.54
467.052	4.55
467.408	4.54
467.763	4.47
468.118	4.58
468.473	4.57
468.829	4.43
469.184	4.54
469.539	4.54
469.894	4.67
470.249	4.78
470.603	4.75
470.958	4.65
471.313	4.68
471.668	4.71
472.023	4.55
472.377	4.55
472.732	4.54
473.086	4.4
473.441	4.46
473.795	4.57
474.15	4.59
474.504	4.65
474.859	4.69
475.213	4.53
475.567	4.83
475.921	4.49
476.275	4.66
476.63	4.72
476.984	4.76
477.338	4.64
477.692	4.43
478.045	4.56
478.399	4.76
478.753	4.73
479.107	4.56
479.461	4.54
479.814	4.68
480.168	4.67
480.521	4.61
480.875	4.62
481.228	4.57
481.582	4.67
481.935	4.66
482.289	4.72
482.642	4.74
482.995	4.63
483.348	4.56
483.701	4.71
484.055	4.63
484.408	4.77
484.761	4.56
485.114	4.51
485.466	4.44
485.819	4.44
486.172	4.39
486.525	4.42
486.878	4.43
487.23	4.48
487.583	4.55
487.936	4.61
488.288	4.59
488.641	4.66
488.993	4.48
489.345	4.52
489.698	4.5
490.05	4.5
490.402	4.53
490.754	4.56
491.107	4.6
491.459	4.67
491.811	4.63
492.163	4.69
492.515	4.66
492.866	4.71
493.218	4.67
493.57	4.56
493.922	4.53
494.274	4.65
494.625	4.63
494.977	4.71
495.328	4.78
495.68	4.73
496.031	4.93
496.383	4.73
496.734	4.98
497.086	4.91
497.437	4.72
497.788	4.86
498.139	4.74
498.49	4.92
498.842	4.79
499.193	4.72
499.544	4.89
499.894	4.85
500.245	4.92
500.596	4.82
500.947	4.91
501.298	4.87
501.648	4.96
501.999	5.13
502.35	4.91
502.7	4.96
503.051	4.75
503.401	4.77
503.752	4.86
504.102	4.88
504.452	4.88
504.803	4.77
505.153	5.06
505.503	4.97
505.853	4.91
506.203	4.88
506.553	4.93
506.903	4.92
507.253	4.96
507.603	4.9
507.953	5.01
508.303	5.21
508.652	4.87
509.002	4.95
509.352	5.09
509.701	4.83
510.051	4.93
510.4	4.84
510.75	4.92
511.099	4.94
511.449	4.91
511.798	4.92
512.147	5
512.496	4.88
512.846	4.9
513.195	4.94
513.544	5.03
513.893	5.04
514.242	4.93
514.591	5.24
514.939	5
515.288	4.88
515.637	5.01
515.986	5.04
516.334	5.07
516.683	5.15
517.032	5.05
517.38	5.13
517.729	5.2
518.077	4.97
518.426	5.09
518.774	5.18
519.122	5.02
519.47	5
519.819	4.9
520.167	5.04
520.515	5.03
520.863	5.01
521.211	5.06
521.559	5.09
521.907	5.03
522.255	5.08
522.602	5.16
522.95	5.04
523.298	5.07
523.645	5.18
523.993	5.03
524.341	5.14
524.688	5.12
525.036	5.05
525.383	5.09
525.73	5.33
526.078	5.21
526.425	5.14
526.772	5.18
527.119	5.11
527.466	5.12
527.814	5.16
528.161	5.17
528.508	5.1
528.854	5.05
529.201	5.09
529.548	5.06
529.895	5.04
530.242	4.97
530.588	4.9
530.935	4.98
531.282	5
531.628	4.95
531.975	5.01
532.321	4.96
532.667	5.07
533.014	5.14
533.36	5.14
533.706	5.19
534.052	5.08
534.399	5.11
534.745	5.15
535.091	5.08
535.437	5.06
535.783	5.08
536.129	5.12
536.474	5.12
536.82	5.15
537.166	5.19
537.512	5.21
537.857	5.1
538.203	5.25
538.549	5.23
538.894	5.26
539.239	5.26
539.585	5.21
539.93	5.17
540.276	5.32
540.621	5.38
540.966	5.34
541.311	5.2
541.656	5.31
542.001	5.35
542.346	5.35
542.691	5.23
543.036	5.21
543.381	5.06
543.726	5.14
544.071	5.15
544.415	5.2
544.76	5.14
545.105	5.18
545.449	5.26
545.794	5.33
546.138	5.27
546.483	5.34
546.827	5.35
547.171	5.34
547.516	5.39
547.86	5.24
548.204	5.26
548.548	5.36
548.892	5.34
549.236	5.41
549.58	5.33
549.924	5.35
550.268	5.45
550.612	5.61
550.956	5.55
551.3	5.4
551.643	5.53
551.987	5.65
552.33	5.51
552.674	5.57
553.017	5.38
553.361	5.44
553.704	5.62
554.048	5.19
554.391	5.5
554.734	5.35
555.077	5.53
555.42	5.35
555.764	5.3
556.107	5.31
556.45	5.4
556.793	5.41
557.135	5.46
557.478	5.56
557.821	5.66
558.164	5.33
558.507	5.61
558.849	5.45
559.192	5.64
559.534	5.59
559.877	5.49
560.219	5.57
560.562	5.9
560.904	5.55
561.246	5.6
561.589	5.57
561.931	5.54
562.273	5.48
562.615	5.7
562.957	5.58
563.299	5.58
563.641	5.64
563.983	5.78
564.325	5.48
564.667	5.63
565.008	5.61
565.35	5.54
565.692	5.41
566.033	5.44
566.375	5.6
566.716	5.63
567.058	5.66
567.399	5.61
567.741	5.55
568.082	5.66
568.423	5.6
568.764	5.51
569.105	5.7
569.447	5.77
569.788	5.72
570.129	5.78
570.47	5.62
570.811	5.75
571.151	5.91
571.492	5.86
571.833	5.64
572.174	5.58
572.514	5.83
572.855	5.64
573.195	5.73
573.536	5.73
573.876	5.62
574.217	5.51
574.557	5.75
574.898	5.85
575.238	5.77
575.578	5.7
575.918	5.86
576.258	5.76
576.598	5.79
576.938	5.71
577.278	5.7
577.618	5.68
577.958	5.69
578.298	5.7
578.638	5.64
578.977	5.7
579.317	5.53
579.657	5.79
579.996	5.69
580.336	5.71
580.675	5.7
581.014	5.83
581.354	5.97
581.693	5.87
582.032	5.75
582.372	5.87
582.711	5.63
583.05	5.76
583.389	5.67
583.728	5.73
584.067	6.16
584.406	5.93
584.745	6.1
585.083	5.86
585.422	5.87
585.761	5.98
586.1	6.08
586.438	5.92
586.777	6.15
587.115	6.06
587.454	5.97
587.792	5.95
588.13	6.26
588.469	6
588.807	5.87
589.145	5.86
589.483	6.08
589.821	5.85
590.159	5.9
590.497	6.28
590.835	6.43
591.173	6.15
591.511	5.99
591.849	5.99
592.187	6.07
592.524	6.04
592.862	5.9
593.2	6.21
593.537	5.87
593.875	5.99
594.212	5.88
594.55	6.08
594.887	5.93
595.224	5.92
595.561	5.86
595.899	5.93
596.236	6.1
596.573	6.07
596.91	5.75
597.247	5.81
597.584	6.32
597.921	6.15
598.258	6.01
598.594	6.14
598.931	6.1
599.268	5.92
599.604	5.98
599.941	6
600.277	6.02
600.614	5.9
600.95	5.83
601.287	6.19
601.623	6.1
601.959	5.87
602.296	6.31
602.632	5.89
602.968	6.21
603.304	6.13
603.64	6.06
603.976	6.34
604.312	5.86
604.648	6.01
604.984	6.14
605.319	6.08
605.655	6.06
605.991	6.16
606.326	6.05
606.662	6.08
606.998	5.95
607.333	5.93
607.668	6.13
608.004	6.1
608.339	6.47
608.674	6.23
609.01	5.96
609.345	5.69
609.68	6.51
610.015	6.06
610.35	6.05
610.685	5.97
611.02	6.08
611.355	6.24
611.689	6.15
612.024	6.33
612.359	6.15
612.694	6.05
613.028	6.03
613.363	6.21
613.697	6.04
614.032	6.28
614.366	5.94
614.7	6.44
615.035	6.24
615.369	6.34
615.703	6.19
616.037	6.34
616.371	5.96
616.705	6.03
617.039	6.38
617.373	6.2
617.707	5.95
618.041	6.3
618.375	6.37
618.709	6.44
619.042	6.18
619.376	6.52
619.71	6.58
620.043	6.85
620.377	6.4
620.71	6.47
621.043	6.34
621.377	6.29
621.71	6.43
622.043	5.92
622.376	6.05
622.709	6.22
623.043	6.4
623.376	6.32
623.709	6.27
624.041	6.85
624.374	6.4
624.707	6.43
625.04	6.51
625.373	6.45
625.705	6.23
626.038	6.26
626.37	6.45
626.703	6.38
627.035	6.35
627.368	6.74
627.7	6.31
628.032	6.31
628.365	6.67
628.697	6.39
629.029	6.29
629.361	6.33
629.693	6.56
630.025	6.34
630.357	6.58
630.689	6.46
631.021	6.38
631.353	6.72
631.684	6.15
632.016	6.07
632.348	6.31
632.679	6.67
633.011	6.42
633.342	6.6
633.674	6.52
634.005	6.61
634.336	6.13
634.668	6.89
634.999	6.35
635.33	6.79
635.661	6.66
635.992	6.46
636.323	6.63
636.654	6.9
636.985	6.47
637.316	6.39
637.647	6.52
637.977	6.46
638.308	6.61
638.639	6.22
638.969	6.62
639.3	6.14
639.63	6
639.961	6.61
640.291	6.5
640.622	6.94
640.952	6.77
641.282	6.93
641.612	6.85
641.943	6.37
642.273	6.6
642.603	7.03
642.933	6.49
643.263	6.81
643.592	6.43
643.922	6.24
644.252	6.65
644.582	6.92
644.911	5.96
645.241	6.65
645.571	6.35
645.9	6.45
646.23	6.38
646.559	6.69
646.888	6.57
647.218	6.32
647.547	7.06
647.876	6.16
648.205	6.9
648.534	6.55
648.863	6.6
649.192	6.81
649.521	6.69
649.85	6.26
650.179	7.14
650.508	6.56
650.837	6.77
651.165	6.88
651.494	6.8
651.822	6.73
652.151	6.81
652.479	7.03
652.808	6.63
653.136	7.14
653.465	6.53
653.793	6.2
654.121	6.08
654.449	7.17
654.777	6.95
655.105	6.92
655.433	6.63
655.761	6.67
656.089	6.83
656.417	6.91
656.745	6.48
657.073	6.44
657.4	7.58
657.728	6.82
658.056	6.83
658.383	7.21
658.711	7.24
659.038	6.95
659.365	7.04
659.693	7.27
660.02	6.79
660.347	7.02
660.674	7.32
661.001	7.16
661.329	6.36
661.656	7.05
661.982	6.92
662.309	6.72
662.636	6.89
662.963	7.14
663.29	7.01
663.616	7.35
663.943	6.73
664.27	6.54
664.596	6.89
664.923	6.92
665.249	7.15
665.576	7.6
665.902	7.02
666.228	7.3
666.554	7.16
666.881	6.97
667.207	6.99
667.533	6.98
667.859	6.86
668.185	7.11
668.511	7.14
668.837	6.37
669.162	6.97
669.488	6.67
669.814	7.32
670.139	7.24
670.465	7.23
670.791	7.75
671.116	7.76
671.442	7.1
671.767	7.42
672.092	7
672.418	6.54
672.743	7.22
673.068	6.79
673.393	7.33
673.718	7.14
674.043	7.51
674.368	7.08
674.693	7.99
675.018	6.92
675.343	7.34
675.667	6.83
675.992	7.44
676.317	7.6
676.641	7.35
676.966	7.36
677.29	6.63
677.615	7.42
677.939	8.52
678.264	8.18
678.588	7.25
678.912	7.58
679.236	7.84
679.56	6.44
679.885	8.07
680.209	7.13
680.532	6.9
680.856	8.01
681.18	7.48
681.504	7.34
681.828	7.65
682.152	7
682.475	7.55
682.799	7.48
683.122	7.37
683.446	7.3
683.769	7.61
684.093	6.97
684.416	7.87
684.739	7.17
685.062	7.34
685.386	7.79
685.709	7.59
686.032	7.55
686.355	7.53
686.678	7.38
687.001	7.43
687.324	7.86
687.646	7.09
687.969	7.08
688.292	7.65
688.614	7.77
688.937	8.19
689.26	7.59
689.582	7.46
689.904	6.98
690.227	7.06
690.549	7.44
690.871	8.02
691.194	7.03
691.516	7.51
691.838	8.03
692.16	6.92
692.482	7.11
692.804	7.95
693.126	7.73
693.448	7.93
693.769	8.79
694.091	7.68
694.413	8.08
694.735	6.92
695.056	7.51
695.378	7.24
695.699	6.64
696.021	7.36
696.342	6.93
696.663	6.91
696.984	7.25
697.306	5.59
697.627	7.14
697.948	7.85
698.269	8.35
698.59	7.77
698.911	7.47
699.232	7.94
699.553	8.14
699.873	8.04
700.194	8.51
700.515	7.82
700.835	7.42
701.156	8.27
701.477	7.26
701.797	7.58
702.117	7.8
702.438	7.71
702.758	8.11
703.078	8.05
703.398	7.28
703.719	7.45
704.039	6.93
704.359	8.53
704.679	7.21
704.999	8.02
705.319	7.5
705.638	7.41
705.958	8.58
706.278	7.69
706.597	7.15
706.917	7.47
707.237	8.34
707.556	8.15
707.876	7.81
708.195	8.79
708.514	8.35
708.834	7.29
709.153	7.47
709.472	8.82
709.791	8.16
710.11	7.37
710.429	8.74
710.748	8.84
711.067	7.25
711.386	8.44
711.705	7.76
712.023	7.99
712.342	7.39
712.661	7.73
712.979	7.47
713.298	8.47
713.616	7.84
713.935	7.94
714.253	6.97
714.572	8.34
714.89	8.81
715.208	9.75
715.526	8.16
715.844	8.39
716.162	8.63
716.48	8.85
716.798	7.95
717.116	7.84
717.434	8.5
717.752	6.73
718.069	8.54
718.387	7.61
718.705	8.84
719.022	6.46
719.34	8.13
719.657	7.44
719.975	8.88
720.292	8.62
720.609	8.18
720.927	7.19
721.244	8.29
721.561	8.33
721.878	8.31
722.195	8.45
722.512	9.47
722.829	8.6
723.146	6.94
723.463	8.94
723.779	8.14
724.096	8.71
724.413	7.97
724.729	7.98
725.046	7.16
725.362	7.86
725.679	8.25
725.995	7.92
726.311	7.14
726.628	8.79
726.944	9.65
727.26	9.76
727.576	8.22
727.892	7.44
728.208	8.29
728.524	7.38
728.84	7.7
729.156	8.64
729.472	7.75
729.787	7.19
730.103	9.17
730.419	8.33
730.734	8.27
731.05	8.51
731.365	7.82
731.681	7.78
731.996	8.76
732.311	8.92
732.626	8.64
732.942	7.35
733.257	9.45
733.572	8.95
733.887	8.11
734.202	8.39
734.517	8.86
734.832	9.97
735.146	8.04
735.461	8.26
735.776	8.23
736.091	8.31
736.405	8.71
736.72	8.7
737.034	8.15
737.349	10.03
737.663	8.13
737.977	9.26
738.292	7.98
738.606	8.56
738.92	10.14
739.234	8.57
739.548	8.85
739.862	6.56
740.176	8.04
740.49	9.5
740.804	11.23
741.117	8.14
741.431	9.05
741.745	8.06
742.058	8.47
742.372	8.5
742.685	8.7
742.999	8.84
743.312	9.87
743.626	10.9
743.939	8.72
744.252	9.69
744.565	9.29
744.878	9.57
745.191	8.15
745.505	9.08
745.817	10.42
746.13	7.99
746.443	8
746.756	10.29
747.069	9.33
747.381	10.89
747.694	7.14
748.007	8.04
748.319	8.01
748.632	10.47
748.944	7.29
749.256	8.15
749.569	7.6
749.881	9.58
750.193	8.85
750.505	8.97
750.817	8.98
751.129	9.5
751.441	8.49
751.753	10.86
752.065	9.04
752.377	8.38
752.689	10.5
753	8.73
753.312	7.74
753.624	9.78
753.935	9.02
754.247	10.17
754.558	10.38
754.869	8.3
755.181	11.24
755.492	10.03
755.803	9.51
756.114	9.32
756.425	8.99
756.736	7.43
757.047	10.59
757.358	9.6
757.669	9.2
757.98	9.21
758.291	9.36
758.601	10.35
758.912	7.38
759.223	10.73
759.533	7.31
759.844	8.93
760.154	10.45
760.464	9
760.775	9.29
761.085	8.97
761.395	9.71
761.705	8.82
762.016	10.77
762.326	9.26
762.636	11.12
762.945	9.07
763.255	8.72
763.565	9.56
763.875	9.54
764.185	9.59
764.494	10.48
764.804	9.83
765.113	10.13
765.423	9.08
765.732	8.36
766.042	8.61
766.351	8.29
766.66	9.89
766.97	10.77
767.279	8
767.588	10.56
767.897	10.75
768.206	8.39
768.515	8.86
768.824	10
769.133	9.93
769.441	10.6
769.75	9.08
770.059	10.68
770.367	10.94
770.676	10.35
770.984	10.67
771.293	6.85
771.601	10.87
771.91	6.78
772.218	9.07
772.526	9.52
772.834	11.15
773.142	9.55
773.45	9.53
773.758	10.25
774.066	10.87
774.374	9.1
774.682	12.59
774.99	12.21
775.298	8.74
775.605	10.8
775.913	7.95
776.22	13.58
776.528	11.58
776.835	11.16
777.143	11
777.45	8.17
777.757	10.31
778.065	9.99
778.372	9.58
778.679	5.08
778.986	12.97
779.293	8.63
779.6	12.21
779.907	11.08
780.214	11.46
780.52	11
780.827	12.52
781.134	9.94
781.44	7.11
781.747	11.59
782.053	8.14
782.36	8.66
782.666	10.93
782.973	11.28
783.279	11.8
783.585	12.15
783.891	9.26
784.197	10.64
784.503	11.86
784.809	8.87
785.115	16.61
785.421	14.07
785.727	11.35
786.033	9.49
786.339	10.52
786.644	10.49
786.95	9.75
787.255	10.48
787.561	14.01
787.866	14.35
788.172	7.93
788.477	8.39
788.782	13.29
789.088	16.29
789.393	11.05
789.698	9.49
790.003	10.23
790.308	10.44
790.613	9.84
790.918	9.85
791.223	10.78
791.527	5.78
791.832	14.55
792.137	10.19
792.441	11.6
792.746	11.31
793.05	10.68
793.355	11.07
793.659	14.72
793.963	12.42
794.268	10.94
794.572	14.65
794.876	11.07
795.18	10.38
795.484	11.06
795.788	9.69
796.092	9.71
796.396	10.02
796.7	8.19
797.004	12.07
797.307	8.51
797.611	11.66
797.915	11.35
798.218	11.86
798.522	10.01
798.825	5.48
799.128	7.21
799.432	11.63
799.735	11.3
800.038	15.17
800.341	10.65
800.644	11.11
800.947	13.97
801.25	9.27
801.553	6
801.856	8.26
802.159	9.99
802.462	9.78
802.764	12.22
803.067	8.17
803.37	8.97
803.672	4.79
803.975	4.58
804.277	11.28
804.579	10.81
804.882	10.03
805.184	6.26
805.486	8.08
805.788	8.39
806.09	15.18
806.392	8.52
806.694	5.46
806.996	12.34
807.298	14.05
807.6	9.55
807.902	16.33
808.203	11.68
808.505	11.69
808.807	11.04
809.108	12.47
809.409	13.16
809.711	13.09
810.012	9.7
810.313	10.66
810.615	11.88
810.916	13.97
811.217	7.2
811.518	15.26
811.819	12.07
812.12	10.94
812.421	9.75
812.722	16.33
813.023	22.04
813.323	6.69
813.624	13.22
813.925	19.43
814.225	9.65
814.526	17.51
814.826	16.61
815.126	5.1
815.427	9.93
815.727	14.45
816.027	4.08
816.327	11.13
816.627	2.5
816.927	11.89
817.227	16.43
817.527	10.71
817.827	16.75
818.127	11.68
818.427	11.95
818.727	18
819.026	14.56
819.326	15.93
819.625	16.03
819.925	9.55
820.224	14.31
820.524	10.72
820.823	17.51
821.122	13.1
821.421	12.96
821.72	7.76
822.019	10.97
822.318	9.39
822.617	9.72
822.916	11.69
823.215	11.72
823.514	13.52
823.813	10.52
824.111	9.43
824.41	13.52
824.709	11.5
825.007	11.97
825.306	11.47
825.604	11.2
825.902	11.8
826.201	10.65
826.499	11.63
826.797	10.2
827.095	11.45
827.393	9.65
827.691	11.66
827.989	9.99
828.287	12.38
828.585	10.94
828.882	10.82
829.18	12.55
829.478	13.26
829.775	13.64
830.073	12.65
830.37	11.43
830.668	11.21
830.965	14.73
831.263	11.3
831.56	10.59
831.857	11.39
832.154	13.32
832.451	11.46
832.748	17.13
833.045	11.89
833.342	13.61
833.639	12.51
833.936	11.5
834.232	12.4
834.529	10.6
834.826	9.77
835.122	13.16
835.419	10.36
835.715	6.05
836.012	12.59
836.308	8.21
836.604	8.47
836.901	8.32
837.197	12.72
837.493	11.1
837.789	10.84
838.085	12.85
838.381	10.54
838.677	10.44
838.972	17.2
839.268	13.43
839.564	8.01
839.86	11.63
840.155	9.53
840.451	3.86
840.746	22.79
841.042	20.01
841.337	18.12
841.632	21.69
841.928	21.93
842.223	10.09
842.518	17.98
842.813	23.82
843.108	4.41
843.403	22.1
843.698	6.39
843.993	15.22
844.287	10.42
844.582	13.59
844.877	0.86
845.171	15.26
845.466	13.89
845.761	4.59
846.055	19.81
846.349	16.08
846.644	3.88
846.938	-3.58
847.232	9.51
847.526	7.25
847.82	21.77
848.114	9.5
848.408	12.52
848.702	16.43
848.996	-3.83
849.29	12.55
849.584	5.52
849.877	12.39
850.171	23.96
850.465	13.74
850.758	32.72
851.052	-5.82
851.345	20.48
851.638	4.35
851.932	2.13
852.225	16.67
852.518	9.61
852.811	15.07
853.104	-5.25
853.397	29.81
853.69	22.21
853.983	15.93
854.276	16.88
854.569	-2.55
854.861	-7.64
855.154	7.29
855.447	-1.43
855.739	17.7
856.032	14.92
856.324	30.37
856.616	38.86
856.909	27.89
857.201	23.71
857.493	33.03
857.785	9.71
858.077	20.8
858.369	10.73
858.661	27.41
858.953	-7.99
859.245	2.88
859.537	26.16
859.829	22.84
860.12	39.91
860.412	34.17
860.703	13.73
860.995	11.37
861.286	20.95
861.578	19.9
861.869	38.77
862.16	17.89
862.452	21.94
862.743	15.83
863.034	11.23
863.325	-2.69
863.616	16.28
863.907	17.64
864.198	19.97
864.488	49.64
864.779	-0.21
865.07	49.67
865.36	9.59
865.651	-0.43
865.941	18.63
866.232	12.18
866.522	8.32
866.813	3.98
867.103	12.43
867.393	-4.36
867.683	12.5
867.973	-12.46
868.263	13.36
868.553	29.9
868.843	24.72
869.133	10.53
869.423	8.16
869.713	5.78
870.002	12.13
870.292	11.65
870.582	27.93
870.871	-22.02
871.161	29.63
871.45	2.88
871.739	8.62
872.029	8.48
872.318	35.32
872.607	46.81
872.896	-3.13
873.185	-8.97
873.474	21.13
873.763	12.49
874.052	3.9
874.341	13.35
874.63	35.57
874.918	14.08
875.207	34.45
875.496	20.77
875.784	11.07
876.073	9.99
876.361	-11.03
876.649	-0.52
876.938	22.76
877.226	-0.44
877.514	16.96
877.802	11.85
878.09	-1.41
878.378	30.75
878.666	-10.29
878.954	9.87
879.242	25.93
879.53	44.84
879.817	17.92
880.105	10.42
880.392	34.67
880.68	17.57
880.967	0.63
881.255	21.2
881.542	-23.11
881.83	-25.86
882.117	0.04
882.404	-14.95
882.691	38.09
882.978	23.62
883.265	11.64
883.552	32.87
883.839	20.2
884.126	14.94
884.413	26.51
884.699	22.22
884.986	21.1
885.273	11.35
885.559	11.35
885.846	11.35
