Data from 0389_forehead_Reflection__3__74.txt Node

Date: Fri Dec 15 16:53:19 CST 2023
User: ToomeyLab
Spectrometer: FLMS14357
Trigger mode: 0
Integration Time (sec): 1.000000E-2
Scans to average: 100
Electric dark correction enabled: true
Nonlinearity correction enabled: false
Boxcar width: 0
XAxis mode: Wavelengths
Number of Pixels in Spectrum: 2048
>>>>>Begin Spectral Data<<<<<
189.047	269.39
189.435	269.39
189.823	269.39
190.211	53.58
190.599	91.62
190.987	122.97
191.375	7254.24
191.763	26.41
192.151	56.37
192.538	98.91
192.926	102.83
193.314	100.36
193.702	-1841.05
194.089	201.4
194.477	-34.46
194.864	-553.42
195.252	28.7
195.639	73.61
196.027	1124.94
196.414	71.97
196.801	279.31
197.189	70.61
197.576	-5003.39
197.963	126.93
198.351	-26.3
198.738	32.48
199.125	39.9
199.512	19.5
199.899	44.81
200.286	58.19
200.673	42.66
201.06	36.87
201.447	35.26
201.833	120.02
202.22	81.23
202.607	39.21
202.994	45.06
203.38	90
203.767	38.12
204.154	43.9
204.54	55.71
204.927	9.46
205.313	-11.46
205.699	53.64
206.086	37.94
206.472	30.82
206.858	24.4
207.245	44.55
207.631	51.63
208.017	20.35
208.403	22.24
208.789	52.59
209.175	41.48
209.561	26.03
209.947	27.31
210.333	-5.76
210.719	34.2
211.105	57.08
211.491	7.82
211.876	32.28
212.262	33.46
212.648	63.7
213.034	35.8
213.419	33.41
213.805	53.92
214.19	3.56
214.576	24.83
214.961	7.18
215.346	-26.81
215.732	15.66
216.117	42.23
216.502	18.41
216.888	26.4
217.273	57.71
217.658	8.62
218.043	40.34
218.428	-25.52
218.813	3.29
219.198	5.55
219.583	33.73
219.968	38.78
220.353	14.88
220.738	39.53
221.122	30.98
221.507	17.14
221.892	3.57
222.276	18.6
222.661	20.45
223.046	21.64
223.43	4.74
223.815	16.74
224.199	-1.84
224.583	7.96
224.968	14.48
225.352	20.48
225.736	2.31
226.121	-9.31
226.505	6.18
226.889	11.3
227.273	9.5
227.657	18.54
228.041	9.11
228.425	2.85
228.809	7.5
229.193	3.66
229.577	6.42
229.961	6.11
230.344	3.8
230.728	3.81
231.112	4.66
231.495	4.56
231.879	4.38
232.263	5.21
232.646	5.25
233.03	5.15
233.413	4.07
233.797	4.09
234.18	6.6
234.563	4.4
234.946	4.64
235.33	5.14
235.713	4.63
236.096	4.41
236.479	6.4
236.862	3.81
237.245	6.48
237.628	4.11
238.011	7.77
238.394	6.45
238.777	6.26
239.16	5.27
239.543	6.57
239.925	5.95
240.308	3.12
240.691	5.8
241.073	7.76
241.456	5.22
241.838	5.58
242.221	4.16
242.603	5.98
242.986	5.63
243.368	4.81
243.75	4.39
244.133	4.69
244.515	4.74
244.897	4.59
245.279	4.4
245.661	3.65
246.043	4.16
246.425	3.6
246.807	6.69
247.189	6.31
247.571	5.48
247.953	5.11
248.335	4.73
248.717	4.3
249.098	4.13
249.48	4.53
249.862	4.53
250.243	4.63
250.625	4.91
251.006	4.48
251.388	4.09
251.769	5.59
252.151	6.1
252.532	5.06
252.913	4.3
253.295	3.99
253.676	4
254.057	4.56
254.438	4.27
254.819	3.96
255.2	5.36
255.581	4.44
255.962	3.4
256.343	5.02
256.724	4.86
257.105	5.34
257.486	4.91
257.867	4.32
258.247	4.71
258.628	4.55
259.009	5.56
259.389	4.77
259.77	4.9
260.15	4.32
260.531	3.85
260.911	4.91
261.292	4.4
261.672	4.53
262.052	4.36
262.432	4.72
262.813	5.03
263.193	4.54
263.573	3.89
263.953	4.58
264.333	4.98
264.713	4.7
265.093	4.32
265.473	4.44
265.853	4.28
266.233	5.76
266.612	3.25
266.992	4.45
267.372	5.42
267.752	4.29
268.131	4.51
268.511	4.86
268.89	4.95
269.27	4.25
269.649	4.09
270.029	4.55
270.408	5.83
270.787	4.23
271.167	4.67
271.546	4.52
271.925	3.91
272.304	4.51
272.683	4.79
273.062	4.49
273.441	4.52
273.82	4.11
274.199	4.37
274.578	4.43
274.957	4.03
275.336	4.55
275.715	4.6
276.093	3.85
276.472	4.68
276.851	3.91
277.229	4.06
277.608	4.1
277.986	4.38
278.365	4.89
278.743	4.24
279.122	4.12
279.5	4.59
279.878	4.84
280.257	4.43
280.635	4.04
281.013	4.46
281.391	4.47
281.769	4.74
282.147	4.73
282.525	4.74
282.903	3.82
283.281	4.94
283.659	4.78
284.037	4.51
284.415	4.77
284.792	4.87
285.17	3.65
285.548	4.44
285.925	4.65
286.303	4.47
286.68	4.11
287.058	4.68
287.435	4.08
287.813	4.32
288.19	3.9
288.567	4.25
288.945	4.75
289.322	4.75
289.699	4.23
290.076	5.07
290.453	4.37
290.83	4.37
291.207	4.3
291.584	4.38
291.961	4.9
292.338	4.61
292.715	4.91
293.092	4.53
293.469	4.6
293.845	5.23
294.222	4.58
294.599	4.99
294.975	4.59
295.352	4.9
295.728	4.98
296.105	4.62
296.481	5.31
296.858	4.75
297.234	4.9
297.61	5.37
297.986	5.31
298.363	5.08
298.739	5.22
299.115	4.96
299.491	4.73
299.867	5.05
300.243	5.55
300.619	5.15
300.995	5.24
301.371	5.74
301.746	5.57
302.122	6.1
302.498	5.79
302.874	5.67
303.249	5.67
303.625	5.83
304	5.84
304.376	5.64
304.751	5.33
305.127	6.61
305.502	6.16
305.878	5.48
306.253	6.36
306.628	6.51
307.003	5.66
307.378	6.81
307.754	6.55
308.129	6.07
308.504	6.45
308.879	6.92
309.254	8.06
309.629	7.51
310.003	6.36
310.378	7.27
310.753	6.85
311.128	6.96
311.502	6.98
311.877	7.26
312.252	7.01
312.626	7.23
313.001	7.34
313.375	7.52
313.75	6.88
314.124	7.44
314.498	7.47
314.873	8.05
315.247	7.61
315.621	7.64
315.995	7.39
316.369	8.23
316.743	8.23
317.117	8.09
317.491	8.22
317.865	8.48
318.239	8.31
318.613	8.55
318.987	8.4
319.361	8.2
319.734	8.45
320.108	8.79
320.482	8.64
320.855	9.32
321.229	8.98
321.602	9.17
321.976	9.77
322.349	9.68
322.723	9.68
323.096	9.81
323.469	9.09
323.843	10.17
324.216	9.29
324.589	9.43
324.962	9.8
325.335	9.45
325.708	9.86
326.081	10.08
326.454	9.73
326.827	9.77
327.2	9.84
327.573	10.1
327.945	9.69
328.318	10.33
328.691	9.59
329.063	10.74
329.436	10.27
329.809	10.9
330.181	9.58
330.553	10.29
330.926	11.29
331.298	10.99
331.671	10.92
332.043	11.57
332.415	11.48
332.787	11.15
333.159	11.37
333.532	11.21
333.904	11
334.276	11.09
334.648	11.57
335.02	11.47
335.391	11.24
335.763	11.48
336.135	11.26
336.507	11.86
336.879	10.91
337.25	11.43
337.622	11.08
337.993	11.5
338.365	12.14
338.736	12.13
339.108	11.6
339.479	12.01
339.851	12.14
340.222	11.9
340.593	12.04
340.964	12.38
341.336	12.99
341.707	12.23
342.078	12.95
342.449	12.58
342.82	12.46
343.191	12.54
343.562	12.74
343.933	12.44
344.303	12.72
344.674	12.49
345.045	12.58
345.416	13.09
345.786	12.61
346.157	12.97
346.527	12.69
346.898	12.45
347.268	12.93
347.639	13
348.009	13.17
348.38	13.09
348.75	13.02
349.12	13.28
349.49	13.65
349.861	13.58
350.231	13.35
350.601	13.83
350.971	13.8
351.341	13.83
351.711	13.6
352.081	13.81
352.45	13.8
352.82	14.24
353.19	13.84
353.56	14.2
353.929	13.84
354.299	14.32
354.669	14.4
355.038	15
355.408	13.92
355.777	14.36
356.147	14.34
356.516	14.49
356.885	14.71
357.254	14.74
357.624	14.63
357.993	14.7
358.362	14.4
358.731	14.83
359.1	14.73
359.469	14.73
359.838	15.17
360.207	14.98
360.576	14.62
360.945	15.28
361.314	15.68
361.682	14.85
362.051	14.98
362.42	15.16
362.788	15.17
363.157	15.33
363.525	15.3
363.894	15.46
364.262	15.41
364.631	15.49
364.999	15.88
365.367	15.29
365.735	16.19
366.104	15.86
366.472	16.04
366.84	15.97
367.208	16.03
367.576	16.21
367.944	16.5
368.312	16.28
368.68	15.78
369.048	16.28
369.416	16.44
369.783	16.14
370.151	16.55
370.519	16.91
370.886	16.75
371.254	16.19
371.621	16.69
371.989	16.98
372.356	16.53
372.724	16.58
373.091	16.86
373.458	16.98
373.826	16.93
374.193	16.77
374.56	17.25
374.927	17.19
375.294	17.15
375.661	17.12
376.028	17.1
376.395	17.67
376.762	17.88
377.129	17.52
377.496	17.21
377.863	17.46
378.229	17.55
378.596	17.6
378.963	17.81
379.329	17.63
379.696	17.67
380.062	18.04
380.429	17.81
380.795	17.77
381.161	18.27
381.528	18.39
381.894	18.78
382.26	18.15
382.626	18.17
382.993	18.03
383.359	18.75
383.725	18.28
384.091	18.49
384.457	19.01
384.823	18.73
385.188	18.74
385.554	18.7
385.92	18.86
386.286	19.15
386.651	19.42
387.017	19.37
387.383	19.16
387.748	18.98
388.114	18.94
388.479	19.18
388.845	19.31
389.21	19.32
389.575	19.39
389.94	19.52
390.306	19.51
390.671	19.79
391.036	19.13
391.401	19.2
391.766	19.49
392.131	19.78
392.496	19.98
392.861	19.56
393.226	19.89
393.591	19.6
393.956	19.83
394.32	19.66
394.685	19.8
395.05	19.96
395.414	19.98
395.779	19.84
396.143	20.21
396.508	20.23
396.872	20.18
397.236	20.33
397.601	20.2
397.965	20.56
398.329	20.31
398.694	20.7
399.058	20.82
399.422	20.59
399.786	20.67
400.15	20.67
400.514	20.8
400.878	20.87
401.242	20.83
401.605	20.88
401.969	20.98
402.333	21.01
402.697	21.18
403.06	21.18
403.424	21.42
403.787	21.01
404.151	21.17
404.514	21.4
404.878	21.19
405.241	21.39
405.604	21.12
405.968	21.38
406.331	21.55
406.694	21.28
407.057	21.49
407.42	21.51
407.783	21.45
408.146	21.32
408.509	21.41
408.872	21.42
409.235	21.92
409.598	22.05
409.961	21.74
410.323	22.32
410.686	21.68
411.049	21.78
411.411	21.92
411.774	21.93
412.136	22.22
412.499	21.83
412.861	21.99
413.223	22.01
413.586	22.48
413.948	22.34
414.31	22.43
414.672	22.02
415.035	22.19
415.397	22.71
415.759	22.29
416.121	22.86
416.483	22.4
416.845	22.79
417.206	22.44
417.568	22.52
417.93	22.44
418.292	22.71
418.653	22.68
419.015	22.8
419.377	22.9
419.738	22.84
420.1	22.77
420.461	22.83
420.822	22.93
421.184	22.83
421.545	22.82
421.906	22.87
422.267	22.87
422.629	22.76
422.99	22.94
423.351	22.92
423.712	23.21
424.073	23.1
424.434	23.13
424.795	23.26
425.155	23.35
425.516	23.4
425.877	23.39
426.238	23.44
426.598	23.73
426.959	23.69
427.32	23.79
427.68	23.79
428.041	23.99
428.401	24.26
428.761	24.35
429.122	24.35
429.482	24.56
429.842	24.73
430.202	24.75
430.563	24.91
430.923	24.78
431.283	24.74
431.643	24.93
432.003	25.12
432.363	24.98
432.722	25.24
433.082	25.37
433.442	25.4
433.802	24.97
434.161	25.13
434.521	25.34
434.881	25.15
435.24	25.11
435.6	25.42
435.959	25.37
436.319	25.36
436.678	25.72
437.037	25.5
437.396	25.77
437.756	25.92
438.115	25.81
438.474	26.04
438.833	26.13
439.192	26.11
439.551	26.14
439.91	26.17
440.269	26.19
440.628	26.21
440.987	26.5
441.345	26.06
441.704	26.27
442.063	26.26
442.421	26.44
442.78	26.04
443.138	26.44
443.497	26.5
443.855	26.6
444.214	26.7
444.572	27.01
444.93	27.01
445.288	26.69
445.647	27.12
446.005	27.05
446.363	27.02
446.721	26.99
447.079	27
447.437	26.97
447.795	26.88
448.153	26.78
448.51	26.85
448.868	26.97
449.226	27.18
449.584	27.21
449.941	27.49
450.299	27.49
450.656	27.59
451.014	27.64
451.371	27.87
451.729	27.94
452.086	28.13
452.443	28.13
452.801	28.36
453.158	28.04
453.515	28.19
453.872	28.47
454.229	28.1
454.586	28.21
454.943	28.46
455.3	28.54
455.657	28.42
456.014	28.5
456.371	28.53
456.727	28.62
457.084	28.81
457.441	28.66
457.797	28.88
458.154	29.3
458.51	28.98
458.867	29.29
459.223	29.11
459.58	28.96
459.936	29.08
460.292	29.09
460.648	29.17
461.005	28.86
461.361	28.9
461.717	28.92
462.073	28.86
462.429	29.1
462.785	29.34
463.141	29.45
463.496	29.52
463.852	29.87
464.208	29.84
464.564	30.04
464.919	29.91
465.275	30.33
465.631	30.31
465.986	30.1
466.342	30.17
466.697	29.98
467.052	30.18
467.408	30.33
467.763	30.43
468.118	30.5
468.473	30.34
468.829	30.4
469.184	30.35
469.539	30.59
469.894	30.48
470.249	30.7
470.603	31.09
470.958	31.01
471.313	30.85
471.668	30.97
472.023	30.93
472.377	31.19
472.732	31.11
473.086	31.04
473.441	31.19
473.795	31.21
474.15	31.47
474.504	31.39
474.859	31.38
475.213	31.28
475.567	31.48
475.921	31.29
476.275	31.36
476.63	31.55
476.984	32.05
477.338	31.76
477.692	31.68
478.045	31.84
478.399	31.8
478.753	31.85
479.107	31.71
479.461	31.84
479.814	32.1
480.168	32.03
480.521	32.08
480.875	31.93
481.228	31.95
481.582	32.01
481.935	32.34
482.289	32.2
482.642	32.14
482.995	32
483.348	32.04
483.701	32.16
484.055	32.05
484.408	31.95
484.761	31.53
485.114	31.34
485.466	30.93
485.819	31.05
486.172	31.22
486.525	31.53
486.878	31.62
487.23	31.81
487.583	32.05
487.936	32.1
488.288	32.06
488.641	31.93
488.993	31.86
489.345	31.82
489.698	31.74
490.05	31.85
490.402	31.89
490.754	32.36
491.107	32.52
491.459	32.75
491.811	32.96
492.163	32.92
492.515	32.99
492.866	32.81
493.218	32.49
493.57	32.3
493.922	32.51
494.274	32.77
494.625	32.97
494.977	33.32
495.328	33.63
495.68	33.72
496.031	33.96
496.383	34
496.734	34.19
497.086	34.31
497.437	34.05
497.788	34.11
498.139	34.05
498.49	34.07
498.842	33.88
499.193	34.09
499.544	34.12
499.894	34.19
500.245	34.46
500.596	34.24
500.947	34.47
501.298	34.65
501.648	34.62
501.999	34.76
502.35	34.75
502.7	34.89
503.051	34.84
503.401	34.94
503.752	35.12
504.102	34.97
504.452	35.12
504.803	35.02
505.153	35.06
505.503	35.29
505.853	35.13
506.203	35.16
506.553	35.27
506.903	35.36
507.253	35.32
507.603	35.39
507.953	35.54
508.303	35.88
508.652	35.51
509.002	35.7
509.352	35.7
509.701	35.69
510.051	35.43
510.4	35.48
510.75	35.48
511.099	35.56
511.449	35.45
511.798	35.66
512.147	35.7
512.496	35.98
512.846	35.99
513.195	35.93
513.544	35.97
513.893	36
514.242	35.9
514.591	36.2
514.939	36.22
515.288	36.09
515.637	36.25
515.986	36.42
516.334	36.2
516.683	36.65
517.032	36.55
517.38	36.62
517.729	36.65
518.077	36.77
518.426	36.81
518.774	36.75
519.122	36.85
519.47	36.62
519.819	36.28
520.167	36.34
520.515	36.1
520.863	36.21
521.211	36.43
521.559	36.66
521.907	36.6
522.255	36.74
522.602	36.76
522.95	37.05
523.298	36.91
523.645	37.25
523.993	37.24
524.341	37.34
524.688	37.15
525.036	37.51
525.383	37.28
525.73	37.51
526.078	37.39
526.425	37.27
526.772	37.51
527.119	37.16
527.466	37.05
527.814	37.07
528.161	37.01
528.508	37.21
528.854	37.13
529.201	37.05
529.548	37.02
529.895	36.73
530.242	36.29
530.588	36.34
530.935	36.49
531.282	36.58
531.628	36.87
531.975	36.97
532.321	37.22
532.667	37.43
533.014	37.6
533.36	37.58
533.706	37.71
534.052	37.65
534.399	37.52
534.745	37.44
535.091	37.25
535.437	37.2
535.783	37.43
536.129	37.62
536.474	37.67
536.82	38.06
537.166	38.12
537.512	38.35
537.857	38.22
538.203	38.2
538.549	37.99
538.894	37.9
539.239	38.32
539.585	38.51
539.93	38.5
540.276	38.84
540.621	38.85
540.966	38.83
541.311	38.88
541.656	38.79
542.001	38.99
542.346	38.72
542.691	38.3
543.036	37.97
543.381	37.82
543.726	38.22
544.071	38.41
544.415	38.35
544.76	38.57
545.105	38.79
545.449	38.88
545.794	39.02
546.138	38.97
546.483	39.28
546.827	39.09
547.171	39.27
547.516	39.55
547.86	39.39
548.204	39.54
548.548	39.47
548.892	39.44
549.236	39.42
549.58	39.5
549.924	39.83
550.268	39.99
550.612	40.2
550.956	40.45
551.3	40.37
551.643	40.47
551.987	40.48
552.33	40.52
552.674	40.55
553.017	40.55
553.361	40.43
553.704	40.65
554.048	40.61
554.391	40.52
554.734	40.44
555.077	40.47
555.42	40.5
555.764	40.7
556.107	40.73
556.45	40.61
556.793	40.85
557.135	41.12
557.478	41.3
557.821	41.12
558.164	41.13
558.507	41.08
558.849	41.27
559.192	41.16
559.534	41.19
559.877	41.45
560.219	41.3
560.562	41.44
560.904	41.47
561.246	41.54
561.589	41.54
561.931	41.52
562.273	41.61
562.615	41.64
562.957	41.77
563.299	41.45
563.641	41.74
563.983	41.8
564.325	41.5
564.667	41.6
565.008	41.88
565.35	42.17
565.692	41.75
566.033	41.85
566.375	42.14
566.716	41.92
567.058	41.93
567.399	42.02
567.741	41.97
568.082	41.94
568.423	41.96
568.764	41.82
569.105	42.29
569.447	42.15
569.788	42.34
570.129	42.32
570.47	42.35
570.811	42.51
571.151	42.22
571.492	42.3
571.833	42.38
572.174	42.51
572.514	42.59
572.855	42.26
573.195	42.63
573.536	42.37
573.876	42.32
574.217	42.51
574.557	42.59
574.898	42.53
575.238	42.64
575.578	42.72
575.918	42.8
576.258	42.8
576.598	42.93
576.938	42.65
577.278	42.93
577.618	42.72
577.958	42.84
578.298	43.34
578.638	43.34
578.977	43.23
579.317	43.24
579.657	43.44
579.996	43.57
580.336	43.53
580.675	43.45
581.014	43.54
581.354	43.87
581.693	44.04
582.032	44.02
582.372	44.01
582.711	44.04
583.05	43.91
583.389	43.95
583.728	43.92
584.067	44.17
584.406	44.48
584.745	44.38
585.083	44.14
585.422	43.98
585.761	43.96
586.1	44.4
586.438	44.08
586.777	44.72
587.115	44.22
587.454	44.66
587.792	44.21
588.13	44.83
588.469	44.27
588.807	44.71
589.145	44.67
589.483	44.72
589.821	44.79
590.159	44.79
590.497	44.77
590.835	44.75
591.173	44.5
591.511	44.92
591.849	44.84
592.187	44.73
592.524	44.63
592.862	44.64
593.2	44.95
593.537	44.78
593.875	44.88
594.212	44.85
594.55	44.98
594.887	45.42
595.224	45.2
595.561	45.23
595.899	44.93
596.236	45.16
596.573	45.43
596.91	45.16
597.247	45.13
597.584	45.33
597.921	45.16
598.258	45.24
598.594	44.72
598.931	44.9
599.268	44.98
599.604	45.11
599.941	45.17
600.277	45.45
600.614	45.41
600.95	45.43
601.287	46.02
601.623	45.35
601.959	46.04
602.296	46.18
602.632	45.76
602.968	45.77
603.304	46
603.64	46.24
603.976	45.92
604.312	45.9
604.648	45.87
604.984	45.84
605.319	45.76
605.655	46.1
605.991	45.93
606.326	45.53
606.662	45.59
606.998	45.83
607.333	45.75
607.668	45.76
608.004	46.25
608.339	45.77
608.674	46.23
609.01	46.01
609.345	46.3
609.68	46.3
610.015	46.44
610.35	46.76
610.685	46.5
611.02	46.17
611.355	46.48
611.689	46.41
612.024	46.29
612.359	46.4
612.694	46.55
613.028	46.59
613.363	46.56
613.697	46.61
614.032	47.05
614.366	46.8
614.7	47.28
615.035	47.53
615.369	47.02
615.703	47.28
616.037	47.26
616.371	47.11
616.705	47.24
617.039	47.06
617.373	47.56
617.707	47.15
618.041	47.07
618.375	47.43
618.709	47.03
619.042	47.12
619.376	47.54
619.71	47.45
620.043	47.56
620.377	47.77
620.71	47.7
621.043	47.24
621.377	47.47
621.71	47.81
622.043	47.26
622.376	47.69
622.709	47.84
623.043	48.16
623.376	48.22
623.709	47.95
624.041	48.4
624.374	48.08
624.707	47.87
625.04	47.47
625.373	47.72
625.705	48.17
626.038	48.3
626.37	48.6
626.703	47.73
627.035	47.72
627.368	48.02
627.7	48.17
628.032	48.11
628.365	48.24
628.697	48.01
629.029	48.1
629.361	48.2
629.693	48.26
630.025	48.25
630.357	48.83
630.689	48.36
631.021	48.59
631.353	48.46
631.684	48.32
632.016	48.15
632.348	48.89
632.679	48.91
633.011	48.95
633.342	48.46
633.674	49.05
634.005	49.02
634.336	48.75
634.668	49.7
634.999	48.83
635.33	48.84
635.661	48.92
635.992	49.02
636.323	49.81
636.654	48.99
636.985	49.14
637.316	48.84
637.647	48.95
637.977	49.01
638.308	49.42
638.639	48.77
638.969	48.87
639.3	48.82
639.63	49.62
639.961	48.9
640.291	49.23
640.622	49.33
640.952	49.23
641.282	50.02
641.612	49.47
641.943	49.21
642.273	49.75
642.603	50.02
642.933	49.01
643.263	49.33
643.592	49.53
643.922	49.06
644.252	49.44
644.582	49.42
644.911	49.19
645.241	49.77
645.571	49.58
645.9	49.96
646.23	49.71
646.559	50.43
646.888	50.01
647.218	49.94
647.547	50.42
647.876	49.86
648.205	50.08
648.534	49.92
648.863	49.32
649.192	50.52
649.521	49.8
649.85	50.05
650.179	50.23
650.508	50.27
650.837	49.9
651.165	50.02
651.494	50.31
651.822	50.68
652.151	49.64
652.479	50.87
652.808	50.2
653.136	50.51
653.465	50.16
653.793	50.19
654.121	50.41
654.449	50.19
654.777	50.35
655.105	51.12
655.433	50.3
655.761	50.53
656.089	51.5
656.417	51.46
656.745	50.99
657.073	50.69
657.4	50.97
657.728	50.74
658.056	50.45
658.383	50.08
658.711	50.83
659.038	50.91
659.365	51.64
659.693	50.9
660.02	51.02
660.347	50.74
660.674	50.93
661.001	51.13
661.329	50.37
661.656	51.14
661.982	50.97
662.309	50.94
662.636	50.91
662.963	51.8
663.29	50.94
663.616	50.92
663.943	51.33
664.27	51.42
664.596	51.35
664.923	51.1
665.249	51.68
665.576	51.82
665.902	51.86
666.228	52.2
666.554	51.66
666.881	52.38
667.207	51.84
667.533	50.57
667.859	52
668.185	51.72
668.511	52.16
668.837	50.33
669.162	52.07
669.488	51.4
669.814	52.19
670.139	51.94
670.465	51.86
670.791	51.88
671.116	52.16
671.442	52.21
671.767	52.24
672.092	51.95
672.418	52.07
672.743	52.4
673.068	51.45
673.393	52.76
673.718	52.27
674.043	52.08
674.368	52.18
674.693	52.49
675.018	51.71
675.343	51.44
675.667	52.68
675.992	52.47
676.317	52.52
676.641	52.31
676.966	52.92
677.29	51.98
677.615	52.14
677.939	53.54
678.264	52.82
678.588	52.21
678.912	52.79
679.236	52.6
679.56	51.61
679.885	52.67
680.209	51.57
680.532	52.52
680.856	53.35
681.18	52.48
681.504	52.68
681.828	53.25
682.152	52.7
682.475	52.62
682.799	52.44
683.122	52.74
683.446	52.33
683.769	53.55
684.093	53.01
684.416	52.87
684.739	52.69
685.062	53.99
685.386	52.79
685.709	52.99
686.032	52.88
686.355	53.16
686.678	52.71
687.001	52.56
687.324	53.78
687.646	52.16
687.969	53.36
688.292	53.77
688.614	53.19
688.937	55.06
689.26	52.55
689.582	53.65
689.904	53.96
690.227	53.25
690.549	53.74
690.871	52.87
691.194	53.22
691.516	53.35
691.838	53.23
692.16	54.56
692.482	52.66
692.804	54.07
693.126	53.62
693.448	54.57
693.769	54.07
694.091	53.87
694.413	53.45
694.735	52.63
695.056	53.65
695.378	54.11
695.699	53.74
696.021	54.05
696.342	53.86
696.663	53.65
696.984	53.72
697.306	53.72
697.627	53.86
697.948	53.7
698.269	53.88
698.59	54.38
698.911	53.51
699.232	54.47
699.553	53.47
699.873	54.22
700.194	54.15
700.515	53.87
700.835	53.43
701.156	54.26
701.477	53.69
701.797	53.69
702.117	54.6
702.438	54.07
702.758	53.37
703.078	54.21
703.398	54.52
703.719	55.35
704.039	54.46
704.359	54.24
704.679	55.1
704.999	54.21
705.319	54.56
705.638	53.73
705.958	53.76
706.278	55.31
706.597	54.13
706.917	55.26
707.237	55.48
707.556	54.9
707.876	55.15
708.195	54.97
708.514	54.36
708.834	55.79
709.153	54.96
709.472	55.48
709.791	55.5
710.11	55.33
710.429	55.96
710.748	55
711.067	54.63
711.386	54.73
711.705	55.46
712.023	55.4
712.342	54.99
712.661	53.76
712.979	54.59
713.298	55.5
713.616	54.53
713.935	55.68
714.253	54.44
714.572	55.76
714.89	54.32
715.208	56.02
715.526	56.08
715.844	54.91
716.162	56.09
716.48	55.16
716.798	54.58
717.116	55.16
717.434	55.58
717.752	56.02
718.069	55.63
718.387	55.69
718.705	55.79
719.022	55.05
719.34	55.17
719.657	54.5
719.975	56.56
720.292	55.2
720.609	55.54
720.927	56.11
721.244	55.8
721.561	56.88
721.878	56.84
722.195	56.03
722.512	56.51
722.829	55.51
723.146	54.94
723.463	54.49
723.779	55.64
724.096	57.18
724.413	56.97
724.729	57.76
725.046	55.62
725.362	54.76
725.679	56.56
725.995	55.27
726.311	55.36
726.628	55.09
726.944	55.49
727.26	55.97
727.576	57.16
727.892	56.47
728.208	55.24
728.524	56.16
728.84	54.71
729.156	56.55
729.472	55.64
729.787	56.45
730.103	55.69
730.419	57.75
730.734	56.69
731.05	56.54
731.365	55.47
731.681	57.24
731.996	57.67
732.311	56.81
732.626	57.61
732.942	57.45
733.257	56.81
733.572	57.13
733.887	56.22
734.202	57.19
734.517	58.36
734.832	57.43
735.146	56.35
735.461	57.29
735.776	56.66
736.091	56.54
736.405	57.38
736.72	55.8
737.034	55.44
737.349	57.86
737.663	55.69
737.977	58.46
738.292	56.39
738.606	56.42
738.92	57.6
739.234	57.89
739.548	57.21
739.862	56.39
740.176	56.95
740.49	57.65
740.804	56.83
741.117	56.34
741.431	59.9
741.745	56.83
742.058	55.54
742.372	56.24
742.685	56.64
742.999	57.44
743.312	56.17
743.626	57.35
743.939	56.17
744.252	57.84
744.565	57.33
744.878	56.14
745.191	56.94
745.505	55.7
745.817	58.02
746.13	58
746.443	58.45
746.756	57.24
747.069	57.18
747.381	57.9
747.694	57.61
748.007	56.66
748.319	57.45
748.632	58.74
748.944	58.46
749.256	57.25
749.569	56.14
749.881	57.68
750.193	58.12
750.505	57.97
750.817	57.98
751.129	57.08
751.441	56.5
751.753	56.99
752.065	57.13
752.377	58.1
752.689	57.51
753	56.79
753.312	57.12
753.624	58.17
753.935	59.72
754.247	57.49
754.558	58.47
754.869	57.24
755.181	57.39
755.492	58.31
755.803	56.94
756.114	59.62
756.425	58.07
756.736	56.41
757.047	59.16
757.358	59.05
757.669	60.47
757.98	59.78
758.291	57.61
758.601	57.37
758.912	57.21
759.223	59.44
759.533	59.57
759.844	58.22
760.154	58.32
760.464	57.73
760.775	59.03
761.085	59.37
761.395	59.71
761.705	58.2
762.016	60.18
762.326	57.34
762.636	57.06
762.945	56.12
763.255	59.85
763.565	57.19
763.875	59.3
764.185	58.11
764.494	59.65
764.804	60.91
765.113	56.79
765.423	59.99
765.732	58.2
766.042	58.08
766.351	58.98
766.66	59.27
766.97	59.99
767.279	60.27
767.588	57.81
767.897	58.71
768.206	58.2
768.515	58.75
768.824	57.24
769.133	59.66
769.441	60.13
769.75	56.11
770.059	57.24
770.367	60.33
770.676	57.8
770.984	58.73
771.293	58.16
771.601	58.66
771.91	57.84
772.218	59.79
772.526	59.37
772.834	58.48
773.142	62.8
773.45	58.79
773.758	57.05
774.066	54.98
774.374	57
774.682	61.57
774.99	62.24
775.298	58.67
775.605	55.53
775.913	59.66
776.22	60.27
776.528	56.45
776.835	61.18
777.143	54.87
777.45	61.34
777.757	61.08
778.065	58.21
778.372	58.78
778.679	58.68
778.986	61.92
779.293	61.3
779.6	61.73
779.907	56.81
780.214	57.78
780.52	60.62
780.827	62.43
781.134	58.44
781.44	56.32
781.747	61.34
782.053	58.74
782.36	58.63
782.666	59.12
782.973	63.4
783.279	58.38
783.585	59.89
783.891	57.28
784.197	58.17
784.503	60.65
784.809	58.41
785.115	60.67
785.421	59.53
785.727	56.1
786.033	59.21
786.339	56.09
786.644	59.77
786.95	62.25
787.255	61.63
787.561	65.68
787.866	59.96
788.172	60.23
788.477	59.8
788.782	59.01
789.088	59.82
789.393	60.72
789.698	56.6
790.003	62.24
790.308	59.65
790.613	59.81
790.918	62.11
791.223	60.12
791.527	59.52
791.832	63.11
792.137	56.08
792.441	57.69
792.746	60.51
793.05	62.16
793.355	58.99
793.659	58.66
793.963	56.08
794.268	55.88
794.572	59.36
794.876	57.18
795.18	59.52
795.484	60.08
795.788	64.29
796.092	62.52
796.396	62.15
796.7	58.74
797.004	57.81
797.307	59.83
797.611	59.15
797.915	61.51
798.218	64.27
798.522	64.23
798.825	60.3
799.128	60.46
799.432	57.08
799.735	58.48
800.038	60.16
800.341	60.76
800.644	58.76
800.947	62.04
801.25	62.07
801.553	57.64
801.856	55.64
802.159	56.65
802.462	60.44
802.764	61.77
803.067	61.56
803.37	62.29
803.672	56.51
803.975	61.22
804.277	59.42
804.579	61.18
804.882	61.68
805.184	59.7
805.486	52.74
805.788	60.54
806.09	61.62
806.392	58.49
806.694	58.73
806.996	57.6
807.298	59.8
807.6	60.87
807.902	60.53
808.203	60.75
808.505	62.15
808.807	62.06
809.108	59.31
809.409	57.86
809.711	56.68
810.012	63.69
810.313	61.67
810.615	58.39
810.916	59.04
811.217	58.49
811.518	60.85
811.819	66.47
812.12	59.31
812.421	55.06
812.722	64.47
813.023	69.18
813.323	70.34
813.624	63.8
813.925	65.58
814.225	64.96
814.526	62.36
814.826	63.42
815.126	57.06
815.427	61.42
815.727	60.29
816.027	58.59
816.327	63.95
816.627	59.49
816.927	59.01
817.227	60.94
817.527	53.44
817.827	58.83
818.127	57.15
818.427	63.25
818.727	59.71
819.026	57.25
819.326	69.8
819.625	61.82
819.925	59.24
820.224	68.83
820.524	55.15
820.823	64.71
821.122	63.25
821.421	62.14
821.72	61.37
822.019	55.19
822.318	58.04
822.617	57.47
822.916	61.31
823.215	64.57
823.514	61.19
823.813	60.44
824.111	61.27
824.41	61.64
824.709	62.29
825.007	62.11
825.306	61.65
825.604	61.95
825.902	61.6
826.201	60.61
826.499	60.58
826.797	62.14
827.095	61.55
827.393	62.69
827.691	61.6
827.989	59.05
828.287	61.39
828.585	60.24
828.882	61.65
829.18	63.42
829.478	62.39
829.775	60.96
830.073	59.76
830.37	60.04
830.668	60.25
830.965	61.34
831.263	61.95
831.56	61.87
831.857	57.97
832.154	61.93
832.451	61.01
832.748	62.71
833.045	62.92
833.342	60.95
833.639	61.94
833.936	63.33
834.232	61.39
834.529	61.05
834.826	63.03
835.122	63.42
835.419	58.63
835.715	53.05
836.012	66.06
836.308	63.12
836.604	57.3
836.901	61.79
837.197	63.56
837.493	64.21
837.789	60
838.085	64.93
838.381	59.6
838.677	61.04
838.972	68.09
839.268	63.64
839.564	57.13
839.86	58.39
840.155	54.51
840.451	57.89
840.746	63.74
841.042	63.2
841.337	57.07
841.632	65.54
841.928	69.41
842.223	56.84
842.518	60.06
842.813	66.8
843.108	55.93
843.403	61.11
843.698	65.98
843.993	60.39
844.287	65.63
844.582	61.56
844.877	64.92
845.171	54.23
845.466	62.61
845.761	61.13
846.055	52.67
846.349	65.42
846.644	60.13
846.938	47.07
847.232	59.05
847.526	58.49
847.82	62.53
848.114	66.89
848.408	59.65
848.702	68.26
848.996	49.23
849.29	72.05
849.584	62.95
849.877	58.33
850.171	84.97
850.465	60.7
850.758	71.9
851.052	62.39
851.345	64.28
851.638	84.54
851.932	64.58
852.225	55.35
852.518	69.26
852.811	63.42
853.104	38.41
853.397	75.55
853.69	58.22
853.983	38.91
854.276	61.23
854.569	70.59
854.861	61.8
855.154	69.13
855.447	43.71
855.739	53.86
856.032	51.19
856.324	63.77
856.616	63.44
856.909	72.19
857.201	57.06
857.493	78.79
857.785	92.92
858.077	58.46
858.369	66.34
858.661	81.24
858.953	80.01
859.245	63.1
859.537	70.99
859.829	72.88
860.12	65
860.412	66.64
860.703	53.56
860.995	63.34
861.286	69.38
861.578	70.16
861.869	66.94
862.16	56.28
862.452	54.75
862.743	45.38
863.034	44.6
863.325	60.7
863.616	38.44
863.907	67.94
864.198	70.85
864.488	67.87
864.779	65.7
865.07	111.03
865.36	69.56
865.651	57.08
865.941	61.97
866.232	60.44
866.522	40.31
866.813	63.61
867.103	68.67
867.393	46.11
867.683	48.52
867.973	67.24
868.263	50.24
868.553	83.62
868.843	81.64
869.133	58.73
869.423	44.55
869.713	70.86
870.002	75.66
870.292	76.54
870.582	69.21
870.871	43.04
871.161	50.01
871.45	73.61
871.739	59.84
872.029	64.72
872.318	93.56
872.607	82.59
872.896	45.53
873.185	84.05
873.474	50.21
873.763	38.1
874.052	60.53
874.341	58.63
874.63	57.22
874.918	52.32
875.207	60.31
875.496	61.27
875.784	63.31
876.073	55.51
876.361	54.51
876.649	28.45
876.938	43.93
877.226	78.19
877.514	101.78
877.802	40.28
878.09	54
878.378	58.5
878.666	79.04
878.954	48.19
879.242	38.86
879.53	64.65
879.817	54.91
880.105	43.93
880.392	60.81
880.68	36.41
880.967	60.55
881.255	85.73
881.542	41.11
881.83	38.71
882.117	65.32
882.404	56.32
882.691	63.02
882.978	68.32
883.265	52.47
883.552	58.6
883.839	66.05
884.126	54.34
884.413	67.74
884.699	63.83
884.986	59.29
885.273	59.21
885.559	59.21
885.846	59.21
