Data from 1805-1_crown_Reflection__3__69.txt Node

Date: Fri Sep 30 18:17:26 CDT 2022
User: ToomeyLab
Spectrometer: FLMS14357
Trigger mode: 0
Integration Time (sec): 1.000000E-2
Scans to average: 100
Electric dark correction enabled: true
Nonlinearity correction enabled: false
Boxcar width: 0
XAxis mode: Wavelengths
Number of Pixels in Spectrum: 2048
>>>>>Begin Spectral Data<<<<<
189.047	-14.23
189.435	-14.23
189.823	-14.23
190.211	-132.71
190.599	156.34
190.987	45.34
191.375	197.99
191.763	17.53
192.151	80.8
192.538	-23.65
192.926	-151.14
193.314	88.7
193.702	102.86
194.089	659.78
194.477	364.32
194.864	-109.95
195.252	-44.31
195.639	64.06
196.027	-87.6
196.414	-136.07
196.801	67.27
197.189	-28.71
197.576	173.96
197.963	-82.85
198.351	-36.24
198.738	19.61
199.125	52.27
199.512	36.99
199.899	26.67
200.286	-1.78
200.673	19.14
201.06	13.65
201.447	28.68
201.833	45.66
202.22	29.29
202.607	28.15
202.994	52.79
203.38	19.81
203.767	15.69
204.154	9.34
204.54	43.55
204.927	27.94
205.313	-7.1
205.699	10.48
206.086	-8.65
206.472	6.92
206.858	55.87
207.245	20.59
207.631	26.97
208.017	-20.77
208.403	13.48
208.789	-14.77
209.175	21.8
209.561	-5.14
209.947	-9.02
210.333	-21.74
210.719	-6.1
211.105	-17.93
211.491	5.13
211.876	8.48
212.262	30.65
212.648	21.87
213.034	-2.71
213.419	15.11
213.805	19.06
214.19	28.08
214.576	0.87
214.961	-8.12
215.346	2.09
215.732	23.51
216.117	-2.91
216.502	23.9
216.888	41.15
217.273	18.05
217.658	29.64
218.043	23.1
218.428	15.59
218.813	9.91
219.198	20.78
219.583	16.21
219.968	29.13
220.353	3.4
220.738	9.35
221.122	19.13
221.507	13.68
221.892	17.98
222.276	-13.57
222.661	8.21
223.046	-0.81
223.43	-1.98
223.815	9.89
224.199	15.08
224.583	1.09
224.968	4.58
225.352	6.83
225.736	9.22
226.121	6.75
226.505	9.74
226.889	9.63
227.273	1.06
227.657	9.57
228.041	6.53
228.425	7.47
228.809	2.7
229.193	4.02
229.577	4.18
229.961	6.15
230.344	4.25
230.728	5.38
231.112	5.07
231.495	4.77
231.879	7.33
232.263	6.19
232.646	3.25
233.03	5.67
233.413	4.38
233.797	6.03
234.18	6.06
234.563	6.89
234.946	5.23
235.33	3.88
235.713	5.67
236.096	5.16
236.479	6.27
236.862	5.67
237.245	6.38
237.628	4.25
238.011	6.87
238.394	7.66
238.777	3.94
239.16	4.53
239.543	6.46
239.925	4.06
240.308	3.99
240.691	6.12
241.073	4.97
241.456	5.38
241.838	5.57
242.221	5.31
242.603	5.69
242.986	5.27
243.368	4.57
243.75	4.67
244.133	5.52
244.515	4.54
244.897	5.51
245.279	5.38
245.661	5.6
246.043	5.12
246.425	4.72
246.807	4.57
247.189	5.89
247.571	4.75
247.953	5.11
248.335	4.56
248.717	4.68
249.098	4.96
249.48	4.95
249.862	4.64
250.243	4.72
250.625	5.03
251.006	4.83
251.388	4.29
251.769	6.37
252.151	5.27
252.532	5.03
252.913	4.14
253.295	4.83
253.676	4.33
254.057	5.1
254.438	4.14
254.819	5.48
255.2	4.47
255.581	5.27
255.962	5.4
256.343	5.23
256.724	5.27
257.105	4.96
257.486	6.41
257.867	5.24
258.247	4.4
258.628	4.43
259.009	5.27
259.389	4.82
259.77	5.01
260.15	4.46
260.531	5.24
260.911	4.63
261.292	4.31
261.672	4.52
262.052	4.69
262.432	4.4
262.813	5.65
263.193	4.63
263.573	4.71
263.953	4.45
264.333	5.38
264.713	4.44
265.093	4.98
265.473	4.49
265.853	4.96
266.233	4.34
266.612	3.86
266.992	4.66
267.372	4.27
267.752	3.84
268.131	4.58
268.511	4.55
268.89	4.46
269.27	4.86
269.649	4.65
270.029	4.83
270.408	4.41
270.787	4.63
271.167	4.12
271.546	4.62
271.925	4.64
272.304	4.62
272.683	4.43
273.062	4.54
273.441	4.15
273.82	4.1
274.199	4.47
274.578	4.31
274.957	4.44
275.336	4.53
275.715	4.76
276.093	4.3
276.472	4.38
276.851	4.79
277.229	5.14
277.608	4.44
277.986	3.83
278.365	4.48
278.743	4.03
279.122	4.34
279.5	4.46
279.878	4.46
280.257	4.3
280.635	4.35
281.013	5.17
281.391	4.35
281.769	4.42
282.147	4.27
282.525	5.02
282.903	4.24
283.281	4.1
283.659	4.11
284.037	4.16
284.415	4.45
284.792	4.21
285.17	4
285.548	4.39
285.925	4.11
286.303	3.99
286.68	3.86
287.058	4.26
287.435	4.17
287.813	3.92
288.19	4.18
288.567	3.8
288.945	3.77
289.322	4.06
289.699	4.1
290.076	4
290.453	4.02
290.83	3.96
291.207	3.97
291.584	4.3
291.961	4.19
292.338	3.95
292.715	4.29
293.092	3.76
293.469	4.2
293.845	4.89
294.222	4.06
294.599	4.81
294.975	4.59
295.352	4.48
295.728	4.45
296.105	4.12
296.481	4.04
296.858	4.39
297.234	4.03
297.61	3.9
297.986	3.51
298.363	4.08
298.739	3.61
299.115	3.96
299.491	4.23
299.867	4.24
300.243	4.03
300.619	3.87
300.995	4.29
301.371	4.23
301.746	3.63
302.122	4.19
302.498	3.95
302.874	3.91
303.249	4.06
303.625	3.79
304	4.19
304.376	3.76
304.751	4.02
305.127	4.16
305.502	3.94
305.878	3.95
306.253	3.76
306.628	3.86
307.003	4.11
307.378	3.79
307.754	3.76
308.129	4.36
308.504	3.77
308.879	4.25
309.254	3.65
309.629	4.06
310.003	4.23
310.378	4.01
310.753	3.68
311.128	3.71
311.502	4.1
311.877	4.02
312.252	4.11
312.626	3.83
313.001	3.6
313.375	3.8
313.75	4.03
314.124	3.91
314.498	3.51
314.873	3.88
315.247	3.7
315.621	3.87
315.995	4.51
316.369	3.67
316.743	3.85
317.117	3.99
317.491	4.74
317.865	4.89
318.239	3.98
318.613	4
318.987	3.93
319.361	3.88
319.734	3.38
320.108	3.95
320.482	3.8
320.855	4
321.229	4.16
321.602	4.56
321.976	3.92
322.349	3.58
322.723	3.82
323.096	4.61
323.469	4.06
323.843	3.81
324.216	3.83
324.589	4.66
324.962	4.17
325.335	4
325.708	3.87
326.081	4.08
326.454	3.95
326.827	4.35
327.2	3.82
327.573	4.02
327.945	3.83
328.318	3.54
328.691	3.63
329.063	3.94
329.436	3.23
329.809	4.41
330.181	3.69
330.553	3.96
330.926	4.2
331.298	3.83
331.671	4.38
332.043	3.91
332.415	3.88
332.787	3.57
333.159	4.04
333.532	4.04
333.904	3.87
334.276	4.38
334.648	4.35
335.02	4.3
335.391	4.76
335.763	4.22
336.135	4.18
336.507	4.26
336.879	3.82
337.25	3.71
337.622	4.33
337.993	3.7
338.365	4.29
338.736	4.32
339.108	4.32
339.479	3.87
339.851	3.52
340.222	4.24
340.593	3.87
340.964	3.66
341.336	4.21
341.707	3.63
342.078	3.73
342.449	4.13
342.82	3.66
343.191	3.99
343.562	3.87
343.933	3.82
344.303	3.8
344.674	3.86
345.045	4.01
345.416	4.22
345.786	4.01
346.157	4.21
346.527	3.85
346.898	3.63
347.268	3.77
347.639	3.85
348.009	3.94
348.38	4.48
348.75	4.62
349.12	4.56
349.49	3.97
349.861	3.93
350.231	3.84
350.601	3.59
350.971	4
351.341	3.81
351.711	4.07
352.081	4.17
352.45	4.07
352.82	4.28
353.19	4.1
353.56	4.16
353.929	3.68
354.299	4.15
354.669	3.8
355.038	4.2
355.408	4.38
355.777	3.75
356.147	3.95
356.516	4.33
356.885	3.87
357.254	4.36
357.624	4.15
357.993	3.67
358.362	4.25
358.731	3.74
359.1	3.65
359.469	3.66
359.838	4.2
360.207	3.81
360.576	3.98
360.945	3.93
361.314	3.9
361.682	3.92
362.051	4.17
362.42	3.93
362.788	3.96
363.157	3.98
363.525	3.51
363.894	4.07
364.262	4.4
364.631	4.28
364.999	3.83
365.367	4.4
365.735	3.76
366.104	3.82
366.472	4.02
366.84	4.18
367.208	3.99
367.576	4.59
367.944	4.24
368.312	4.11
368.68	4.09
369.048	3.95
369.416	4.1
369.783	4.04
370.151	4.01
370.519	4.18
370.886	4.39
371.254	4.28
371.621	4.31
371.989	4.24
372.356	4.07
372.724	4.24
373.091	3.76
373.458	4.12
373.826	4.13
374.193	4.41
374.56	4.48
374.927	4.57
375.294	4.19
375.661	3.82
376.028	3.87
376.395	3.93
376.762	3.88
377.129	4.37
377.496	4.25
377.863	3.97
378.229	4.31
378.596	4.18
378.963	4.41
379.329	4.12
379.696	4.32
380.062	4.32
380.429	4.21
380.795	4.11
381.161	3.99
381.528	4.22
381.894	4.09
382.26	4.09
382.626	4.15
382.993	4.43
383.359	4.13
383.725	4.15
384.091	4.08
384.457	4.36
384.823	4.39
385.188	4.33
385.554	4.38
385.92	4.26
386.286	4.24
386.651	4.56
387.017	4.44
387.383	4.03
387.748	4.17
388.114	4.38
388.479	4.3
388.845	3.92
389.21	4.1
389.575	4.12
389.94	4.15
390.306	4.33
390.671	4.26
391.036	4.54
391.401	4.13
391.766	4.31
392.131	4.25
392.496	4.35
392.861	4.36
393.226	4.14
393.591	4.36
393.956	4.39
394.32	4.39
394.685	4.07
395.05	4.32
395.414	4.27
395.779	4.19
396.143	4.29
396.508	4.16
396.872	4.43
397.236	4.19
397.601	4.38
397.965	4.39
398.329	4.21
398.694	4.43
399.058	4.47
399.422	4.42
399.786	4.19
400.15	4.46
400.514	4.25
400.878	4.31
401.242	4.09
401.605	4.37
401.969	4.4
402.333	4.3
402.697	4.3
403.06	4.38
403.424	4.17
403.787	4.6
404.151	4.32
404.514	4.43
404.878	4.32
405.241	4.32
405.604	4.4
405.968	4.28
406.331	4.26
406.694	4.25
407.057	4.39
407.42	4.4
407.783	4.3
408.146	4.26
408.509	4.31
408.872	4.47
409.235	4.39
409.598	4.33
409.961	4.41
410.323	4.6
410.686	4.65
411.049	4.44
411.411	4.36
411.774	4.31
412.136	4.45
412.499	4.34
412.861	4.32
413.223	4.28
413.586	4.29
413.948	4.68
414.31	4.53
414.672	4.35
415.035	4.45
415.397	4.67
415.759	4.31
416.121	4.52
416.483	4.2
416.845	4.55
417.206	4.75
417.568	4.49
417.93	4.3
418.292	4.44
418.653	4.3
419.015	4.54
419.377	4.36
419.738	4.37
420.1	4.42
420.461	4.45
420.822	4.34
421.184	4.28
421.545	4.23
421.906	4.2
422.267	4.25
422.629	4.42
422.99	4.32
423.351	4.3
423.712	4.29
424.073	4.44
424.434	4.35
424.795	4.35
425.155	4.27
425.516	4.29
425.877	4.48
426.238	4.26
426.598	4.38
426.959	4.46
427.32	4.47
427.68	4.47
428.041	4.4
428.401	4.55
428.761	4.66
429.122	4.48
429.482	4.5
429.842	4.52
430.202	4.35
430.563	4.48
430.923	4.4
431.283	4.51
431.643	4.66
432.003	4.37
432.363	4.61
432.722	4.61
433.082	4.63
433.442	4.4
433.802	4.45
434.161	4.5
434.521	4.51
434.881	4.44
435.24	4.39
435.6	4.61
435.959	4.53
436.319	4.55
436.678	4.53
437.037	4.63
437.396	4.74
437.756	4.37
438.115	4.5
438.474	4.52
438.833	4.48
439.192	4.59
439.551	4.44
439.91	4.47
440.269	4.23
440.628	4.47
440.987	4.51
441.345	4.46
441.704	4.53
442.063	4.55
442.421	4.55
442.78	4.54
443.138	4.42
443.497	4.73
443.855	4.67
444.214	4.55
444.572	4.66
444.93	4.35
445.288	4.69
445.647	4.51
446.005	4.51
446.363	4.52
446.721	4.45
447.079	4.42
447.437	4.59
447.795	4.44
448.153	4.45
448.51	4.47
448.868	4.51
449.226	4.48
449.584	4.45
449.941	4.48
450.299	4.59
450.656	4.68
451.014	4.76
451.371	4.68
451.729	4.76
452.086	4.57
452.443	4.83
452.801	4.81
453.158	4.48
453.515	4.51
453.872	4.7
454.229	4.63
454.586	4.72
454.943	4.76
455.3	4.57
455.657	4.75
456.014	4.56
456.371	4.74
456.727	4.63
457.084	4.57
457.441	4.63
457.797	4.72
458.154	4.45
458.51	4.67
458.867	4.92
459.223	4.63
459.58	4.71
459.936	4.76
460.292	4.57
460.648	4.53
461.005	4.53
461.361	4.44
461.717	4.46
462.073	4.62
462.429	4.73
462.785	4.75
463.141	4.72
463.496	4.69
463.852	4.66
464.208	4.76
464.564	4.55
464.919	4.78
465.275	4.79
465.631	4.91
465.986	4.75
466.342	4.63
466.697	4.8
467.052	4.76
467.408	4.68
467.763	4.69
468.118	4.75
468.473	4.85
468.829	4.58
469.184	4.68
469.539	4.67
469.894	4.78
470.249	4.65
470.603	4.87
470.958	4.89
471.313	4.77
471.668	4.76
472.023	4.69
472.377	4.73
472.732	4.98
473.086	4.64
473.441	4.81
473.795	4.63
474.15	4.91
474.504	4.8
474.859	4.74
475.213	4.68
475.567	4.78
475.921	4.88
476.275	4.68
476.63	4.79
476.984	4.65
477.338	4.72
477.692	4.84
478.045	4.7
478.399	4.69
478.753	4.82
479.107	4.66
479.461	4.84
479.814	4.76
480.168	4.77
480.521	4.86
480.875	4.93
481.228	4.77
481.582	4.78
481.935	4.77
482.289	4.79
482.642	4.78
482.995	4.75
483.348	4.64
483.701	4.8
484.055	4.55
484.408	4.67
484.761	4.48
485.114	4.37
485.466	4.32
485.819	4.36
486.172	4.54
486.525	4.67
486.878	4.71
487.23	4.69
487.583	4.66
487.936	4.71
488.288	4.59
488.641	4.45
488.993	4.52
489.345	4.49
489.698	4.49
490.05	4.6
490.402	4.7
490.754	4.73
491.107	4.79
491.459	4.81
491.811	4.74
492.163	4.75
492.515	4.67
492.866	4.55
493.218	4.46
493.57	4.54
493.922	4.6
494.274	4.72
494.625	4.85
494.977	4.83
495.328	4.78
495.68	4.8
496.031	4.82
496.383	4.81
496.734	4.95
497.086	4.86
497.437	4.85
497.788	4.8
498.139	4.7
498.49	4.58
498.842	4.7
499.193	4.78
499.544	4.72
499.894	4.93
500.245	4.8
500.596	4.73
500.947	4.8
501.298	4.99
501.648	4.75
501.999	4.88
502.35	4.87
502.7	4.88
503.051	4.96
503.401	4.95
503.752	4.81
504.102	4.89
504.452	4.77
504.803	4.86
505.153	4.9
505.503	4.88
505.853	4.81
506.203	4.8
506.553	4.8
506.903	4.89
507.253	4.88
507.603	4.9
507.953	4.92
508.303	5.02
508.652	5.05
509.002	4.89
509.352	5.06
509.701	4.84
510.051	4.96
510.4	4.77
510.75	4.91
511.099	4.68
511.449	4.88
511.798	4.82
512.147	4.83
512.496	4.86
512.846	4.81
513.195	4.89
513.544	4.79
513.893	4.89
514.242	4.76
514.591	4.92
514.939	4.87
515.288	4.86
515.637	4.81
515.986	4.96
516.334	4.9
516.683	4.79
517.032	4.91
517.38	4.85
517.729	4.89
518.077	4.93
518.426	4.79
518.774	4.86
519.122	4.76
519.47	4.87
519.819	4.88
520.167	4.82
520.515	4.74
520.863	4.82
521.211	4.89
521.559	4.97
521.907	4.92
522.255	4.86
522.602	4.91
522.95	4.97
523.298	4.93
523.645	4.86
523.993	5.03
524.341	4.97
524.688	4.92
525.036	4.85
525.383	4.83
525.73	4.94
526.078	4.97
526.425	4.71
526.772	4.89
527.119	4.72
527.466	4.7
527.814	4.81
528.161	4.68
528.508	4.86
528.854	4.77
529.201	4.74
529.548	4.66
529.895	4.6
530.242	4.53
530.588	4.62
530.935	4.72
531.282	4.81
531.628	4.82
531.975	4.89
532.321	4.86
532.667	4.95
533.014	4.93
533.36	4.85
533.706	4.86
534.052	4.81
534.399	4.8
534.745	4.69
535.091	4.65
535.437	4.77
535.783	4.83
536.129	5.02
536.474	4.93
536.82	4.97
537.166	4.87
537.512	4.9
537.857	4.92
538.203	4.82
538.549	4.76
538.894	4.88
539.239	4.97
539.585	4.93
539.93	4.96
540.276	5.03
540.621	5.04
540.966	4.99
541.311	4.95
541.656	4.79
542.001	4.86
542.346	4.85
542.691	4.65
543.036	4.63
543.381	4.69
543.726	4.82
544.071	4.92
544.415	4.93
544.76	4.87
545.105	4.83
545.449	4.83
545.794	4.88
546.138	4.95
546.483	5.1
546.827	4.94
547.171	4.97
547.516	4.81
547.86	4.84
548.204	4.88
548.548	4.87
548.892	4.85
549.236	4.96
549.58	5.01
549.924	4.98
550.268	5.14
550.612	5.06
550.956	5.04
551.3	5
551.643	5.05
551.987	5.05
552.33	5.09
552.674	5.14
553.017	4.77
553.361	4.86
553.704	5.19
554.048	4.93
554.391	4.91
554.734	4.91
555.077	4.94
555.42	5.23
555.764	5.05
556.107	5.16
556.45	5.05
556.793	5.01
557.135	5.04
557.478	4.98
557.821	5.17
558.164	5.3
558.507	5.1
558.849	5.18
559.192	4.97
559.534	4.96
559.877	5.05
560.219	5.1
560.562	5.23
560.904	4.98
561.246	5.23
561.589	4.86
561.931	5.19
562.273	5.09
562.615	5.12
562.957	5.07
563.299	5.02
563.641	4.97
563.983	4.97
564.325	5.09
564.667	5.03
565.008	5.04
565.35	5.08
565.692	5.35
566.033	4.97
566.375	4.89
566.716	5.19
567.058	4.98
567.399	4.9
567.741	5.1
568.082	5.1
568.423	4.97
568.764	5.09
569.105	5.01
569.447	4.94
569.788	5.14
570.129	4.99
570.47	4.93
570.811	5.01
571.151	5.08
571.492	5.04
571.833	5.14
572.174	4.75
572.514	5.08
572.855	4.95
573.195	4.98
573.536	5.07
573.876	4.93
574.217	4.96
574.557	4.96
574.898	5
575.238	5.16
575.578	5.3
575.918	5.05
576.258	5.09
576.598	5.08
576.938	4.96
577.278	5.04
577.618	5.1
577.958	5.06
578.298	5.02
578.638	5.3
578.977	5.09
579.317	5.06
579.657	5.04
579.996	5.12
580.336	5.41
580.675	5.16
581.014	4.96
581.354	5.16
581.693	5.06
582.032	5.09
582.372	5.26
582.711	4.95
583.05	5.12
583.389	4.95
583.728	5.22
584.067	5.01
584.406	4.99
584.745	5.25
585.083	5.04
585.422	5.1
585.761	5.07
586.1	5.08
586.438	5.06
586.777	5.21
587.115	5.28
587.454	5.26
587.792	4.95
588.13	5
588.469	5.05
588.807	5.02
589.145	4.91
589.483	5.17
589.821	5.21
590.159	5.4
590.497	5.09
590.835	5.1
591.173	5.02
591.511	5.08
591.849	5.07
592.187	5.16
592.524	5.04
592.862	5.17
593.2	5.24
593.537	4.84
593.875	5.22
594.212	5.06
594.55	5
594.887	5.3
595.224	5.29
595.561	5
595.899	5.03
596.236	5.2
596.573	5.03
596.91	5.12
597.247	5.09
597.584	5.13
597.921	4.78
598.258	5.09
598.594	4.77
598.931	4.94
599.268	5.01
599.604	5.22
599.941	4.96
600.277	5.22
600.614	5.16
600.95	5.2
601.287	5.24
601.623	5.3
601.959	5.23
602.296	5.06
602.632	5.07
602.968	5.21
603.304	5.02
603.64	5.26
603.976	5.2
604.312	4.98
604.648	5.07
604.984	5.27
605.319	5.11
605.655	5.09
605.991	4.96
606.326	5.08
606.662	5.12
606.998	4.93
607.333	4.96
607.668	5.06
608.004	5.25
608.339	5.15
608.674	5.15
609.01	5.07
609.345	4.98
609.68	5.32
610.015	5.02
610.35	4.88
610.685	4.83
611.02	5.07
611.355	5
611.689	4.94
612.024	5.21
612.359	5.39
612.694	5.27
613.028	5.3
613.363	5.06
613.697	5.04
614.032	5.19
614.366	4.95
614.7	4.95
615.035	5.3
615.369	4.95
615.703	5.23
616.037	5
616.371	5.18
616.705	5.03
617.039	5.19
617.373	5.24
617.707	4.81
618.041	5.17
618.375	5.33
618.709	5.4
619.042	4.76
619.376	5.22
619.71	5.07
620.043	5.27
620.377	5.27
620.71	5.23
621.043	5.49
621.377	5.27
621.71	4.91
622.043	5.15
622.376	5.37
622.709	5.41
623.043	5.13
623.376	5.21
623.709	5.24
624.041	5.19
624.374	5.51
624.707	5.05
625.04	4.97
625.373	5.21
625.705	4.84
626.038	4.87
626.37	5.02
626.703	5.7
627.035	5.18
627.368	5.02
627.7	5.44
628.032	5.2
628.365	5
628.697	5.27
629.029	5.17
629.361	5.02
629.693	5.21
630.025	5.11
630.357	5.42
630.689	5.19
631.021	4.85
631.353	5.12
631.684	5.31
632.016	5.53
632.348	5.07
632.679	5.18
633.011	5.06
633.342	5.02
633.674	5.32
634.005	5.4
634.336	5.06
634.668	5.4
634.999	5.33
635.33	5.29
635.661	5.36
635.992	5.25
636.323	5.07
636.654	4.88
636.985	5.07
637.316	5.38
637.647	4.95
637.977	5.38
638.308	5.26
638.639	5.19
638.969	5.02
639.3	5
639.63	5.02
639.961	5.4
640.291	5.17
640.622	5.53
640.952	5.36
641.282	5.31
641.612	5.27
641.943	5.64
642.273	5.43
642.603	5.14
642.933	5.15
643.263	5.52
643.592	5.49
643.922	5.04
644.252	5.58
644.582	5.54
644.911	5.4
645.241	5.4
645.571	5.28
645.9	4.82
646.23	4.84
646.559	5.41
646.888	5.26
647.218	4.88
647.547	5.4
647.876	4.9
648.205	5.14
648.534	5.18
648.863	5.67
649.192	5.17
649.521	5.64
649.85	5.37
650.179	5.51
650.508	4.86
650.837	5.6
651.165	5.28
651.494	5.5
651.822	5.33
652.151	5.36
652.479	5.54
652.808	5.41
653.136	5.31
653.465	4.89
653.793	5
654.121	5.08
654.449	5.54
654.777	4.9
655.105	5.48
655.433	5.18
655.761	5.76
656.089	5.7
656.417	5.35
656.745	4.78
657.073	5.13
657.4	5.39
657.728	5.47
658.056	5.09
658.383	5.66
658.711	5.28
659.038	4.78
659.365	5.24
659.693	5.22
660.02	5.55
660.347	5.22
660.674	5.29
661.001	5.45
661.329	5.3
661.656	4.92
661.982	5.68
662.309	5.33
662.636	5.89
662.963	5.26
663.29	4.68
663.616	4.97
663.943	5.53
664.27	5.44
664.596	5.4
664.923	5.37
665.249	5.24
665.576	5.45
665.902	5.2
666.228	5.73
666.554	5.54
666.881	6
667.207	5.33
667.533	5.71
667.859	5.5
668.185	5.47
668.511	5.45
668.837	5.77
669.162	5.63
669.488	5.4
669.814	5.86
670.139	5.28
670.465	5.93
670.791	5.74
671.116	5.45
671.442	6.01
671.767	6.2
672.092	5.18
672.418	5.24
672.743	5.88
673.068	5.95
673.393	6.03
673.718	4.82
674.043	5.68
674.368	5.8
674.693	5.47
675.018	5.14
675.343	5.1
675.667	6.11
675.992	5.1
676.317	5.53
676.641	5.34
676.966	5.13
677.29	4.9
677.615	5.54
677.939	6.1
678.264	4.63
678.588	5.86
678.912	5.47
679.236	5.63
679.56	5.39
679.885	5.6
680.209	5.31
680.532	5.79
680.856	5.37
681.18	5.35
681.504	5.44
681.828	5.53
682.152	5.45
682.475	5.51
682.799	5.77
683.122	5.69
683.446	5.9
683.769	5.93
684.093	6.11
684.416	5.99
684.739	5.37
685.062	5.49
685.386	5.85
685.709	5.66
686.032	5.39
686.355	5.86
686.678	4.89
687.001	5.94
687.324	6.3
687.646	5.45
687.969	5.39
688.292	5.5
688.614	5.23
688.937	5.68
689.26	5.42
689.582	5.56
689.904	5.73
690.227	5.91
690.549	5.01
690.871	5.92
691.194	5.52
691.516	5.84
691.838	5.55
692.16	5.74
692.482	5.98
692.804	6.49
693.126	6.06
693.448	5.25
693.769	5.27
694.091	4.47
694.413	5.85
694.735	5.73
695.056	5.94
695.378	4.86
695.699	6.07
696.021	4.36
696.342	5.7
696.663	5.19
696.984	5.42
697.306	5.39
697.627	5.48
697.948	6.48
698.269	5.32
698.59	5.6
698.911	5.77
699.232	6.37
699.553	5.75
699.873	5.04
700.194	5.54
700.515	5.75
700.835	4.98
701.156	5.47
701.477	5.46
701.797	5.79
702.117	5.52
702.438	5.89
702.758	5.82
703.078	5.98
703.398	6.04
703.719	5.76
704.039	5.34
704.359	5.49
704.679	5.78
704.999	5.57
705.319	5.4
705.638	6.19
705.958	6.28
706.278	6.16
706.597	5.94
706.917	6.36
707.237	5.3
707.556	5
707.876	5.61
708.195	6.25
708.514	5.71
708.834	5.08
709.153	5.79
709.472	5.7
709.791	4.77
710.11	5.71
710.429	4.93
710.748	6.26
711.067	5.52
711.386	6.03
711.705	5.75
712.023	5.76
712.342	5.9
712.661	5.82
712.979	5.62
713.298	6.22
713.616	5.74
713.935	6.28
714.253	6.3
714.572	4.06
714.89	6.44
715.208	5.91
715.526	5.61
715.844	7.09
716.162	6.6
716.48	5.3
716.798	5.48
717.116	5.9
717.434	6.25
717.752	5.57
718.069	5.63
718.387	4.5
718.705	6.6
719.022	5.85
719.34	6.27
719.657	5.71
719.975	5.1
720.292	6.31
720.609	5.64
720.927	5.74
721.244	6.69
721.561	6.79
721.878	6.14
722.195	6.1
722.512	5.61
722.829	6.09
723.146	4.68
723.463	7.12
723.779	5.58
724.096	5.73
724.413	6.1
724.729	5.94
725.046	4.82
725.362	6.43
725.679	6.79
725.995	7.86
726.311	6.18
726.628	6.02
726.944	5.1
727.26	6.63
727.576	4.12
727.892	6.76
728.208	6.4
728.524	6.12
728.84	5.59
729.156	6.63
729.472	6.74
729.787	6.34
730.103	7.36
730.419	5.94
730.734	6.65
731.05	6.45
731.365	6.86
731.681	5.92
731.996	6.07
732.311	7.19
732.626	6.3
732.942	6.28
733.257	6.58
733.572	7.4
733.887	5.87
734.202	7.16
734.517	6.23
734.832	7.49
735.146	7.36
735.461	5.05
735.776	6.29
736.091	6.34
736.405	6.36
736.72	6.07
737.034	6.33
737.349	6.24
737.663	6.51
737.977	5.25
738.292	7.29
738.606	5.86
738.92	7.34
739.234	6.49
739.548	7.27
739.862	5.02
740.176	6.18
740.49	7.53
740.804	7.03
741.117	6.73
741.431	7.16
741.745	6.01
742.058	7.24
742.372	7.7
742.685	4.54
742.999	7.47
743.312	7.94
743.626	6.38
743.939	6.55
744.252	7.69
744.565	7.92
744.878	7.51
745.191	6.11
745.505	6.63
745.817	6.56
746.13	5.61
746.443	5.2
746.756	6.39
747.069	5.67
747.381	7.66
747.694	3.81
748.007	5.72
748.319	6.9
748.632	7.41
748.944	7.05
749.256	8.19
749.569	6.6
749.881	6.06
750.193	5.22
750.505	7.11
750.817	5.88
751.129	4.7
751.441	8.07
751.753	7.67
752.065	6.51
752.377	6.62
752.689	7
753	6.84
753.312	7.87
753.624	5.6
753.935	7.1
754.247	6.16
754.558	7.85
754.869	8.13
755.181	7.04
755.492	6.1
755.803	7.15
756.114	5.56
756.425	6.98
756.736	5.61
757.047	6.27
757.358	7.23
757.669	7.96
757.98	7.55
758.291	7.58
758.601	6.47
758.912	6.95
759.223	7.17
759.533	6.17
759.844	5.41
760.154	5.73
760.464	6.22
760.775	5.76
761.085	7.05
761.395	6.97
761.705	8.01
762.016	7.44
762.326	7.71
762.636	6.14
762.945	8.39
763.255	5.73
763.565	6.05
763.875	7.03
764.185	5.81
764.494	5.52
764.804	7.51
765.113	6.97
765.423	6.42
765.732	6.29
766.042	6.28
766.351	7.14
766.66	7.53
766.97	6.73
767.279	6.82
767.588	8.58
767.897	6.2
768.206	6.94
768.515	6.54
768.824	6.81
769.133	6.25
769.441	7.74
769.75	6.95
770.059	7.33
770.367	8.99
770.676	5.89
770.984	9.32
771.293	6.57
771.601	8.8
771.91	6.33
772.218	8.31
772.526	7.83
772.834	7.25
773.142	9.28
773.45	9.77
773.758	4.12
774.066	6.22
774.374	5.74
774.682	5.02
774.99	7.08
775.298	7.09
775.605	5.76
775.913	8.55
776.22	8.82
776.528	8.99
776.835	10.4
777.143	7.42
777.45	10.25
777.757	7.8
778.065	2.81
778.372	4.6
778.679	6.97
778.986	7.55
779.293	7.4
779.6	7.53
779.907	9.99
780.214	6.82
780.52	5.64
780.827	8.49
781.134	7.01
781.44	10.24
781.747	6.2
782.053	6.97
782.36	6.06
782.666	10.43
782.973	8.92
783.279	9.83
783.585	5.47
783.891	8.64
784.197	10.87
784.503	8.56
784.809	9.3
785.115	9.54
785.421	9.51
785.727	8.16
786.033	10.07
786.339	10.44
786.644	9.67
786.95	11.52
787.255	7.13
787.561	5.6
787.866	7.85
788.172	7.37
788.477	6.72
788.782	9.58
789.088	9.47
789.393	5.07
789.698	6.25
790.003	6.21
790.308	4.11
790.613	5.51
790.918	3.88
791.223	9.58
791.527	12.3
791.832	11.8
792.137	9.58
792.441	4.71
792.746	4.05
793.05	7
793.355	11.35
793.659	3.85
793.963	6.64
794.268	9.91
794.572	7.3
794.876	4.54
795.18	9.8
795.484	10.88
795.788	8.37
796.092	8.82
796.396	6.18
796.7	8.67
797.004	5.92
797.307	10.35
797.611	5.35
797.915	3.82
798.218	7.53
798.522	4.5
798.825	7.24
799.128	9.61
799.432	8.48
799.735	8.86
800.038	6.27
800.341	6.16
800.644	5.22
800.947	6.61
801.25	8.03
801.553	11.06
801.856	8.67
802.159	5.88
802.462	10.23
802.764	11.77
803.067	9.31
803.37	5.91
803.672	8.18
803.975	6.07
804.277	2.84
804.579	5.73
804.882	9.32
805.184	6.5
805.486	13.82
805.788	6.56
806.09	3.42
806.392	10.71
806.694	6.23
806.996	9.41
807.298	12.28
807.6	7.78
807.902	6.01
808.203	5.52
808.505	9.35
808.807	16.07
809.108	9.78
809.409	10.15
809.711	8.86
810.012	9.45
810.313	7.4
810.615	10.83
810.916	10.32
811.217	15.14
811.518	4.48
811.819	6.86
812.12	8.74
812.421	8.43
812.722	11.87
813.023	9.37
813.323	13.5
813.624	10.49
813.925	8.58
814.225	10.21
814.526	4.14
814.826	7.79
815.126	8.61
815.427	9.93
815.727	12.01
816.027	8.94
816.327	13.31
816.627	11.36
816.927	7.18
817.227	14.75
817.527	7.15
817.827	10.82
818.127	9.68
818.427	8.31
818.727	9.66
819.026	11.75
819.326	10.65
819.625	11.83
819.925	10.44
820.224	10.49
820.524	15.72
820.823	13.79
821.122	4.12
821.421	14.49
821.72	7.39
822.019	7.77
822.318	6.4
822.617	11.51
822.916	8.63
823.215	10.44
823.514	4.56
823.813	7.73
824.111	7.96
824.41	6.98
824.709	8.38
825.007	8.34
825.306	8.24
825.604	7.96
825.902	8.19
826.201	7.34
826.499	8.36
826.797	6.91
827.095	7.96
827.393	7.57
827.691	9.94
827.989	8.29
828.287	9.45
828.585	8.26
828.882	7.18
829.18	8.27
829.478	8.9
829.775	8.65
830.073	7.92
830.37	7.98
830.668	8.72
830.965	6.13
831.263	7.7
831.56	6.17
831.857	9.8
832.154	9.79
832.451	7.76
832.748	10.77
833.045	15.47
833.342	6.58
833.639	8.64
833.936	11.45
834.232	11.12
834.529	1.87
834.826	9.72
835.122	14.21
835.419	8.19
835.715	11.57
836.012	8.06
836.308	11.15
836.604	10.96
836.901	10.48
837.197	8.82
837.493	6.92
837.789	7.94
838.085	8.2
838.381	7.59
838.677	9.73
838.972	8.35
839.268	6.2
839.564	10.41
839.86	6.38
840.155	12.47
840.451	11.69
840.746	15.36
841.042	14.54
841.337	13.73
841.632	6.76
841.928	14.82
842.223	3.29
842.518	9.54
842.813	6.46
843.108	7.57
843.403	8.93
843.698	17.8
843.993	5.13
844.287	-0.46
844.582	10.55
844.877	9.73
845.171	3.22
845.466	5.98
845.761	20.99
846.055	11.26
846.349	12.61
846.644	9.97
846.938	9.81
847.232	12.49
847.526	24.89
847.82	12.39
848.114	9.11
848.408	13.91
848.702	15.26
848.996	0.84
849.29	4.22
849.584	6.76
849.877	-10.97
850.171	3.53
850.465	21.46
850.758	14.45
851.052	10.51
851.345	7.84
851.638	1.39
851.932	27.05
852.225	-5.51
852.518	10.37
852.811	2.68
853.104	3.74
853.397	23.03
853.69	5.02
853.983	15.86
854.276	8.24
854.569	5.71
854.861	27.52
855.154	14.87
855.447	29.87
855.739	22.93
856.032	23.88
856.324	6.2
856.616	37.92
856.909	28.24
857.201	11.08
857.493	13.34
857.785	34.18
858.077	29.8
858.369	-5.07
858.661	28.04
858.953	16.99
859.245	11.06
859.537	-0.14
859.829	5.92
860.12	17.31
860.412	7.22
860.703	25.77
860.995	-17.58
861.286	-3.72
861.578	-13.3
861.869	20.23
862.16	8
862.452	23.94
862.743	-4.23
863.034	1.73
863.325	14.46
863.616	19
863.907	11.27
864.198	15.62
864.488	16.83
864.779	11.94
865.07	27.9
865.36	4.64
865.651	27.87
865.941	12.84
866.232	35.15
866.522	26.37
866.813	13.62
867.103	6.86
867.393	6.83
867.683	24.02
867.973	29.58
868.263	-1.68
868.553	8.83
868.843	15.56
869.133	15.94
869.423	48.06
869.713	1.94
870.002	14.93
870.292	27.77
870.582	3.31
870.871	4.14
871.161	2.25
871.45	12.8
871.739	13.53
872.029	31.95
872.318	30.04
872.607	14.2
872.896	34.83
873.185	-12.43
873.474	35.27
873.763	15.63
874.052	23.8
874.341	26.67
874.63	18.18
874.918	31.18
875.207	7.73
875.496	19.06
875.784	37.57
876.073	14.76
876.361	17.33
876.649	17.77
876.938	7.88
877.226	22.88
877.514	-10.24
877.802	19.62
878.09	33.65
878.378	38.43
878.666	-4.72
878.954	4.12
879.242	6.71
879.53	2.03
879.817	15.47
880.105	6.5
880.392	31.99
880.68	9.75
880.967	12.3
881.255	-6.51
881.542	-1.41
881.83	33.16
882.117	26.89
882.404	39.56
882.691	17.01
882.978	1.77
883.265	19.5
883.552	5.37
883.839	27.14
884.126	24.39
884.413	9.73
884.699	9.44
884.986	15.04
885.273	11.71
885.559	11.71
885.846	11.71
