Data from 1805-1_chest_Reflection__4__65.txt Node

Date: Fri Sep 30 18:15:44 CDT 2022
User: ToomeyLab
Spectrometer: FLMS14357
Trigger mode: 0
Integration Time (sec): 1.000000E-2
Scans to average: 100
Electric dark correction enabled: true
Nonlinearity correction enabled: false
Boxcar width: 0
XAxis mode: Wavelengths
Number of Pixels in Spectrum: 2048
>>>>>Begin Spectral Data<<<<<
189.047	49.54
189.435	49.54
189.823	49.54
190.211	182.97
190.599	-712.09
190.987	75.17
191.375	123.05
191.763	6.77
192.151	94.78
192.538	79.28
192.926	-35.58
193.314	219
193.702	60.63
194.089	-35.62
194.477	335.52
194.864	544.04
195.252	86.44
195.639	61.76
196.027	94.3
196.414	78.19
196.801	98.99
197.189	28.16
197.576	62.94
197.963	144.1
198.351	-27.81
198.738	-1.72
199.125	22.41
199.512	20.56
199.899	24.64
200.286	-12.96
200.673	30.9
201.06	22.3
201.447	21.83
201.833	33.93
202.22	13.95
202.607	8.73
202.994	41.69
203.38	6.44
203.767	-18.82
204.154	43.81
204.54	37.87
204.927	45.6
205.313	-8.8
205.699	0.75
206.086	-18.87
206.472	18.33
206.858	38.21
207.245	21.06
207.631	-16.23
208.017	-4.12
208.403	13.64
208.789	3.11
209.175	7.26
209.561	-27.04
209.947	-14.78
210.333	-9.49
210.719	5.96
211.105	-10.69
211.491	30.24
211.876	12.8
212.262	41
212.648	26.35
213.034	-12.87
213.419	18.9
213.805	17.08
214.19	-1.25
214.576	18.44
214.961	2.3
215.346	22.78
215.732	12.02
216.117	18.41
216.502	28.43
216.888	34.34
217.273	-4.39
217.658	30.94
218.043	1.79
218.428	-3.89
218.813	20.07
219.198	26.54
219.583	9.62
219.968	19.21
220.353	7.16
220.738	9
221.122	25.14
221.507	28.12
221.892	10.5
222.276	1.67
222.661	-2.84
223.046	-3.72
223.43	1.93
223.815	6.57
224.199	5.4
224.583	-1.27
224.968	5.81
225.352	-4.36
225.736	9.07
226.121	1.64
226.505	0.68
226.889	-0.99
227.273	-1.2
227.657	4.71
228.041	4.31
228.425	7.48
228.809	4.14
229.193	5.26
229.577	1.9
229.961	2.06
230.344	1.36
230.728	2.01
231.112	2.79
231.495	2.15
231.879	3.34
232.263	2.6
232.646	1.78
233.03	2.65
233.413	3.41
233.797	1.63
234.18	2.65
234.563	1.91
234.946	2.86
235.33	2.48
235.713	5.29
236.096	2.71
236.479	3.94
236.862	2.14
237.245	1.71
237.628	2.08
238.011	5.86
238.394	2.67
238.777	-0.73
239.16	0.3
239.543	2.81
239.925	1.74
240.308	1.69
240.691	3.26
241.073	3.28
241.456	2.24
241.838	2.72
242.221	2.09
242.603	3.35
242.986	2.51
243.368	1.88
243.75	2.28
244.133	2.73
244.515	2.3
244.897	2.81
245.279	2.5
245.661	2.11
246.043	2.82
246.425	2.06
246.807	2.5
247.189	2.53
247.571	2.71
247.953	2.71
248.335	2.14
248.717	2.3
249.098	2.48
249.48	2.35
249.862	2.23
250.243	2.27
250.625	2.59
251.006	2.4
251.388	1.67
251.769	3.25
252.151	1.43
252.532	2.2
252.913	1.89
253.295	2.38
253.676	2.08
254.057	2.48
254.438	1.62
254.819	3.29
255.2	2.84
255.581	2.46
255.962	3.02
256.343	1.63
256.724	2.51
257.105	3.02
257.486	3.39
257.867	2.75
258.247	2.1
258.628	2.54
259.009	3.25
259.389	2.16
259.77	3.11
260.15	2.12
260.531	2.87
260.911	2.19
261.292	2.05
261.672	2.17
262.052	2.14
262.432	2.03
262.813	2.45
263.193	1.97
263.573	2.64
263.953	2.23
264.333	2.87
264.713	1.79
265.093	2.41
265.473	2.67
265.853	2.51
266.233	1.58
266.612	2.31
266.992	1.82
267.372	1.7
267.752	1.93
268.131	2.35
268.511	2.2
268.89	1.61
269.27	2.05
269.649	2.22
270.029	2.79
270.408	1.95
270.787	2.02
271.167	2.59
271.546	2.53
271.925	2.16
272.304	2.11
272.683	2.11
273.062	2.28
273.441	1.97
273.82	2.02
274.199	2.48
274.578	2.26
274.957	1.9
275.336	1.98
275.715	2.57
276.093	2.47
276.472	2.67
276.851	1.7
277.229	2.62
277.608	2.32
277.986	1.7
278.365	2.3
278.743	1.96
279.122	2.42
279.5	1.76
279.878	2.13
280.257	2.33
280.635	3.11
281.013	2.62
281.391	2.11
281.769	1.92
282.147	2.18
282.525	2.47
282.903	2.14
283.281	2.01
283.659	2
284.037	1.56
284.415	2.38
284.792	2.17
285.17	2
285.548	2.21
285.925	1.84
286.303	1.94
286.68	1.56
287.058	1.72
287.435	1.91
287.813	2.25
288.19	1.96
288.567	1.81
288.945	1.65
289.322	1.86
289.699	2.13
290.076	2.14
290.453	1.93
290.83	1.83
291.207	2.18
291.584	2.1
291.961	2.01
292.338	2.3
292.715	2.36
293.092	2.15
293.469	2.19
293.845	2.4
294.222	1.65
294.599	2.69
294.975	2.9
295.352	2.02
295.728	2.59
296.105	2.31
296.481	2.44
296.858	2.62
297.234	2.11
297.61	1.75
297.986	1.58
298.363	2.14
298.739	1.89
299.115	1.97
299.491	2.12
299.867	2.34
300.243	2.13
300.619	1.88
300.995	2.57
301.371	2.13
301.746	1.77
302.122	2.26
302.498	2.09
302.874	2.46
303.249	2.34
303.625	2.16
304	2.34
304.376	2.39
304.751	2.54
305.127	2.41
305.502	2.28
305.878	2.25
306.253	2.05
306.628	2.15
307.003	2.32
307.378	2.46
307.754	1.75
308.129	1.9
308.504	1.97
308.879	2.55
309.254	2.01
309.629	2.63
310.003	2.01
310.378	1.91
310.753	2.27
311.128	2.06
311.502	1.97
311.877	2.3
312.252	2.24
312.626	2.2
313.001	2.11
313.375	2.07
313.75	2.76
314.124	2.01
314.498	2.39
314.873	2.16
315.247	2.14
315.621	2.53
315.995	2.58
316.369	2.15
316.743	2.3
317.117	2.95
317.491	2.83
317.865	2.4
318.239	2.66
318.613	2.51
318.987	2.05
319.361	2.49
319.734	1.99
320.108	2.74
320.482	1.94
320.855	2.66
321.229	2.59
321.602	2.56
321.976	2.53
322.349	2.43
322.723	2.23
323.096	2.57
323.469	2.37
323.843	2.33
324.216	2.03
324.589	2.71
324.962	2.75
325.335	2.15
325.708	2.4
326.081	2.36
326.454	2.44
326.827	2.28
327.2	2.09
327.573	2.24
327.945	2.5
328.318	2.29
328.691	2.64
329.063	2.34
329.436	2.73
329.809	3.02
330.181	2.43
330.553	1.98
330.926	2.47
331.298	2.17
331.671	2.42
332.043	2.38
332.415	2.57
332.787	2.72
333.159	2.25
333.532	2.53
333.904	2.37
334.276	2.99
334.648	2.62
335.02	2.49
335.391	2.88
335.763	2.23
336.135	2.47
336.507	2.59
336.879	2.58
337.25	2.07
337.622	2.26
337.993	2.25
338.365	2.51
338.736	2.63
339.108	2.4
339.479	2.49
339.851	2.39
340.222	2.57
340.593	2.47
340.964	2.09
341.336	2.46
341.707	2.59
342.078	2.32
342.449	2.68
342.82	2.42
343.191	2.28
343.562	2.41
343.933	2.49
344.303	1.99
344.674	2.36
345.045	2.03
345.416	3.13
345.786	2.46
346.157	3.08
346.527	2.57
346.898	2.35
347.268	2.23
347.639	2.32
348.009	2.14
348.38	2.64
348.75	2.84
349.12	2.65
349.49	3.03
349.861	1.96
350.231	2.85
350.601	2.43
350.971	2.46
351.341	2.58
351.711	2.44
352.081	2.41
352.45	2.62
352.82	2.58
353.19	2.8
353.56	2.04
353.929	2.36
354.299	2.67
354.669	2.06
355.038	2.33
355.408	2.92
355.777	2.54
356.147	2.22
356.516	2.54
356.885	2.26
357.254	2.66
357.624	2.37
357.993	1.78
358.362	2.56
358.731	2.37
359.1	2.34
359.469	2.04
359.838	2.7
360.207	2.57
360.576	2.25
360.945	2.67
361.314	2.51
361.682	2.35
362.051	2.61
362.42	2.38
362.788	2.29
363.157	2.48
363.525	2.22
363.894	2.43
364.262	2.51
364.631	2.75
364.999	2.35
365.367	2.67
365.735	2.69
366.104	2.38
366.472	2.75
366.84	2.59
367.208	2.57
367.576	2.85
367.944	2.47
368.312	2.42
368.68	2.47
369.048	2.28
369.416	2.71
369.783	2.58
370.151	2.49
370.519	2.65
370.886	2.8
371.254	2.42
371.621	2.85
371.989	2.84
372.356	2.49
372.724	2.89
373.091	2.41
373.458	2.27
373.826	2.78
374.193	2.97
374.56	2.59
374.927	2.63
375.294	2.93
375.661	2.2
376.028	2.71
376.395	2.38
376.762	2.31
377.129	2.73
377.496	2.8
377.863	2.24
378.229	2.74
378.596	2.51
378.963	2.79
379.329	2.68
379.696	2.62
380.062	2.78
380.429	2.71
380.795	2.51
381.161	2.42
381.528	2.36
381.894	2.44
382.26	2.22
382.626	2.67
382.993	2.51
383.359	2.41
383.725	2.36
384.091	2.43
384.457	2.63
384.823	2.86
385.188	2.7
385.554	2.69
385.92	2.95
386.286	2.65
386.651	2.83
387.017	2.95
387.383	2.62
387.748	2.09
388.114	2.5
388.479	2.47
388.845	2.5
389.21	2.65
389.575	2.56
389.94	2.81
390.306	2.67
390.671	2.67
391.036	2.76
391.401	2.29
391.766	2.69
392.131	2.54
392.496	2.58
392.861	2.51
393.226	2.67
393.591	2.59
393.956	2.75
394.32	2.58
394.685	2.43
395.05	2.68
395.414	2.55
395.779	2.58
396.143	2.86
396.508	2.5
396.872	2.7
397.236	2.69
397.601	2.75
397.965	2.66
398.329	2.54
398.694	2.68
399.058	2.84
399.422	2.9
399.786	2.79
400.15	2.55
400.514	2.79
400.878	2.8
401.242	2.28
401.605	2.51
401.969	2.88
402.333	2.73
402.697	3.06
403.06	2.62
403.424	2.79
403.787	2.85
404.151	2.78
404.514	2.81
404.878	2.79
405.241	2.59
405.604	2.76
405.968	2.71
406.331	2.76
406.694	2.75
407.057	2.64
407.42	2.74
407.783	2.69
408.146	2.54
408.509	2.64
408.872	2.63
409.235	2.75
409.598	2.78
409.961	2.77
410.323	2.9
410.686	2.74
411.049	2.71
411.411	2.89
411.774	2.59
412.136	2.76
412.499	2.56
412.861	2.65
413.223	2.6
413.586	2.58
413.948	2.92
414.31	2.83
414.672	2.78
415.035	2.9
415.397	2.79
415.759	2.82
416.121	2.79
416.483	2.59
416.845	2.76
417.206	2.85
417.568	2.74
417.93	2.5
418.292	2.81
418.653	2.56
419.015	2.8
419.377	2.69
419.738	2.68
420.1	2.84
420.461	2.77
420.822	2.59
421.184	2.81
421.545	2.64
421.906	2.55
422.267	2.68
422.629	2.79
422.99	2.67
423.351	2.72
423.712	2.69
424.073	2.66
424.434	2.69
424.795	2.63
425.155	2.68
425.516	2.7
425.877	2.79
426.238	2.62
426.598	2.76
426.959	2.72
427.32	2.81
427.68	2.76
428.041	2.73
428.401	2.84
428.761	2.86
429.122	2.82
429.482	2.86
429.842	2.95
430.202	2.79
430.563	2.84
430.923	2.79
431.283	2.72
431.643	2.83
432.003	2.76
432.363	2.97
432.722	2.99
433.082	2.87
433.442	2.78
433.802	2.74
434.161	2.74
434.521	2.8
434.881	2.68
435.24	2.76
435.6	2.94
435.959	2.75
436.319	2.66
436.678	2.78
437.037	2.96
437.396	2.91
437.756	2.75
438.115	2.73
438.474	2.81
438.833	2.85
439.192	2.82
439.551	2.92
439.91	2.85
440.269	2.6
440.628	2.88
440.987	2.88
441.345	2.71
441.704	2.82
442.063	2.9
442.421	2.73
442.78	2.87
443.138	2.73
443.497	2.98
443.855	3.02
444.214	2.78
444.572	2.94
444.93	2.77
445.288	2.89
445.647	2.78
446.005	2.87
446.363	2.79
446.721	2.63
447.079	2.81
447.437	2.94
447.795	2.76
448.153	2.69
448.51	2.85
448.868	2.76
449.226	2.73
449.584	2.8
449.941	2.73
450.299	2.88
450.656	2.91
451.014	3.01
451.371	2.92
451.729	2.88
452.086	2.86
452.443	3.02
452.801	3.04
453.158	2.81
453.515	2.81
453.872	3
454.229	2.9
454.586	2.98
454.943	2.83
455.3	2.85
455.657	3.03
456.014	2.82
456.371	2.86
456.727	2.88
457.084	2.83
457.441	2.93
457.797	2.79
458.154	2.75
458.51	2.7
458.867	3.02
459.223	2.9
459.58	3.14
459.936	3.1
460.292	2.99
460.648	2.77
461.005	2.81
461.361	2.83
461.717	2.8
462.073	2.85
462.429	2.93
462.785	2.96
463.141	3.04
463.496	2.92
463.852	2.84
464.208	3.17
464.564	2.75
464.919	2.97
465.275	3.05
465.631	3.07
465.986	2.88
466.342	3.04
466.697	3.16
467.052	3.04
467.408	3.03
467.763	2.93
468.118	3.07
468.473	2.97
468.829	2.85
469.184	3.01
469.539	2.92
469.894	3.1
470.249	3.09
470.603	3.11
470.958	3.08
471.313	3.02
471.668	2.89
472.023	3.05
472.377	2.95
472.732	3.03
473.086	3.09
473.441	3.13
473.795	3.07
474.15	2.97
474.504	3.11
474.859	2.96
475.213	2.98
475.567	3.16
475.921	3.04
476.275	2.89
476.63	3.01
476.984	2.97
477.338	2.88
477.692	3.06
478.045	3.08
478.399	3.06
478.753	3.2
479.107	2.97
479.461	2.98
479.814	2.95
480.168	3.1
480.521	3
480.875	3.21
481.228	3.04
481.582	3.06
481.935	3.01
482.289	3.2
482.642	3.05
482.995	2.99
483.348	3.01
483.701	3.05
484.055	2.92
484.408	2.95
484.761	2.85
485.114	2.78
485.466	2.73
485.819	2.74
486.172	2.88
486.525	2.95
486.878	3
487.23	2.99
487.583	3.02
487.936	3.03
488.288	2.96
488.641	2.81
488.993	2.84
489.345	2.85
489.698	2.86
490.05	2.93
490.402	3.03
490.754	3.05
491.107	3.02
491.459	3.03
491.811	2.99
492.163	3.07
492.515	2.95
492.866	2.87
493.218	2.88
493.57	2.89
493.922	2.95
494.274	3.03
494.625	3.17
494.977	3.14
495.328	3.14
495.68	2.99
496.031	3.1
496.383	3.17
496.734	3.28
497.086	3.12
497.437	3.19
497.788	3.18
498.139	3.05
498.49	3.03
498.842	3.14
499.193	3.17
499.544	3.14
499.894	3.18
500.245	3.12
500.596	3.21
500.947	3.13
501.298	3.27
501.648	3.18
501.999	3.24
502.35	3.05
502.7	3.3
503.051	3.21
503.401	3.21
503.752	3.26
504.102	3.33
504.452	3.24
504.803	3.19
505.153	3.31
505.503	3.28
505.853	3.23
506.203	3.07
506.553	3.18
506.903	3.23
507.253	3.23
507.603	3.41
507.953	3.38
508.303	3.39
508.652	3.28
509.002	3.29
509.352	3.28
509.701	3.14
510.051	3.32
510.4	3.27
510.75	3.29
511.099	3.1
511.449	3.27
511.798	3.17
512.147	3.23
512.496	3.23
512.846	3.29
513.195	3.3
513.544	3.29
513.893	3.32
514.242	3.25
514.591	3.26
514.939	3.29
515.288	3.36
515.637	3.2
515.986	3.34
516.334	3.32
516.683	3.15
517.032	3.29
517.38	3.4
517.729	3.36
518.077	3.36
518.426	3.32
518.774	3.39
519.122	3.29
519.47	3.33
519.819	3.37
520.167	3.33
520.515	3.32
520.863	3.4
521.211	3.42
521.559	3.35
521.907	3.48
522.255	3.37
522.602	3.37
522.95	3.49
523.298	3.42
523.645	3.37
523.993	3.53
524.341	3.54
524.688	3.51
525.036	3.32
525.383	3.26
525.73	3.45
526.078	3.51
526.425	3.34
526.772	3.45
527.119	3.23
527.466	3.3
527.814	3.38
528.161	3.31
528.508	3.4
528.854	3.41
529.201	3.37
529.548	3.3
529.895	3.27
530.242	3.21
530.588	3.25
530.935	3.38
531.282	3.4
531.628	3.42
531.975	3.53
532.321	3.43
532.667	3.56
533.014	3.59
533.36	3.54
533.706	3.55
534.052	3.5
534.399	3.46
534.745	3.41
535.091	3.43
535.437	3.5
535.783	3.55
536.129	3.57
536.474	3.57
536.82	3.6
537.166	3.64
537.512	3.56
537.857	3.62
538.203	3.54
538.549	3.55
538.894	3.63
539.239	3.68
539.585	3.67
539.93	3.7
540.276	3.72
540.621	3.81
540.966	3.69
541.311	3.7
541.656	3.75
542.001	3.72
542.346	3.7
542.691	3.51
543.036	3.49
543.381	3.55
543.726	3.59
544.071	3.68
544.415	3.71
544.76	3.74
545.105	3.71
545.449	3.76
545.794	3.73
546.138	3.83
546.483	3.9
546.827	3.76
547.171	3.86
547.516	3.83
547.86	3.87
548.204	3.84
548.548	3.83
548.892	3.92
549.236	3.86
549.58	3.97
549.924	3.98
550.268	4.12
550.612	4.06
550.956	4.06
551.3	4.11
551.643	4.22
551.987	4.04
552.33	4.04
552.674	4.1
553.017	4.06
553.361	3.96
553.704	4.19
554.048	4.04
554.391	4.01
554.734	4.09
555.077	4.21
555.42	4.29
555.764	4.18
556.107	4.16
556.45	4.1
556.793	4.2
557.135	4.29
557.478	4.25
557.821	4.39
558.164	4.24
558.507	4.3
558.849	4.33
559.192	4.17
559.534	4.35
559.877	4.42
560.219	4.29
560.562	4.46
560.904	4.29
561.246	4.41
561.589	4.16
561.931	4.36
562.273	4.4
562.615	4.33
562.957	4.53
563.299	4.43
563.641	4.28
563.983	4.27
564.325	4.35
564.667	4.62
565.008	4.34
565.35	4.26
565.692	4.64
566.033	4.4
566.375	4.36
566.716	4.63
567.058	4.66
567.399	4.51
567.741	4.57
568.082	4.68
568.423	4.54
568.764	4.8
569.105	4.44
569.447	4.54
569.788	4.66
570.129	4.73
570.47	4.49
570.811	4.6
571.151	4.88
571.492	4.84
571.833	4.71
572.174	4.65
572.514	4.89
572.855	4.66
573.195	4.59
573.536	4.82
573.876	4.75
574.217	4.76
574.557	4.82
574.898	4.87
575.238	5.01
575.578	5.08
575.918	4.84
576.258	4.96
576.598	4.95
576.938	4.93
577.278	5.08
577.618	5.07
577.958	4.99
578.298	5.18
578.638	5.2
578.977	5.11
579.317	5.18
579.657	5.36
579.996	5.08
580.336	5.25
580.675	5.18
581.014	5.06
581.354	5.29
581.693	5.32
582.032	5.32
582.372	5.16
582.711	5.24
583.05	5.27
583.389	5.23
583.728	5.39
584.067	5.38
584.406	5.17
584.745	5.46
585.083	5.29
585.422	5.38
585.761	5.39
586.1	5.37
586.438	5.62
586.777	5.71
587.115	5.55
587.454	5.5
587.792	5.43
588.13	5.77
588.469	5.66
588.807	5.35
589.145	5.74
589.483	5.88
589.821	5.74
590.159	5.93
590.497	5.61
590.835	5.55
591.173	5.73
591.511	5.77
591.849	5.87
592.187	5.86
592.524	5.92
592.862	6.04
593.2	6.07
593.537	5.64
593.875	6.19
594.212	5.75
594.55	5.94
594.887	5.97
595.224	6.03
595.561	5.92
595.899	6.09
596.236	6.15
596.573	6.01
596.91	5.96
597.247	5.91
597.584	6.29
597.921	6.11
598.258	5.92
598.594	6.01
598.931	6.11
599.268	6.02
599.604	6.18
599.941	6.37
600.277	6.41
600.614	6.56
600.95	6.48
601.287	6.14
601.623	6.16
601.959	6.44
602.296	6.4
602.632	6.2
602.968	6.54
603.304	6.5
603.64	6.84
603.976	6.33
604.312	6.35
604.648	6.66
604.984	6.5
605.319	6.48
605.655	6.61
605.991	6.65
606.326	6.62
606.662	6.76
606.998	6.48
607.333	6.66
607.668	6.76
608.004	7.02
608.339	6.84
608.674	7.05
609.01	6.71
609.345	6.65
609.68	6.75
610.015	6.9
610.35	6.61
610.685	6.73
611.02	6.76
611.355	6.8
611.689	6.8
612.024	7.12
612.359	7.38
612.694	7.18
613.028	7.08
613.363	6.85
613.697	7.23
614.032	7.43
614.366	7.29
614.7	7
615.035	7.63
615.369	7.23
615.703	7.18
616.037	7.35
616.371	7.39
616.705	7.4
617.039	7.6
617.373	7.52
617.707	7.39
618.041	7.44
618.375	7.5
618.709	7.79
619.042	7.4
619.376	7.86
619.71	7.74
620.043	8.13
620.377	7.99
620.71	7.93
621.043	7.79
621.377	7.56
621.71	7.76
622.043	7.78
622.376	7.73
622.709	7.86
623.043	7.92
623.376	7.85
623.709	7.95
624.041	8.17
624.374	8.07
624.707	7.85
625.04	7.93
625.373	8.19
625.705	7.8
626.038	8.01
626.37	8.17
626.703	8.15
627.035	8.35
627.368	8.11
627.7	8.36
628.032	8.01
628.365	8.3
628.697	8.36
629.029	8.31
629.361	8.28
629.693	8.61
630.025	8.51
630.357	8.44
630.689	8.47
631.021	8.33
631.353	8.48
631.684	8.63
632.016	8.69
632.348	8.44
632.679	8.47
633.011	8.46
633.342	8.71
633.674	9.09
634.005	9.1
634.336	8.77
634.668	8.57
634.999	8.68
635.33	9.11
635.661	8.97
635.992	8.91
636.323	8.8
636.654	8.79
636.985	8.86
637.316	9.57
637.647	9.07
637.977	9.44
638.308	9.01
638.639	8.88
638.969	9.05
639.3	9.16
639.63	9.01
639.961	9.17
640.291	8.87
640.622	9.45
640.952	9.57
641.282	9.67
641.612	9.36
641.943	9.8
642.273	9.21
642.603	9.4
642.933	9.05
643.263	9.63
643.592	9.83
643.922	9.38
644.252	9.71
644.582	9.79
644.911	9.97
645.241	9.85
645.571	9.73
645.9	9.64
646.23	9.71
646.559	9.24
646.888	9.68
647.218	9.54
647.547	10.15
647.876	10.13
648.205	9.9
648.534	9.76
648.863	10.03
649.192	9.9
649.521	10.26
649.85	10.07
650.179	10.08
650.508	9.97
650.837	10.45
651.165	10.07
651.494	10.5
651.822	10.56
652.151	10.43
652.479	10.69
652.808	10.48
653.136	10.56
653.465	9.96
653.793	10.28
654.121	10.45
654.449	10.36
654.777	10.36
655.105	10.53
655.433	10.31
655.761	10.9
656.089	11.04
656.417	10.81
656.745	10.97
657.073	10.54
657.4	11.03
657.728	11.01
658.056	10.87
658.383	11.02
658.711	11.14
659.038	10.5
659.365	10.72
659.693	10.92
660.02	10.88
660.347	10.98
660.674	10.85
661.001	11.12
661.329	10.72
661.656	10.92
661.982	11.25
662.309	11.28
662.636	11.28
662.963	11.33
663.29	10.91
663.616	11.15
663.943	11.66
664.27	10.72
664.596	10.86
664.923	11.55
665.249	11.96
665.576	11.72
665.902	11.81
666.228	11.95
666.554	11.41
666.881	11.81
667.207	12.14
667.533	12.11
667.859	12.41
668.185	11.42
668.511	12.06
668.837	12.11
669.162	12.27
669.488	11.85
669.814	11.65
670.139	11.95
670.465	12.1
670.791	11.71
671.116	12.08
671.442	12.54
671.767	12.34
672.092	12.14
672.418	11.5
672.743	12.54
673.068	12.41
673.393	12.31
673.718	12.32
674.043	12.54
674.368	13.1
674.693	12.02
675.018	12.36
675.343	12.15
675.667	12.99
675.992	12.74
676.317	12.56
676.641	12.72
676.966	12.57
677.29	12.69
677.615	12.15
677.939	12.96
678.264	12.89
678.588	12.91
678.912	13.01
679.236	12.98
679.56	13.19
679.885	13.43
680.209	12.89
680.532	13.53
680.856	13.27
681.18	13.33
681.504	12.46
681.828	12.87
682.152	13.06
682.475	13.08
682.799	13.44
683.122	13.92
683.446	13.44
683.769	13.93
684.093	13.83
684.416	13.49
684.739	13.58
685.062	13.95
685.386	14.21
685.709	12.99
686.032	13.59
686.355	13.13
686.678	13.95
687.001	13.49
687.324	13.75
687.646	13.06
687.969	13.81
688.292	14.23
688.614	13.54
688.937	14.23
689.26	13.45
689.582	13.82
689.904	14.18
690.227	14.18
690.549	13.87
690.871	14.1
691.194	14.71
691.516	14.13
691.838	13.9
692.16	14.63
692.482	14.59
692.804	15.02
693.126	14.33
693.448	13.29
693.769	14.04
694.091	14.72
694.413	14.45
694.735	14.98
695.056	14.68
695.378	14.53
695.699	14.84
696.021	13.94
696.342	14.32
696.663	14.77
696.984	14.5
697.306	14.9
697.627	14.71
697.948	15.21
698.269	14.77
698.59	15.27
698.911	14.62
699.232	15.59
699.553	15.89
699.873	14.53
700.194	15.24
700.515	14.95
700.835	14.25
701.156	15.35
701.477	15
701.797	14.81
702.117	15.77
702.438	15.02
702.758	15.15
703.078	15.67
703.398	15.13
703.719	15.74
704.039	15.52
704.359	15.97
704.679	16.61
704.999	15.55
705.319	15.6
705.638	15.94
705.958	16.38
706.278	16.74
706.597	16.31
706.917	15.51
707.237	15.1
707.556	15.03
707.876	16.04
708.195	16.03
708.514	15.93
708.834	15.69
709.153	16.37
709.472	15.98
709.791	16.45
710.11	15.68
710.429	15.24
710.748	15.93
711.067	15.6
711.386	16.72
711.705	17.24
712.023	16.59
712.342	17.01
712.661	16.07
712.979	16.65
713.298	16.4
713.616	16.24
713.935	16.99
714.253	17.38
714.572	16.89
714.89	17.13
715.208	16.75
715.526	16.95
715.844	17.61
716.162	17.68
716.48	16.15
716.798	16.84
717.116	17.43
717.434	17.16
717.752	16.24
718.069	17.72
718.387	16.44
718.705	18.51
719.022	18.68
719.34	18.31
719.657	17.34
719.975	17.3
720.292	17.01
720.609	17.03
720.927	17.27
721.244	17.9
721.561	16.79
721.878	19.01
722.195	17.77
722.512	17.83
722.829	18.29
723.146	17.78
723.463	18.61
723.779	18.26
724.096	17.28
724.413	18.62
724.729	18.53
725.046	16.1
725.362	19.64
725.679	18.44
725.995	19.31
726.311	17.47
726.628	19.06
726.944	18.65
727.26	18.1
727.576	17.73
727.892	19.26
728.208	17.69
728.524	18.61
728.84	18.44
729.156	19.04
729.472	17.46
729.787	19.28
730.103	19.63
730.419	18.09
730.734	19.34
731.05	19.77
731.365	19.1
731.681	19.4
731.996	18.44
732.311	19.65
732.626	19.95
732.942	20.51
733.257	18.96
733.572	20.2
733.887	18.65
734.202	20.18
734.517	19.52
734.832	19.71
735.146	19.38
735.461	18.96
735.776	19.03
736.091	19.61
736.405	19.37
736.72	19.38
737.034	19.61
737.349	18.79
737.663	20.84
737.977	19.78
738.292	19.94
738.606	19.29
738.92	19.9
739.234	19.71
739.548	19.45
739.862	21.06
740.176	19.8
740.49	20.93
740.804	20.21
741.117	20.48
741.431	20.01
741.745	18.6
742.058	21.78
742.372	19.81
742.685	20.41
742.999	21.36
743.312	22.06
743.626	21.72
743.939	21.36
744.252	20.93
744.565	20.85
744.878	21.29
745.191	20.01
745.505	19.86
745.817	19.68
746.13	20.11
746.443	21.46
746.756	21.56
747.069	20.61
747.381	20.11
747.694	19.89
748.007	19.83
748.319	20.4
748.632	22.4
748.944	23
749.256	22.67
749.569	19.8
749.881	20.66
750.193	20.21
750.505	22.28
750.817	19.95
751.129	20.96
751.441	21.95
751.753	22.26
752.065	22.22
752.377	21.77
752.689	23.71
753	23.23
753.312	23.86
753.624	20.88
753.935	22.14
754.247	21.01
754.558	20.95
754.869	21.58
755.181	20.56
755.492	21.36
755.803	21.45
756.114	21.67
756.425	22.43
756.736	21.79
757.047	22.45
757.358	24.1
757.669	22.41
757.98	24.49
758.291	24.37
758.601	21.97
758.912	23.4
759.223	24.7
759.533	21.62
759.844	24.38
760.154	22.38
760.464	23.8
760.775	24.07
761.085	23.22
761.395	22.22
761.705	23.14
762.016	23.57
762.326	21.89
762.636	23.3
762.945	23.63
763.255	22.57
763.565	23.48
763.875	23.05
764.185	23.42
764.494	21.44
764.804	23.74
765.113	24.06
765.423	23.72
765.732	23.9
766.042	23.92
766.351	24.56
766.66	23.45
766.97	23.76
767.279	25.18
767.588	23.62
767.897	24.25
768.206	22.89
768.515	25.07
768.824	24.72
769.133	23.69
769.441	24.22
769.75	23.4
770.059	23.83
770.367	22.73
770.676	21.43
770.984	24.32
771.293	24.14
771.601	23.51
771.91	24.66
772.218	26.2
772.526	22.74
772.834	25.58
773.142	26.25
773.45	26.54
773.758	21.75
774.066	23.58
774.374	23.12
774.682	24.54
774.99	23.31
775.298	25.21
775.605	25.69
775.913	24.07
776.22	22.85
776.528	26.69
776.835	26.55
777.143	25.81
777.45	25.76
777.757	29.55
778.065	20.94
778.372	24.61
778.679	26.34
778.986	26.07
779.293	25.81
779.6	26.52
779.907	26.19
780.214	22.92
780.52	23.83
780.827	26.93
781.134	26.6
781.44	24.73
781.747	24.75
782.053	26.82
782.36	26.31
782.666	28.01
782.973	24.59
783.279	24.92
783.585	24.14
783.891	24.94
784.197	24.71
784.503	28.31
784.809	27.39
785.115	24.94
785.421	28.17
785.727	28.85
786.033	24.6
786.339	25.38
786.644	24.64
786.95	27.73
787.255	28.81
787.561	24.95
787.866	26.48
788.172	24.69
788.477	28.69
788.782	25.99
789.088	28.83
789.393	29.37
789.698	24.24
790.003	27.86
790.308	25.8
790.613	24.68
790.918	25.98
791.223	29.23
791.527	28.99
791.832	28.82
792.137	27.33
792.441	31.27
792.746	27.37
793.05	30.42
793.355	24.54
793.659	25.54
793.963	29.2
794.268	31.74
794.572	27.9
794.876	28.24
795.18	24.54
795.484	28.49
795.788	25.25
796.092	28.89
796.396	26.82
796.7	27.7
797.004	29.76
797.307	25.69
797.611	25.95
797.915	24.61
798.218	28.02
798.522	26.28
798.825	26.1
799.128	28.61
799.432	29.73
799.735	27.1
800.038	29.94
800.341	24.4
800.644	26.13
800.947	27.87
801.25	33.4
801.553	32.52
801.856	28.04
802.159	30.64
802.462	28.84
802.764	26.17
803.067	33.07
803.37	27.34
803.672	24.48
803.975	25.72
804.277	25.98
804.579	28.04
804.882	30.61
805.184	31.15
805.486	30.03
805.788	27.76
806.09	27.92
806.392	27.79
806.694	30.63
806.996	34.07
807.298	29.44
807.6	30.03
807.902	25.05
808.203	24.63
808.505	29.23
808.807	33.64
809.108	25.72
809.409	28.44
809.711	28.06
810.012	29.3
810.313	29.22
810.615	33.67
810.916	33.51
811.217	34.49
811.518	30.53
811.819	29.03
812.12	31.39
812.421	31.33
812.722	34.02
813.023	29.05
813.323	33.64
813.624	34.03
813.925	23.28
814.225	30.21
814.526	28.54
814.826	34.08
815.126	27.81
815.427	32.12
815.727	36.63
816.027	32.63
816.327	32.13
816.627	31.98
816.927	34.01
817.227	29.89
817.527	35.45
817.827	32.7
818.127	32.52
818.427	25.92
818.727	23.79
819.026	33.36
819.326	29.67
819.625	30.78
819.925	29.61
820.224	33.64
820.524	36.8
820.823	33.19
821.122	30.26
821.421	35.24
821.72	35.88
822.019	30.39
822.318	28.05
822.617	36
822.916	33.17
823.215	33.53
823.514	29.75
823.813	33.41
824.111	33.64
824.41	31.38
824.709	33.49
825.007	33.39
825.306	33.54
825.604	32.71
825.902	33.77
826.201	32.11
826.499	33.97
826.797	32.32
827.095	34.03
827.393	34.6
827.691	35.18
827.989	31.29
828.287	32.17
828.585	33.93
828.882	33.66
829.18	32.52
829.478	34.84
829.775	32.84
830.073	33.57
830.37	31.89
830.668	33.02
830.965	32.71
831.263	33.98
831.56	34.8
831.857	36.16
832.154	33.26
832.451	33.46
832.748	41.76
833.045	31.94
833.342	30.67
833.639	32.28
833.936	30.43
834.232	33.41
834.529	30.94
834.826	39.74
835.122	34.47
835.419	35.07
835.715	35.61
836.012	34.97
836.308	36.16
836.604	35.48
836.901	32.49
837.197	31.84
837.493	33.56
837.789	33.84
838.085	32.84
838.381	35.28
838.677	34.86
838.972	34.36
839.268	39.01
839.564	36.52
839.86	32.83
840.155	34.15
840.451	35.83
840.746	44.14
841.042	42.41
841.337	41.24
841.632	32.6
841.928	41.32
842.223	35.53
842.518	33.3
842.813	28.82
843.108	37.91
843.403	34.57
843.698	36.26
843.993	32.13
844.287	25.42
844.582	31
844.877	36.44
845.171	35.6
845.466	35.92
845.761	41.68
846.055	35.07
846.349	27.4
846.644	26.47
846.938	36.74
847.232	18.19
847.526	31.5
847.82	35.32
848.114	36.24
848.408	38.34
848.702	29.96
848.996	41.39
849.29	49.26
849.584	32.9
849.877	34.27
850.171	33.61
850.465	40.75
850.758	37.25
851.052	20.86
851.345	34.11
851.638	13.43
851.932	47.13
852.225	40.88
852.518	31.28
852.811	26.02
853.104	16.76
853.397	33.39
853.69	34.38
853.983	60.47
854.276	40.5
854.569	15.49
854.861	43.51
855.154	31.29
855.447	41.37
855.739	55.81
856.032	32.38
856.324	39.18
856.616	46.32
856.909	39.3
857.201	28.46
857.493	27.74
857.785	44.55
858.077	39.8
858.369	13.12
858.661	42.97
858.953	39.32
859.245	27.68
859.537	27.32
859.829	43.82
860.12	39.73
860.412	17.6
860.703	26.21
860.995	37.25
861.286	24.81
861.578	35.37
861.869	33.67
862.16	29.22
862.452	40.7
862.743	9.31
863.034	25.59
863.325	45.89
863.616	37.61
863.907	30.49
864.198	24.72
864.488	37.08
864.779	24.29
865.07	47.68
865.36	31.6
865.651	46.9
865.941	40.38
866.232	32.31
866.522	47.57
866.813	37.47
867.103	33.18
867.393	34.3
867.683	34.86
867.973	53.49
868.263	21.16
868.553	39.53
868.843	32.97
869.133	21.8
869.423	65.61
869.713	32.86
870.002	38.96
870.292	35.47
870.582	36.44
870.871	27.16
871.161	39.53
871.45	28.83
871.739	11.94
872.029	45.13
872.318	56.11
872.607	30.74
872.896	42.74
873.185	39.95
873.474	44.56
873.763	-5.58
874.052	24.09
874.341	50.95
874.63	49.02
874.918	62.61
875.207	31.96
875.496	55.3
875.784	47.56
876.073	33
876.361	45.68
876.649	48.91
876.938	29.87
877.226	15.66
877.514	42.59
877.802	42.94
878.09	52.08
878.378	47
878.666	40.01
878.954	53.38
879.242	29.77
879.53	66.63
879.817	34.99
880.105	48.83
880.392	28.19
880.68	43.03
880.967	27.33
881.255	54.92
881.542	25.48
881.83	38.02
882.117	32.94
882.404	54.77
882.691	44.95
882.978	48.59
883.265	46.28
883.552	35.29
883.839	38.76
884.126	33.94
884.413	46.57
884.699	48.56
884.986	47.67
885.273	50.95
885.559	50.95
885.846	50.95
