Data from 1897-1_forehead_Reflection__0__36.txt Node

Date: Fri Sep 30 18:03:27 CDT 2022
User: ToomeyLab
Spectrometer: FLMS14357
Trigger mode: 0
Integration Time (sec): 1.000000E-2
Scans to average: 100
Electric dark correction enabled: true
Nonlinearity correction enabled: false
Boxcar width: 0
XAxis mode: Wavelengths
Number of Pixels in Spectrum: 2048
>>>>>Begin Spectral Data<<<<<
189.047	627.18
189.435	627.18
189.823	627.18
190.211	118.98
190.599	97.13
190.987	162.35
191.375	94.09
191.763	9.37
192.151	-91.81
192.538	68.42
192.926	-146.53
193.314	43.91
193.702	666.67
194.089	100.33
194.477	89.53
194.864	-39.86
195.252	-57.5
195.639	-20.75
196.027	-181.16
196.414	137.11
196.801	251.64
197.189	0.73
197.576	-14.52
197.963	127.22
198.351	21.19
198.738	-29.25
199.125	42.2
199.512	13.79
199.899	12.55
200.286	47.97
200.673	34.87
201.06	9.17
201.447	29.82
201.833	52.6
202.22	36.32
202.607	14.81
202.994	62.47
203.38	22.93
203.767	0.93
204.154	28.21
204.54	27.74
204.927	49.65
205.313	-29.24
205.699	25.69
206.086	-11.58
206.472	-0.54
206.858	10.72
207.245	19.56
207.631	52.51
208.017	11.17
208.403	22.4
208.789	23.9
209.175	34.4
209.561	-15.18
209.947	7.59
210.333	-8.99
210.719	8.27
211.105	-1.27
211.491	10.89
211.876	24.75
212.262	44.11
212.648	55.92
213.034	-10.43
213.419	21.27
213.805	21.84
214.19	25.05
214.576	18.21
214.961	1.73
215.346	38.65
215.732	23.74
216.117	22.78
216.502	13.66
216.888	15.7
217.273	4.61
217.658	23.01
218.043	19.87
218.428	12.24
218.813	17.35
219.198	22.47
219.583	23.62
219.968	31.07
220.353	31.58
220.738	17.62
221.122	30.53
221.507	29.76
221.892	20.11
222.276	7.3
222.661	10.86
223.046	-6.79
223.43	-6.06
223.815	12.17
224.199	17.96
224.583	6.8
224.968	2.3
225.352	3.33
225.736	8.34
226.121	10.28
226.505	5.14
226.889	8.44
227.273	0.73
227.657	5.27
228.041	1.72
228.425	6.79
228.809	4.93
229.193	5.65
229.577	2.37
229.961	3.37
230.344	2.98
230.728	2.24
231.112	3.08
231.495	2.61
231.879	4.44
232.263	3
232.646	1.57
233.03	3.18
233.413	3.34
233.797	3.78
234.18	3.27
234.563	4.46
234.946	4
235.33	3.38
235.713	4.84
236.096	3.83
236.479	3.59
236.862	3.12
237.245	3.99
237.628	2.78
238.011	4.45
238.394	3.28
238.777	0.96
239.16	2.07
239.543	3.01
239.925	2.94
240.308	2.35
240.691	4.3
241.073	4.09
241.456	3.28
241.838	4.66
242.221	3.18
242.603	4.3
242.986	3.06
243.368	2.51
243.75	2.27
244.133	3.19
244.515	2.94
244.897	3.29
245.279	3.58
245.661	3
246.043	2.92
246.425	2.32
246.807	2.9
247.189	3.59
247.571	3.24
247.953	2.91
248.335	2.86
248.717	2.66
249.098	3.03
249.48	2.87
249.862	2.78
250.243	2.51
250.625	3.57
251.006	2.54
251.388	2.37
251.769	3.95
252.151	3.1
252.532	3.04
252.913	2.51
253.295	3.52
253.676	2.47
254.057	3.02
254.438	2.92
254.819	3.49
255.2	3.19
255.581	3.74
255.962	3.62
256.343	2.83
256.724	3.57
257.105	3.14
257.486	3.75
257.867	3.41
258.247	2.57
258.628	3.24
259.009	4.29
259.389	3.29
259.77	2.96
260.15	2.77
260.531	3.47
260.911	2.64
261.292	2.56
261.672	2.63
262.052	2.77
262.432	2.72
262.813	2.91
263.193	2.69
263.573	2.85
263.953	2.66
264.333	3.41
264.713	2.41
265.093	2.75
265.473	2.03
265.853	3.06
266.233	2.64
266.612	2.73
266.992	2.14
267.372	2.44
267.752	2.27
268.131	3.42
268.511	2.3
268.89	2.36
269.27	2.74
269.649	2.43
270.029	2.83
270.408	2.25
270.787	2.89
271.167	2.69
271.546	3.16
271.925	3.15
272.304	2.7
272.683	2.45
273.062	2.66
273.441	2.35
273.82	2.14
274.199	2.7
274.578	2.8
274.957	2.57
275.336	2.58
275.715	2.88
276.093	2.57
276.472	3.02
276.851	2.74
277.229	2.92
277.608	2.32
277.986	2.63
278.365	2.87
278.743	2.28
279.122	2.62
279.5	2.67
279.878	2.36
280.257	2.54
280.635	3.11
281.013	3.77
281.391	2.79
281.769	2.85
282.147	2.21
282.525	2.86
282.903	2.53
283.281	2.38
283.659	2.88
284.037	2.4
284.415	2.81
284.792	2.59
285.17	2.47
285.548	2.71
285.925	2.34
286.303	2.17
286.68	2.37
287.058	2.51
287.435	2.92
287.813	2.78
288.19	2.49
288.567	2.5
288.945	2.05
289.322	2.61
289.699	2.6
290.076	2.41
290.453	2.86
290.83	2.42
291.207	2.14
291.584	2.29
291.961	2.45
292.338	3.07
292.715	2.99
293.092	2.57
293.469	2.7
293.845	3.05
294.222	2.7
294.599	3.69
294.975	3.52
295.352	3.12
295.728	2.77
296.105	2.68
296.481	3.12
296.858	3.21
297.234	3.04
297.61	2.95
297.986	2.68
298.363	2.7
298.739	2.77
299.115	2.68
299.491	3
299.867	2.98
300.243	2.69
300.619	2.96
300.995	3.82
301.371	3.18
301.746	2.9
302.122	3.23
302.498	2.88
302.874	3.28
303.249	3.26
303.625	3.47
304	3.56
304.376	3.29
304.751	3.21
305.127	2.94
305.502	3.74
305.878	3.95
306.253	3.18
306.628	3.22
307.003	3.51
307.378	3.55
307.754	3.35
308.129	3.31
308.504	3.21
308.879	4.11
309.254	3.57
309.629	3.78
310.003	3.61
310.378	3.51
310.753	3.7
311.128	3.37
311.502	3.81
311.877	4.08
312.252	4.04
312.626	4.14
313.001	3.91
313.375	3.85
313.75	4.42
314.124	4.32
314.498	3.82
314.873	4.27
315.247	4.41
315.621	4.7
315.995	4.51
316.369	4.7
316.743	4.48
317.117	4.81
317.491	5.49
317.865	4.87
318.239	5.05
318.613	4.99
318.987	4.68
319.361	4.67
319.734	4.36
320.108	4.64
320.482	4.55
320.855	5.14
321.229	5.48
321.602	5.15
321.976	5.08
322.349	4.79
322.723	5.07
323.096	5.69
323.469	5.57
323.843	5.46
324.216	5.02
324.589	5.6
324.962	5.69
325.335	5.12
325.708	5.27
326.081	5.72
326.454	5.71
326.827	5.69
327.2	5.72
327.573	5.27
327.945	5.49
328.318	5.3
328.691	5.79
329.063	5.9
329.436	5.22
329.809	6.01
330.181	5.94
330.553	5.49
330.926	6.07
331.298	5.54
331.671	6.17
332.043	5.82
332.415	5.82
332.787	5.57
333.159	6.14
333.532	6.13
333.904	5.96
334.276	5.86
334.648	5.33
335.02	6.01
335.391	6.08
335.763	6.21
336.135	6.6
336.507	6.31
336.879	6.35
337.25	5.73
337.622	6.12
337.993	5.86
338.365	6.07
338.736	6.32
339.108	6.09
339.479	6.56
339.851	6.08
340.222	6.87
340.593	6.18
340.964	6.45
341.336	6.7
341.707	6.42
342.078	6.6
342.449	6.67
342.82	6.46
343.191	6.73
343.562	6.91
343.933	6.57
344.303	6.42
344.674	6.83
345.045	6.46
345.416	6.89
345.786	7.04
346.157	7.23
346.527	6.57
346.898	6.49
347.268	6.97
347.639	6.56
348.009	6.92
348.38	7.11
348.75	7.43
349.12	7.19
349.49	7.3
349.861	6.58
350.231	7.11
350.601	7.33
350.971	7.05
351.341	7.13
351.711	7.23
352.081	7.3
352.45	7.52
352.82	7.41
353.19	7.33
353.56	7.38
353.929	7.11
354.299	7.33
354.669	7.12
355.038	6.96
355.408	7.5
355.777	6.78
356.147	7.28
356.516	7.48
356.885	7.31
357.254	7.56
357.624	7.27
357.993	7.02
358.362	7.55
358.731	7.54
359.1	7.37
359.469	7.15
359.838	7.77
360.207	7.47
360.576	7.58
360.945	7.5
361.314	7.38
361.682	7.77
362.051	7.71
362.42	7.63
362.788	7.59
363.157	7.5
363.525	7.36
363.894	7.53
364.262	7.89
364.631	8.11
364.999	7.74
365.367	8.24
365.735	7.59
366.104	7.9
366.472	7.95
366.84	7.78
367.208	7.97
367.576	8.51
367.944	7.97
368.312	7.69
368.68	7.65
369.048	7.71
369.416	8.22
369.783	8.26
370.151	7.96
370.519	8.43
370.886	8.43
371.254	8.07
371.621	8.32
371.989	8.64
372.356	8
372.724	8.4
373.091	8.11
373.458	8.37
373.826	8.63
374.193	8.49
374.56	8.76
374.927	9.09
375.294	8.52
375.661	8.15
376.028	8.61
376.395	8.42
376.762	8.31
377.129	8.88
377.496	8.7
377.863	8.29
378.229	8.9
378.596	8.71
378.963	8.7
379.329	8.54
379.696	9.07
380.062	8.83
380.429	9
380.795	8.91
381.161	8.8
381.528	8.88
381.894	8.68
382.26	8.67
382.626	8.94
382.993	9.16
383.359	8.94
383.725	8.84
384.091	9.02
384.457	9.38
384.823	9.31
385.188	9.48
385.554	9.11
385.92	9.26
386.286	9.3
386.651	9.21
387.017	9.11
387.383	9.26
387.748	8.94
388.114	9.34
388.479	9.26
388.845	9.27
389.21	9.48
389.575	9.25
389.94	9.32
390.306	9.38
390.671	9.57
391.036	9.49
391.401	9.31
391.766	9.53
392.131	9.47
392.496	9.5
392.861	9.63
393.226	9.49
393.591	9.35
393.956	9.59
394.32	9.6
394.685	9.75
395.05	9.74
395.414	9.72
395.779	9.67
396.143	9.74
396.508	9.73
396.872	9.72
397.236	9.71
397.601	9.89
397.965	9.84
398.329	9.79
398.694	10.11
399.058	9.95
399.422	9.92
399.786	9.84
400.15	9.83
400.514	9.94
400.878	10.09
401.242	9.93
401.605	9.92
401.969	10.11
402.333	10.17
402.697	10.12
403.06	10.26
403.424	10.33
403.787	10.17
404.151	10.34
404.514	9.95
404.878	10.19
405.241	10.37
405.604	10.38
405.968	10.21
406.331	10.33
406.694	10.11
407.057	10.05
407.42	10.47
407.783	10.31
408.146	10.37
408.509	10.46
408.872	10.48
409.235	10.55
409.598	10.6
409.961	10.52
410.323	10.42
410.686	10.57
411.049	10.52
411.411	10.63
411.774	10.53
412.136	10.65
412.499	10.7
412.861	10.64
413.223	10.59
413.586	10.76
413.948	10.78
414.31	10.8
414.672	10.76
415.035	11.06
415.397	10.9
415.759	10.82
416.121	10.75
416.483	10.73
416.845	10.9
417.206	10.79
417.568	10.77
417.93	10.73
418.292	10.91
418.653	10.84
419.015	11.03
419.377	11.05
419.738	10.81
420.1	11
420.461	10.98
420.822	10.86
421.184	10.91
421.545	11
421.906	10.87
422.267	10.78
422.629	11.02
422.99	10.98
423.351	10.99
423.712	11.01
424.073	11.13
424.434	11.24
424.795	11.18
425.155	11.14
425.516	11.13
425.877	11.22
426.238	11.14
426.598	11.25
426.959	11.27
427.32	11.46
427.68	11.48
428.041	11.41
428.401	11.79
428.761	11.69
429.122	11.78
429.482	11.59
429.842	11.8
430.202	11.73
430.563	11.86
430.923	11.73
431.283	11.79
431.643	11.89
432.003	11.85
432.363	12.02
432.722	12.19
433.082	12.09
433.442	12.06
433.802	12.02
434.161	12.02
434.521	11.99
434.881	11.99
435.24	12
435.6	12.12
435.959	12.05
436.319	12.37
436.678	12.14
437.037	12.3
437.396	12.48
437.756	12.19
438.115	12.17
438.474	12.31
438.833	12.51
439.192	12.42
439.551	12.39
439.91	12.25
440.269	12.33
440.628	12.3
440.987	12.5
441.345	12.47
441.704	12.48
442.063	12.63
442.421	12.58
442.78	12.55
443.138	12.47
443.497	12.67
443.855	12.62
444.214	12.74
444.572	12.81
444.93	12.73
445.288	12.75
445.647	12.92
446.005	12.85
446.363	12.87
446.721	12.78
447.079	12.76
447.437	12.74
447.795	12.69
448.153	12.69
448.51	12.67
448.868	12.7
449.226	12.78
449.584	12.95
449.941	12.93
450.299	12.98
450.656	13.15
451.014	13.19
451.371	13.33
451.729	13.14
452.086	13.33
452.443	13.48
452.801	13.39
453.158	13.45
453.515	13.45
453.872	13.33
454.229	13.39
454.586	13.55
454.943	13.45
455.3	13.42
455.657	13.57
456.014	13.42
456.371	13.64
456.727	13.74
457.084	13.65
457.441	13.67
457.797	13.64
458.154	13.72
458.51	13.74
458.867	13.78
459.223	13.71
459.58	13.7
459.936	13.8
460.292	13.93
460.648	13.79
461.005	13.75
461.361	13.61
461.717	13.53
462.073	13.66
462.429	13.74
462.785	14.01
463.141	14.17
463.496	14.14
463.852	14.24
464.208	14.2
464.564	14.06
464.919	14.29
465.275	14.38
465.631	14.27
465.986	14.21
466.342	14.51
466.697	14.4
467.052	14.41
467.408	14.35
467.763	14.49
468.118	14.53
468.473	14.52
468.829	14.55
469.184	14.52
469.539	14.52
469.894	14.68
470.249	14.86
470.603	14.81
470.958	14.8
471.313	14.8
471.668	14.8
472.023	14.85
472.377	14.87
472.732	14.83
473.086	14.78
473.441	15
473.795	14.88
474.15	14.79
474.504	14.97
474.859	15.03
475.213	14.96
475.567	15.03
475.921	15.04
476.275	15.12
476.63	15.32
476.984	15.26
477.338	15.12
477.692	15.37
478.045	15.07
478.399	15.37
478.753	15.23
479.107	15.26
479.461	15.41
479.814	15.24
480.168	15.34
480.521	15.27
480.875	15.53
481.228	15.52
481.582	15.39
481.935	15.57
482.289	15.55
482.642	15.58
482.995	15.36
483.348	15.43
483.701	15.44
484.055	15.31
484.408	15.26
484.761	15.07
485.114	14.81
485.466	14.72
485.819	14.8
486.172	14.99
486.525	15.14
486.878	15.25
487.23	15.41
487.583	15.47
487.936	15.55
488.288	15.57
488.641	15.29
488.993	15.32
489.345	15.28
489.698	15.31
490.05	15.44
490.402	15.48
490.754	15.64
491.107	15.78
491.459	15.88
491.811	16.05
492.163	16.09
492.515	15.95
492.866	15.71
493.218	15.59
493.57	15.6
493.922	15.72
494.274	15.95
494.625	16
494.977	16.18
495.328	16.52
495.68	16.44
496.031	16.57
496.383	16.61
496.734	16.65
497.086	16.59
497.437	16.72
497.788	16.73
498.139	16.66
498.49	16.57
498.842	16.63
499.193	16.62
499.544	16.65
499.894	16.7
500.245	16.72
500.596	16.83
500.947	16.83
501.298	17.14
501.648	17.01
501.999	17.25
502.35	17.18
502.7	17.29
503.051	17.32
503.401	17.32
503.752	17.22
504.102	17.41
504.452	17.5
504.803	17.51
505.153	17.51
505.503	17.26
505.853	17.33
506.203	17.36
506.553	17.51
506.903	17.61
507.253	17.62
507.603	17.7
507.953	17.77
508.303	17.73
508.652	17.71
509.002	17.87
509.352	17.73
509.701	17.62
510.051	17.64
510.4	17.57
510.75	17.77
511.099	17.71
511.449	17.73
511.798	17.7
512.147	17.74
512.496	17.99
512.846	17.88
513.195	18.09
513.544	18.04
513.893	18.06
514.242	18
514.591	18.12
514.939	18.06
515.288	18.21
515.637	18.15
515.986	18.41
516.334	18.36
516.683	18.22
517.032	18.43
517.38	18.47
517.729	18.48
518.077	18.49
518.426	18.47
518.774	18.53
519.122	18.16
519.47	18.4
519.819	18.39
520.167	18.37
520.515	18.26
520.863	18.35
521.211	18.5
521.559	18.59
521.907	18.8
522.255	18.61
522.602	18.81
522.95	18.83
523.298	18.93
523.645	18.93
523.993	19.01
524.341	19.03
524.688	19.05
525.036	19.06
525.383	19.02
525.73	19.07
526.078	19.27
526.425	19.19
526.772	19.07
527.119	18.9
527.466	18.76
527.814	18.87
528.161	18.87
528.508	19
528.854	18.98
529.201	19.07
529.548	18.96
529.895	18.71
530.242	18.64
530.588	18.65
530.935	18.84
531.282	18.79
531.628	18.96
531.975	19
532.321	19.15
532.667	19.35
533.014	19.35
533.36	19.44
533.706	19.47
534.052	19.4
534.399	19.45
534.745	19.34
535.091	19.18
535.437	19.36
535.783	19.43
536.129	19.57
536.474	19.59
536.82	19.7
537.166	19.92
537.512	19.91
537.857	19.93
538.203	19.89
538.549	19.71
538.894	19.94
539.239	19.99
539.585	20.26
539.93	20.21
540.276	20.41
540.621	20.52
540.966	20.65
541.311	20.48
541.656	20.41
542.001	20.37
542.346	20.12
542.691	20
543.036	19.89
543.381	19.94
543.726	20.05
544.071	20.21
544.415	20.3
544.76	20.34
545.105	20.51
545.449	20.57
545.794	20.65
546.138	20.61
546.483	20.85
546.827	20.93
547.171	20.95
547.516	21.05
547.86	20.95
548.204	21.05
548.548	20.95
548.892	20.84
549.236	21.08
549.58	21.27
549.924	21.23
550.268	21.46
550.612	21.48
550.956	21.65
551.3	21.65
551.643	21.7
551.987	21.76
552.33	21.95
552.674	21.8
553.017	21.64
553.361	21.7
553.704	21.81
554.048	21.92
554.391	21.87
554.734	21.76
555.077	21.99
555.42	22.22
555.764	22.1
556.107	22.18
556.45	22.02
556.793	22.19
557.135	22.46
557.478	22.29
557.821	22.25
558.164	22.57
558.507	22.36
558.849	22.6
559.192	22.66
559.534	22.66
559.877	22.63
560.219	22.69
560.562	22.56
560.904	22.67
561.246	22.59
561.589	22.71
561.931	22.56
562.273	22.68
562.615	22.86
562.957	22.71
563.299	23.03
563.641	22.77
563.983	22.99
564.325	22.98
564.667	23.08
565.008	23.05
565.35	23.12
565.692	23.2
566.033	23.06
566.375	23.12
566.716	23.24
567.058	23.16
567.399	23.06
567.741	22.93
568.082	23.29
568.423	23.31
568.764	23.34
569.105	22.98
569.447	23.36
569.788	23.34
570.129	23.49
570.47	23.36
570.811	23.45
571.151	23.45
571.492	23.67
571.833	23.48
572.174	23.53
572.514	23.83
572.855	23.72
573.195	23.93
573.536	23.61
573.876	23.77
574.217	23.8
574.557	23.89
574.898	23.89
575.238	24.09
575.578	23.96
575.918	23.92
576.258	23.98
576.598	24
576.938	24.14
577.278	24.14
577.618	24.13
577.958	24.2
578.298	24.33
578.638	24.32
578.977	24.31
579.317	24.52
579.657	24.71
579.996	24.5
580.336	24.95
580.675	24.63
581.014	24.43
581.354	24.84
581.693	25.04
582.032	25.19
582.372	24.67
582.711	25.07
583.05	25.02
583.389	24.95
583.728	25.22
584.067	25.11
584.406	24.93
584.745	25.27
585.083	25.14
585.422	25.32
585.761	25.25
586.1	25.22
586.438	25.34
586.777	25.43
587.115	25.55
587.454	25.23
587.792	25.34
588.13	25.65
588.469	25.48
588.807	25.72
589.145	25.42
589.483	25.85
589.821	25.87
590.159	25.66
590.497	25.74
590.835	25.77
591.173	25.75
591.511	25.71
591.849	25.84
592.187	25.81
592.524	26.08
592.862	25.96
593.2	25.87
593.537	26.08
593.875	25.92
594.212	26.02
594.55	26.32
594.887	26.54
595.224	26.29
595.561	26.4
595.899	26.42
596.236	26.14
596.573	26.32
596.91	26.16
597.247	26.21
597.584	26.34
597.921	26.26
598.258	26.21
598.594	26.17
598.931	26.33
599.268	26.17
599.604	26.5
599.941	26.48
600.277	26.35
600.614	26.65
600.95	27.32
601.287	26.71
601.623	27.2
601.959	26.95
602.296	26.87
602.632	26.7
602.968	26.95
603.304	27.06
603.64	27.26
603.976	26.97
604.312	27.04
604.648	27.12
604.984	27.37
605.319	27.29
605.655	27.02
605.991	27.1
606.326	27.22
606.662	27.16
606.998	27.13
607.333	27.47
607.668	27.21
608.004	27.45
608.339	27.68
608.674	27.59
609.01	27.45
609.345	27.61
609.68	27.84
610.015	27.78
610.35	27.94
610.685	27.43
611.02	27.49
611.355	27.53
611.689	27.66
612.024	27.82
612.359	28.06
612.694	27.86
613.028	27.98
613.363	27.65
613.697	28.09
614.032	28.21
614.366	28.24
614.7	27.95
615.035	28.43
615.369	28.17
615.703	28.83
616.037	28.2
616.371	28.4
616.705	28.45
617.039	28.7
617.373	28.5
617.707	28.19
618.041	28.48
618.375	28.49
618.709	28.95
619.042	28.37
619.376	28.74
619.71	28.66
620.043	28.83
620.377	29.19
620.71	29.26
621.043	29.16
621.377	28.79
621.71	28.97
622.043	28.94
622.376	28.87
622.709	29.14
623.043	29.17
623.376	29.32
623.709	29.2
624.041	29
624.374	29.01
624.707	29.08
625.04	29.43
625.373	29.21
625.705	29.58
626.038	28.93
626.37	29.19
626.703	29.69
627.035	29.41
627.368	29.55
627.7	29.41
628.032	29.52
628.365	29.58
628.697	29.45
629.029	29.42
629.361	29.69
629.693	30.11
630.025	29.91
630.357	29.54
630.689	30.18
631.021	29.88
631.353	29.94
631.684	30.25
632.016	30.1
632.348	29.71
632.679	30.12
633.011	29.96
633.342	30.29
633.674	30.72
634.005	30.53
634.336	30.4
634.668	30.6
634.999	30.21
635.33	30.55
635.661	30.46
635.992	30.39
636.323	30.47
636.654	30.45
636.985	30.51
637.316	30.75
637.647	30.4
637.977	30.35
638.308	30.63
638.639	31.02
638.969	30.74
639.3	30.96
639.63	30.24
639.961	30.68
640.291	30.61
640.622	30.7
640.952	31.31
641.282	31.08
641.612	30.58
641.943	30.83
642.273	31.07
642.603	31.09
642.933	31.65
643.263	31.47
643.592	31.18
643.922	30.83
644.252	31.28
644.582	31.54
644.911	31.96
645.241	31.3
645.571	31.36
645.9	30.88
646.23	31.42
646.559	31.4
646.888	31.86
647.218	31.39
647.547	31.55
647.876	31.11
648.205	31.44
648.534	31.6
648.863	32.04
649.192	31.86
649.521	31.4
649.85	32.07
650.179	31.66
650.508	31.62
650.837	32.22
651.165	32.44
651.494	32.18
651.822	32.55
652.151	32.06
652.479	32.26
652.808	32.16
653.136	32.18
653.465	32.36
653.793	32.22
654.121	32.01
654.449	32.22
654.777	32.32
655.105	32.33
655.433	32.31
655.761	32.84
656.089	32.71
656.417	32.02
656.745	32.58
657.073	32.44
657.4	32.99
657.728	33.26
658.056	32.82
658.383	32.57
658.711	33.03
659.038	32.29
659.365	32.99
659.693	33.07
660.02	32.56
660.347	32.56
660.674	32.8
661.001	33.06
661.329	32.95
661.656	32.72
661.982	33.34
662.309	33.27
662.636	33.32
662.963	33.03
663.29	32.86
663.616	33.11
663.943	33.17
664.27	32.92
664.596	33.44
664.923	33.22
665.249	33.46
665.576	33.11
665.902	33.61
666.228	33.64
666.554	34.03
666.881	33.91
667.207	33.45
667.533	33.63
667.859	33.6
668.185	33.41
668.511	33.45
668.837	33.81
669.162	34.33
669.488	33.25
669.814	33.61
670.139	33.91
670.465	34.54
670.791	34
671.116	33.65
671.442	33.91
671.767	34.01
672.092	34.21
672.418	34.03
672.743	34.48
673.068	34.54
673.393	34.53
673.718	33.98
674.043	34.94
674.368	34.81
674.693	34.08
675.018	34.28
675.343	34.34
675.667	34.67
675.992	34.18
676.317	34.96
676.641	34.84
676.966	34.52
677.29	34.06
677.615	34.53
677.939	34.77
678.264	34.63
678.588	34.69
678.912	34.56
679.236	34.65
679.56	34.93
679.885	34.75
680.209	34.33
680.532	34.82
680.856	35
681.18	34.77
681.504	35.32
681.828	35.2
682.152	35.56
682.475	34.64
682.799	35.05
683.122	35.04
683.446	34.92
683.769	35.62
684.093	35.55
684.416	35.33
684.739	34.66
685.062	34.98
685.386	35.89
685.709	35.38
686.032	35.5
686.355	34.87
686.678	35.29
687.001	35.58
687.324	35.45
687.646	35.16
687.969	35.69
688.292	35.72
688.614	35.23
688.937	35.76
689.26	35.95
689.582	35.71
689.904	35.85
690.227	35.65
690.549	35.48
690.871	36.59
691.194	35.79
691.516	35.46
691.838	35.92
692.16	36.12
692.482	36.09
692.804	36.07
693.126	35.68
693.448	35.97
693.769	36.12
694.091	36.31
694.413	36.09
694.735	36.68
695.056	36.25
695.378	35.91
695.699	35.54
696.021	35.81
696.342	35.71
696.663	35.9
696.984	36.7
697.306	36.14
697.627	35.75
697.948	36.74
698.269	36.27
698.59	36.63
698.911	36.49
699.232	37.41
699.553	36.83
699.873	36.54
700.194	37.12
700.515	36.38
700.835	36.44
701.156	36.03
701.477	36.85
701.797	36.64
702.117	36.61
702.438	36.36
702.758	36.91
703.078	37.37
703.398	37.86
703.719	38.01
704.039	36.98
704.359	36.2
704.679	36.54
704.999	37.13
705.319	37.08
705.638	37.14
705.958	37.46
706.278	37.89
706.597	36.75
706.917	36.95
707.237	36.86
707.556	38.08
707.876	37.52
708.195	37.18
708.514	36.82
708.834	37.12
709.153	37.92
709.472	38.03
709.791	37.71
710.11	37.49
710.429	37.86
710.748	37.7
711.067	37.55
711.386	38.62
711.705	38.33
712.023	37.48
712.342	38.66
712.661	37.38
712.979	37.77
713.298	37.37
713.616	38.39
713.935	36.85
714.253	37.86
714.572	37.28
714.89	37.34
715.208	38
715.526	38.22
715.844	37.75
716.162	38.47
716.48	38.34
716.798	37.86
717.116	37.77
717.434	38.29
717.752	37.58
718.069	38.53
718.387	37.88
718.705	38.19
719.022	37.99
719.34	38.55
719.657	38.55
719.975	39.13
720.292	37.61
720.609	37.7
720.927	38.15
721.244	38.77
721.561	38.55
721.878	38.72
722.195	39.75
722.512	38.91
722.829	38.86
723.146	38.65
723.463	38.87
723.779	40.42
724.096	37.24
724.413	39.3
724.729	38.96
725.046	40.12
725.362	39.11
725.679	38.52
725.995	39.56
726.311	39.17
726.628	40.4
726.944	39.08
727.26	38.48
727.576	39.04
727.892	40.5
728.208	39.22
728.524	39.49
728.84	39.81
729.156	39.43
729.472	38.62
729.787	38.96
730.103	40.28
730.419	37.95
730.734	39.54
731.05	39.8
731.365	40.07
731.681	39.66
731.996	39.38
732.311	40.43
732.626	40.43
732.942	39.95
733.257	39.52
733.572	39.86
733.887	38.58
734.202	38.76
734.517	39.85
734.832	39.62
735.146	39.82
735.461	38.87
735.776	40.97
736.091	40.6
736.405	39.96
736.72	39.31
737.034	40.24
737.349	40.11
737.663	40.14
737.977	40.15
738.292	41.07
738.606	39.43
738.92	41.23
739.234	39.79
739.548	40.74
739.862	40.38
740.176	38.99
740.49	40.67
740.804	41.51
741.117	40.19
741.431	40.99
741.745	39.83
742.058	40.69
742.372	40.43
742.685	40.05
742.999	41.23
743.312	41.1
743.626	40.34
743.939	40.09
744.252	41.38
744.565	39.09
744.878	39.21
745.191	40.05
745.505	40.16
745.817	41.07
746.13	41.34
746.443	40.81
746.756	39.44
747.069	40.43
747.381	38.81
747.694	39.99
748.007	40.66
748.319	40.03
748.632	40.98
748.944	40.16
749.256	42.22
749.569	41.85
749.881	40.4
750.193	42.53
750.505	41.6
750.817	41.68
751.129	40.71
751.441	43.87
751.753	42
752.065	41
752.377	42.44
752.689	40.97
753	42
753.312	40.86
753.624	40.58
753.935	42.3
754.247	43.03
754.558	42.18
754.869	41.72
755.181	40.63
755.492	41.21
755.803	41.75
756.114	40.01
756.425	41.65
756.736	41.26
757.047	42.83
757.358	42.31
757.669	42.76
757.98	43.41
758.291	41.91
758.601	40.49
758.912	41.77
759.223	41.75
759.533	41.33
759.844	40.83
760.154	42.66
760.464	41.87
760.775	40.81
761.085	41.1
761.395	42.31
761.705	43.3
762.016	41.61
762.326	42.71
762.636	41.59
762.945	43.11
763.255	41.92
763.565	42.54
763.875	42.71
764.185	41.47
764.494	41.46
764.804	41.83
765.113	42.63
765.423	42.67
765.732	42.29
766.042	43.18
766.351	42.32
766.66	41.23
766.97	41.9
767.279	43.12
767.588	43.18
767.897	41.79
768.206	41.48
768.515	42.45
768.824	43.1
769.133	40.63
769.441	43.31
769.75	43.14
770.059	43.42
770.367	43.93
770.676	40.91
770.984	42.65
771.293	43.46
771.601	43
771.91	41.91
772.218	42.18
772.526	41.95
772.834	41.99
773.142	42.25
773.45	43.01
773.758	40.51
774.066	42.45
774.374	44.5
774.682	42.85
774.99	45.68
775.298	43.97
775.605	41.2
775.913	44.33
776.22	43.33
776.528	44.83
776.835	43.35
777.143	46.45
777.45	45.13
777.757	43.06
778.065	40.41
778.372	45.27
778.679	45.25
778.986	40.59
779.293	42.25
779.6	42.06
779.907	42.68
780.214	46.35
780.52	40.37
780.827	43.73
781.134	43.05
781.44	44.99
781.747	43.22
782.053	42.44
782.36	46.26
782.666	42.81
782.973	42.59
783.279	44.63
783.585	47.78
783.891	40.29
784.197	43.54
784.503	44.92
784.809	45.64
785.115	45.07
785.421	41.78
785.727	42.38
786.033	43.23
786.339	46.24
786.644	43.57
786.95	45.58
787.255	47.21
787.561	41.63
787.866	41.09
788.172	44.93
788.477	41.85
788.782	42.93
789.088	42.35
789.393	41.89
789.698	43.36
790.003	42.87
790.308	43.97
790.613	44.73
790.918	41.37
791.223	44.81
791.527	43.61
791.832	40.74
792.137	43.93
792.441	42.96
792.746	41.71
793.05	42.42
793.355	44.3
793.659	44.29
793.963	44.5
794.268	42.21
794.572	43.75
794.876	43.84
795.18	47.13
795.484	42.95
795.788	43.31
796.092	46.52
796.396	42.92
796.7	42.69
797.004	44.22
797.307	46.71
797.611	43.45
797.915	42.43
798.218	43.69
798.522	43.52
798.825	42.55
799.128	42.9
799.432	42.79
799.735	46.79
800.038	44.01
800.341	42.56
800.644	45.57
800.947	43.35
801.25	45.04
801.553	46.37
801.856	44.55
802.159	38.67
802.462	46.57
802.764	44.8
803.067	43.91
803.37	46.04
803.672	41.65
803.975	46.05
804.277	44.81
804.579	45.46
804.882	42.94
805.184	45.81
805.486	46.82
805.788	41.17
806.09	42.92
806.392	44.35
806.694	42.06
806.996	48.28
807.298	43.1
807.6	45.82
807.902	41.84
808.203	45
808.505	43.77
808.807	47.84
809.108	43.44
809.409	46.81
809.711	43.11
810.012	44.77
810.313	44.35
810.615	46.11
810.916	45.32
811.217	45.74
811.518	43.71
811.819	42.47
812.12	43.24
812.421	43.8
812.722	48.99
813.023	43.68
813.323	45.52
813.624	52.78
813.925	44.08
814.225	46
814.526	45.94
814.826	45.16
815.126	49.25
815.427	48.95
815.727	49.02
816.027	37.01
816.327	47.85
816.627	50.32
816.927	43.17
817.227	41.21
817.527	40.5
817.827	49.28
818.127	48.13
818.427	49.61
818.727	42.7
819.026	41.2
819.326	38.66
819.625	46.47
819.925	45.47
820.224	48.13
820.524	51.35
820.823	48.95
821.122	47.57
821.421	46.14
821.72	48.37
822.019	49.52
822.318	42.12
822.617	48.12
822.916	46.32
823.215	49.97
823.514	44.79
823.813	48.31
824.111	46.82
824.41	43.98
824.709	45.63
825.007	45.73
825.306	45.56
825.604	46.14
825.902	46.01
826.201	45.84
826.499	46.06
826.797	45.52
827.095	46.66
827.393	46.05
827.691	46.82
827.989	46.06
828.287	48.16
828.585	46.57
828.882	47.79
829.18	44.33
829.478	46.64
829.775	46.82
830.073	45.55
830.37	46.81
830.668	48.6
830.965	44.8
831.263	47.38
831.56	46.05
831.857	48.37
832.154	45.49
832.451	46.05
832.748	47.37
833.045	45.39
833.342	48.45
833.639	43.67
833.936	48.87
834.232	42.43
834.529	47.11
834.826	43.2
835.122	53.28
835.419	46.19
835.715	45.94
836.012	49.33
836.308	48.54
836.604	47.32
836.901	48.39
837.197	49.46
837.493	44.83
837.789	46.89
838.085	44.06
838.381	47.94
838.677	49.57
838.972	48.59
839.268	53.48
839.564	51.54
839.86	48.4
840.155	49.21
840.451	46.11
840.746	44.51
841.042	50.97
841.337	52.35
841.632	44.38
841.928	51.24
842.223	48.58
842.518	46.66
842.813	46.81
843.108	43.93
843.403	54.56
843.698	49.42
843.993	44.55
844.287	37.83
844.582	53.33
844.877	51.2
845.171	42.42
845.466	40.59
845.761	54.17
846.055	51.35
846.349	40.56
846.644	49.94
846.938	36.8
847.232	43.31
847.526	44.41
847.82	42.66
848.114	57.95
848.408	44.39
848.702	51.16
848.996	42.31
849.29	51.45
849.584	41.99
849.877	40.75
850.171	37.63
850.465	49.5
850.758	47.7
851.052	42.04
851.345	37.99
851.638	59.28
851.932	40.54
852.225	61.68
852.518	54.59
852.811	55.31
853.104	34.53
853.397	45.61
853.69	43.36
853.983	50.26
854.276	40.56
854.569	45.94
854.861	54.09
855.154	56.98
855.447	54.55
855.739	42.17
856.032	35.08
856.324	49.53
856.616	75.53
856.909	48.14
857.201	45.51
857.493	28.2
857.785	67.77
858.077	45.57
858.369	40.29
858.661	35.8
858.953	47.68
859.245	47.91
859.537	36.49
859.829	47.8
860.12	50.24
860.412	73.02
860.703	48.71
860.995	33.22
861.286	38.85
861.578	40.24
861.869	34.24
862.16	54.53
862.452	61.59
862.743	51.82
863.034	35
863.325	49.43
863.616	52.68
863.907	48.88
864.198	37.92
864.488	72.06
864.779	41
865.07	48.96
865.36	27.54
865.651	48.82
865.941	44.81
866.232	46
866.522	53.42
866.813	57.57
867.103	35.42
867.393	54.41
867.683	54.3
867.973	42.74
868.263	39.89
868.553	57.9
868.843	57.93
869.133	60.92
869.423	35.98
869.713	29.52
870.002	37.68
870.292	78.54
870.582	57.67
870.871	49.03
871.161	45.25
871.45	56.79
871.739	32.49
872.029	63.12
872.318	62.08
872.607	37.8
872.896	31.34
873.185	66.14
873.474	64.32
873.763	60.35
874.052	36.41
874.341	40.98
874.63	54.38
874.918	57.29
875.207	43.24
875.496	49.64
875.784	45.5
876.073	16.07
876.361	42.79
876.649	45.2
876.938	65.8
877.226	43.41
877.514	35.83
877.802	49.08
878.09	69.06
878.378	36.13
878.666	27.87
878.954	58.09
879.242	63.19
879.53	24.69
879.817	33.52
880.105	40.82
880.392	55.2
880.68	20.39
880.967	44.56
881.255	67.22
881.542	48.4
881.83	63.93
882.117	51.2
882.404	35.76
882.691	52.09
882.978	54.31
883.265	50.49
883.552	38.93
883.839	51.54
884.126	45.98
884.413	50.33
884.699	59.25
884.986	53.05
885.273	50.2
885.559	50.2
885.846	50.2
