Data from 1897-1_forehead_Reflection__4__40.txt Node

Date: Fri Sep 30 18:04:11 CDT 2022
User: ToomeyLab
Spectrometer: FLMS14357
Trigger mode: 0
Integration Time (sec): 1.000000E-2
Scans to average: 100
Electric dark correction enabled: true
Nonlinearity correction enabled: false
Boxcar width: 0
XAxis mode: Wavelengths
Number of Pixels in Spectrum: 2048
>>>>>Begin Spectral Data<<<<<
189.047	134.36
189.435	134.36
189.823	134.36
190.211	59.63
190.599	15.17
190.987	-311.64
191.375	107.16
191.763	197.37
192.151	-30.92
192.538	3.88
192.926	-93.61
193.314	28.73
193.702	1037.31
194.089	238
194.477	-68.19
194.864	29.46
195.252	29.78
195.639	9.07
196.027	-817.02
196.414	66.52
196.801	121.57
197.189	43.17
197.576	0
197.963	-95.33
198.351	14.96
198.738	17.57
199.125	45.64
199.512	21.58
199.899	18.85
200.286	8.69
200.673	46.76
201.06	38.12
201.447	11.52
201.833	61.41
202.22	39.93
202.607	16.25
202.994	72.19
203.38	14.44
203.767	69.06
204.154	62.62
204.54	82.43
204.927	38.9
205.313	-11.78
205.699	11.48
206.086	28.34
206.472	24.78
206.858	30.7
207.245	15.46
207.631	20.41
208.017	-28.25
208.403	25.94
208.789	10.64
209.175	18.13
209.561	6.65
209.947	34.66
210.333	-5.03
210.719	22.32
211.105	-1.81
211.491	16.89
211.876	9.7
212.262	-0.66
212.648	51.72
213.034	7.73
213.419	24.42
213.805	20.84
214.19	9.39
214.576	17.52
214.961	-5.28
215.346	33.55
215.732	23.59
216.117	20.58
216.502	18.17
216.888	29.75
217.273	6.1
217.658	29.26
218.043	3.15
218.428	4.53
218.813	13.96
219.198	19.99
219.583	33.45
219.968	26.6
220.353	14.01
220.738	18.87
221.122	6.18
221.507	33.17
221.892	1.65
222.276	-2
222.661	10.93
223.046	4
223.43	-7.01
223.815	13.03
224.199	7.33
224.583	11.38
224.968	5.18
225.352	9.15
225.736	17.1
226.121	13.03
226.505	7.72
226.889	7.81
227.273	0.82
227.657	9.42
228.041	5.31
228.425	8.15
228.809	6.76
229.193	6.26
229.577	1.93
229.961	5.35
230.344	4.05
230.728	3.72
231.112	4.49
231.495	4.11
231.879	5.83
232.263	4.66
232.646	3.77
233.03	4.77
233.413	4.22
233.797	5.32
234.18	3.47
234.563	4.87
234.946	4.34
235.33	2.86
235.713	6.4
236.096	4.99
236.479	4.5
236.862	4.58
237.245	5.76
237.628	3.91
238.011	5.97
238.394	5.42
238.777	3.29
239.16	6.39
239.543	5
239.925	4.5
240.308	4.19
240.691	6.36
241.073	4.87
241.456	5.24
241.838	5.01
242.221	4.7
242.603	4.83
242.986	4.91
243.368	3.93
243.75	3.57
244.133	4.34
244.515	4.38
244.897	4.4
245.279	4.87
245.661	4.7
246.043	4.27
246.425	4.87
246.807	5.17
247.189	4.57
247.571	4.77
247.953	4.72
248.335	4.26
248.717	4.26
249.098	4.35
249.48	4.24
249.862	4.14
250.243	4.02
250.625	4.63
251.006	4.75
251.388	3.9
251.769	5.13
252.151	4.58
252.532	4.81
252.913	4.17
253.295	4.38
253.676	4.03
254.057	4.62
254.438	4.13
254.819	4.91
255.2	3.77
255.581	5.11
255.962	4.97
256.343	4.12
256.724	5.77
257.105	5.25
257.486	5.6
257.867	5.64
258.247	4.73
258.628	5.19
259.009	5.59
259.389	3.79
259.77	4.98
260.15	4.55
260.531	4.42
260.911	4.42
261.292	4.08
261.672	4.21
262.052	4.11
262.432	4.2
262.813	4.74
263.193	4.2
263.573	4.43
263.953	3.72
264.333	4.72
264.713	3.49
265.093	3.89
265.473	4.77
265.853	4.68
266.233	4.06
266.612	3.77
266.992	3.51
267.372	3.37
267.752	3.94
268.131	4.38
268.511	3.81
268.89	3.76
269.27	3.99
269.649	3.52
270.029	4.38
270.408	4.16
270.787	4.23
271.167	4.3
271.546	4.38
271.925	4.13
272.304	4.38
272.683	3.97
273.062	4.17
273.441	3.77
273.82	3.9
274.199	4.13
274.578	4.09
274.957	4.1
275.336	3.93
275.715	4.01
276.093	4.23
276.472	4.37
276.851	4.15
277.229	4.09
277.608	3.93
277.986	3.58
278.365	4.48
278.743	4.1
279.122	4.01
279.5	3.95
279.878	4.49
280.257	4.46
280.635	4.68
281.013	4.64
281.391	3.82
281.769	4.29
282.147	3.96
282.525	4.12
282.903	3.88
283.281	3.55
283.659	4.08
284.037	3.86
284.415	4.06
284.792	3.7
285.17	3.76
285.548	4
285.925	3.47
286.303	4.23
286.68	3.54
287.058	3.78
287.435	3.67
287.813	3.94
288.19	3.96
288.567	3.86
288.945	3.79
289.322	3.71
289.699	3.88
290.076	3.96
290.453	4.24
290.83	4.1
291.207	4.14
291.584	4.06
291.961	3.9
292.338	4.1
292.715	4.54
293.092	4.15
293.469	4.59
293.845	4.56
294.222	4.51
294.599	4.61
294.975	4.55
295.352	4.69
295.728	4.45
296.105	4.4
296.481	4.35
296.858	4.82
297.234	4.3
297.61	4.51
297.986	4.34
298.363	4.41
298.739	4.32
299.115	4.44
299.491	4.36
299.867	4.57
300.243	4.38
300.619	4.38
300.995	5.26
301.371	4.72
301.746	4.51
302.122	5.18
302.498	4.73
302.874	5.08
303.249	4.96
303.625	4.91
304	4.98
304.376	5.11
304.751	5.25
305.127	5.15
305.502	4.47
305.878	5.24
306.253	4.89
306.628	5.45
307.003	4.81
307.378	5.5
307.754	5.28
308.129	5.55
308.504	5.56
308.879	5.45
309.254	5.15
309.629	5.76
310.003	5.54
310.378	5.52
310.753	5.58
311.128	5.78
311.502	5.82
311.877	5.9
312.252	6.21
312.626	6.13
313.001	5.68
313.375	5.51
313.75	6.42
314.124	6.36
314.498	6.31
314.873	6.5
315.247	6.27
315.621	6.76
315.995	6.72
316.369	6.35
316.743	6.83
317.117	7.27
317.491	7.66
317.865	7.29
318.239	6.92
318.613	7.37
318.987	7.1
319.361	7.2
319.734	7.28
320.108	7.58
320.482	7.55
320.855	7.82
321.229	8.13
321.602	7.62
321.976	7.81
322.349	7.92
322.723	7.79
323.096	8.49
323.469	7.91
323.843	7.96
324.216	8.06
324.589	8.59
324.962	8.42
325.335	7.73
325.708	8.57
326.081	8.8
326.454	8.65
326.827	8.48
327.2	8.11
327.573	8.41
327.945	8.45
328.318	8.45
328.691	8.86
329.063	8.73
329.436	8.57
329.809	8.84
330.181	8.41
330.553	8.52
330.926	9.34
331.298	8.47
331.671	8.79
332.043	8.75
332.415	8.76
332.787	8.93
333.159	9.17
333.532	9.22
333.904	9.02
334.276	9.33
334.648	9.13
335.02	9.33
335.391	9.58
335.763	9.28
336.135	9.29
336.507	9.79
336.879	9.49
337.25	9.41
337.622	9.68
337.993	9.41
338.365	9.65
338.736	9.68
339.108	9.71
339.479	9.77
339.851	9.33
340.222	9.98
340.593	10.03
340.964	9.6
341.336	9.74
341.707	9.76
342.078	9.6
342.449	9.8
342.82	9.96
343.191	10.08
343.562	9.68
343.933	10.25
344.303	10.27
344.674	10.14
345.045	10.26
345.416	9.91
345.786	10.59
346.157	10.43
346.527	10.11
346.898	10.28
347.268	10.15
347.639	9.79
348.009	10.45
348.38	10.73
348.75	11.04
349.12	10.77
349.49	11.17
349.861	10.34
350.231	10.6
350.601	10.72
350.971	10.84
351.341	10.59
351.711	10.84
352.081	10.58
352.45	11.05
352.82	10.93
353.19	10.72
353.56	10.79
353.929	10.86
354.299	11.18
354.669	11.07
355.038	11.21
355.408	11.37
355.777	11.03
356.147	10.9
356.516	11.3
356.885	10.9
357.254	11.28
357.624	11.11
357.993	10.69
358.362	11.51
358.731	11.01
359.1	11.38
359.469	11.26
359.838	11.37
360.207	11.47
360.576	11.31
360.945	11.63
361.314	11.57
361.682	11.42
362.051	11.51
362.42	11.47
362.788	11.66
363.157	11.54
363.525	11.39
363.894	11.43
364.262	11.87
364.631	12.31
364.999	11.83
365.367	12.03
365.735	11.74
366.104	11.64
366.472	12.43
366.84	12.35
367.208	12.2
367.576	12.77
367.944	12.27
368.312	11.89
368.68	11.79
369.048	11.7
369.416	12.37
369.783	12.44
370.151	12.33
370.519	12.26
370.886	12.15
371.254	12.16
371.621	12.52
371.989	12.78
372.356	12.37
372.724	12.74
373.091	12.55
373.458	12.71
373.826	12.53
374.193	12.81
374.56	12.97
374.927	12.89
375.294	12.57
375.661	12.32
376.028	12.95
376.395	12.96
376.762	12.64
377.129	13.16
377.496	13.07
377.863	12.97
378.229	13.39
378.596	12.95
378.963	13.11
379.329	13
379.696	13.26
380.062	13.33
380.429	13.24
380.795	13.11
381.161	13.29
381.528	13.15
381.894	13.07
382.26	13.62
382.626	13.2
382.993	13.65
383.359	13.45
383.725	13.39
384.091	13.47
384.457	13.79
384.823	14.02
385.188	13.88
385.554	13.81
385.92	13.96
386.286	13.94
386.651	13.82
387.017	13.8
387.383	13.66
387.748	13.62
388.114	14.02
388.479	13.99
388.845	13.5
389.21	13.96
389.575	13.81
389.94	13.86
390.306	14.22
390.671	14.24
391.036	14.22
391.401	14.06
391.766	14.14
392.131	14.17
392.496	14.17
392.861	14.27
393.226	14.12
393.591	14.2
393.956	14.64
394.32	14.52
394.685	14.37
395.05	14.55
395.414	14.52
395.779	14.51
396.143	14.58
396.508	14.47
396.872	14.62
397.236	14.56
397.601	14.79
397.965	14.96
398.329	14.7
398.694	14.95
399.058	14.96
399.422	15.18
399.786	14.79
400.15	14.88
400.514	14.85
400.878	14.93
401.242	14.71
401.605	15.1
401.969	15.03
402.333	14.92
402.697	15.07
403.06	15.35
403.424	14.86
403.787	15.26
404.151	15.18
404.514	15.25
404.878	14.9
405.241	15.16
405.604	15.3
405.968	15.18
406.331	15.16
406.694	15.11
407.057	15.16
407.42	15.27
407.783	15.44
408.146	15.18
408.509	15.63
408.872	15.42
409.235	15.37
409.598	15.74
409.961	15.56
410.323	15.84
410.686	15.72
411.049	15.63
411.411	15.53
411.774	15.83
412.136	15.67
412.499	15.54
412.861	15.77
413.223	15.84
413.586	15.81
413.948	15.99
414.31	16.08
414.672	15.92
415.035	16.03
415.397	15.98
415.759	15.94
416.121	15.73
416.483	16.18
416.845	16.13
417.206	16.16
417.568	15.97
417.93	15.88
418.292	16.18
418.653	15.95
419.015	16.22
419.377	15.98
419.738	16.02
420.1	16.21
420.461	16.2
420.822	16.15
421.184	16.07
421.545	16.12
421.906	16.06
422.267	16.05
422.629	16.17
422.99	16.07
423.351	16.12
423.712	16.25
424.073	16.38
424.434	16.47
424.795	16.46
425.155	16.36
425.516	16.39
425.877	16.5
426.238	16.43
426.598	16.5
426.959	16.66
427.32	16.71
427.68	16.95
428.041	16.79
428.401	17.06
428.761	17.02
429.122	17.11
429.482	17.23
429.842	17.39
430.202	17.21
430.563	17.36
430.923	17.23
431.283	17.52
431.643	17.4
432.003	17.45
432.363	17.57
432.722	17.48
433.082	17.59
433.442	17.61
433.802	17.49
434.161	17.52
434.521	17.64
434.881	17.48
435.24	17.59
435.6	17.76
435.959	17.68
436.319	17.65
436.678	17.94
437.037	18.02
437.396	18.21
437.756	17.95
438.115	17.9
438.474	18.11
438.833	18.04
439.192	18.1
439.551	18.08
439.91	18.18
440.269	18.09
440.628	18.15
440.987	18.27
441.345	18.27
441.704	18.17
442.063	18.37
442.421	18.22
442.78	18.35
443.138	18.37
443.497	18.42
443.855	18.58
444.214	18.28
444.572	18.67
444.93	18.67
445.288	18.64
445.647	18.65
446.005	18.8
446.363	18.71
446.721	18.64
447.079	18.68
447.437	18.56
447.795	18.55
448.153	18.53
448.51	18.53
448.868	18.65
449.226	18.66
449.584	18.66
449.941	18.93
450.299	18.95
450.656	19.19
451.014	19.32
451.371	19.28
451.729	19.21
452.086	19.33
452.443	19.34
452.801	19.36
453.158	19.34
453.515	19.31
453.872	19.4
454.229	19.52
454.586	19.77
454.943	19.5
455.3	19.71
455.657	19.78
456.014	19.47
456.371	19.85
456.727	19.77
457.084	19.95
457.441	19.94
457.797	20.02
458.154	19.71
458.51	20.29
458.867	20.4
459.223	20.2
459.58	20.15
459.936	20.27
460.292	20.21
460.648	20.04
461.005	19.83
461.361	19.8
461.717	19.69
462.073	19.83
462.429	19.84
462.785	20.21
463.141	20.48
463.496	20.32
463.852	20.41
464.208	20.6
464.564	20.53
464.919	20.82
465.275	20.75
465.631	20.89
465.986	20.67
466.342	20.7
466.697	20.94
467.052	20.83
467.408	21.07
467.763	21.01
468.118	21.2
468.473	20.79
468.829	21.14
469.184	21.15
469.539	21.06
469.894	21.13
470.249	21.37
470.603	21.25
470.958	21.18
471.313	21.37
471.668	21.18
472.023	21.41
472.377	21.57
472.732	21.27
473.086	21.36
473.441	21.64
473.795	21.56
474.15	21.61
474.504	21.47
474.859	21.75
475.213	21.69
475.567	21.63
475.921	21.71
476.275	21.89
476.63	21.82
476.984	21.96
477.338	22
477.692	22.1
478.045	21.81
478.399	21.92
478.753	21.92
479.107	22.05
479.461	21.92
479.814	21.9
480.168	22.05
480.521	22
480.875	22.14
481.228	22.17
481.582	22.33
481.935	22.26
482.289	22.17
482.642	22.06
482.995	22.13
483.348	22.08
483.701	22.05
484.055	22.01
484.408	21.85
484.761	21.62
485.114	21.34
485.466	21.22
485.819	21.28
486.172	21.47
486.525	21.74
486.878	21.79
487.23	21.97
487.583	22.07
487.936	22.05
488.288	22.02
488.641	21.85
488.993	21.85
489.345	21.83
489.698	21.94
490.05	22.04
490.402	22.1
490.754	22.33
491.107	22.42
491.459	22.68
491.811	22.79
492.163	22.91
492.515	22.66
492.866	22.47
493.218	22.17
493.57	22.32
493.922	22.43
494.274	22.72
494.625	22.85
494.977	23.05
495.328	23.42
495.68	23.44
496.031	23.68
496.383	23.53
496.734	23.52
497.086	23.81
497.437	23.78
497.788	23.7
498.139	23.49
498.49	23.48
498.842	23.68
499.193	23.75
499.544	23.71
499.894	23.83
500.245	23.8
500.596	24.01
500.947	23.98
501.298	24.16
501.648	24.11
501.999	24.25
502.35	24.34
502.7	24.38
503.051	24.24
503.401	24.6
503.752	24.46
504.102	24.59
504.452	24.48
504.803	24.63
505.153	24.72
505.503	24.67
505.853	24.56
506.203	24.55
506.553	24.71
506.903	24.82
507.253	24.93
507.603	24.95
507.953	24.96
508.303	24.91
508.652	24.98
509.002	25.1
509.352	24.95
509.701	24.88
510.051	24.92
510.4	24.79
510.75	25.02
511.099	24.84
511.449	24.93
511.798	24.95
512.147	25.17
512.496	25.17
512.846	25.16
513.195	25.41
513.544	25.22
513.893	25.36
514.242	25.09
514.591	25.25
514.939	25.41
515.288	25.66
515.637	25.49
515.986	25.73
516.334	25.63
516.683	25.88
517.032	25.86
517.38	25.81
517.729	25.77
518.077	25.88
518.426	25.82
518.774	25.85
519.122	25.64
519.47	25.8
519.819	25.71
520.167	25.54
520.515	25.48
520.863	25.64
521.211	25.73
521.559	25.85
521.907	25.95
522.255	26.01
522.602	26.17
522.95	26.26
523.298	26.58
523.645	26.33
523.993	26.67
524.341	26.56
524.688	26.52
525.036	26.61
525.383	26.53
525.73	26.61
526.078	26.67
526.425	26.61
526.772	26.53
527.119	26.17
527.466	26.03
527.814	26.39
528.161	26.21
528.508	26.33
528.854	26.29
529.201	26.3
529.548	26.21
529.895	25.96
530.242	25.89
530.588	26.05
530.935	26.19
531.282	26.18
531.628	26.39
531.975	26.54
532.321	26.79
532.667	26.8
533.014	26.96
533.36	26.96
533.706	27.09
534.052	26.92
534.399	26.84
534.745	26.67
535.091	26.62
535.437	26.77
535.783	26.92
536.129	27.09
536.474	27.21
536.82	27.39
537.166	27.51
537.512	27.4
537.857	27.46
538.203	27.37
538.549	27.18
538.894	27.47
539.239	27.66
539.585	27.75
539.93	27.94
540.276	28.08
540.621	28.28
540.966	28.32
541.311	28.06
541.656	28.18
542.001	27.98
542.346	27.82
542.691	27.48
543.036	27.42
543.381	27.42
543.726	27.74
544.071	27.85
544.415	27.9
544.76	27.95
545.105	28.05
545.449	28.28
545.794	28.24
546.138	28.51
546.483	28.65
546.827	28.85
547.171	28.77
547.516	28.78
547.86	28.62
548.204	28.62
548.548	28.7
548.892	28.72
549.236	28.94
549.58	28.96
549.924	29.04
550.268	29.35
550.612	29.32
550.956	29.77
551.3	29.65
551.643	29.77
551.987	29.84
552.33	29.73
552.674	29.75
553.017	29.8
553.361	29.74
553.704	29.86
554.048	29.73
554.391	29.8
554.734	29.65
555.077	29.9
555.42	30.14
555.764	29.99
556.107	30.14
556.45	30.26
556.793	30.2
557.135	30.39
557.478	30.39
557.821	30.38
558.164	30.44
558.507	30.56
558.849	30.69
559.192	30.68
559.534	30.6
559.877	30.95
560.219	30.51
560.562	30.67
560.904	30.85
561.246	30.84
561.589	30.78
561.931	30.82
562.273	30.87
562.615	30.56
562.957	30.86
563.299	30.84
563.641	30.95
563.983	31.12
564.325	30.97
564.667	31.02
565.008	31.32
565.35	31.11
565.692	31.47
566.033	31.32
566.375	31.18
566.716	31.2
567.058	31.2
567.399	31.09
567.741	31.07
568.082	31.24
568.423	31.34
568.764	31.26
569.105	31.07
569.447	31.48
569.788	31.75
570.129	31.61
570.47	31.73
570.811	31.64
571.151	31.64
571.492	31.92
571.833	31.93
572.174	31.67
572.514	31.78
572.855	32.02
573.195	31.83
573.536	31.75
573.876	31.83
574.217	31.72
574.557	32.14
574.898	32.02
575.238	32.07
575.578	32.1
575.918	32.17
576.258	32.16
576.598	32.17
576.938	32.4
577.278	32.36
577.618	32.49
577.958	32.4
578.298	32.57
578.638	32.7
578.977	32.69
579.317	32.53
579.657	32.76
579.996	32.78
580.336	33.03
580.675	33.21
581.014	32.83
581.354	32.9
581.693	33.43
582.032	33.49
582.372	32.83
582.711	33.13
583.05	33.42
583.389	33.21
583.728	33.45
584.067	33.44
584.406	33.36
584.745	33.49
585.083	33.42
585.422	33.86
585.761	33.61
586.1	33.79
586.438	33.7
586.777	34.03
587.115	33.98
587.454	33.67
587.792	33.8
588.13	34.07
588.469	33.89
588.807	34.28
589.145	33.91
589.483	34.33
589.821	34
590.159	34.07
590.497	34.13
590.835	34.15
591.173	34.05
591.511	34.01
591.849	34.44
592.187	34.38
592.524	34.24
592.862	34.33
593.2	34.56
593.537	34.4
593.875	34.52
594.212	34.72
594.55	34.49
594.887	34.61
595.224	34.5
595.561	34.68
595.899	34.46
596.236	34.74
596.573	34.8
596.91	34.96
597.247	34.7
597.584	34.6
597.921	34.64
598.258	34.57
598.594	34.33
598.931	34.66
599.268	34.72
599.604	34.6
599.941	34.88
600.277	34.8
600.614	35.14
600.95	35.82
601.287	35.26
601.623	35.7
601.959	35.49
602.296	35.58
602.632	35.15
602.968	35.59
603.304	35.66
603.64	35.62
603.976	35.61
604.312	35.2
604.648	35.57
604.984	35.7
605.319	35.6
605.655	35.59
605.991	35.52
606.326	35.34
606.662	35.51
606.998	35.35
607.333	35.66
607.668	35.55
608.004	35.55
608.339	36.14
608.674	36.15
609.01	36.13
609.345	36.17
609.68	36.27
610.015	36.39
610.35	36.05
610.685	36.15
611.02	36
611.355	35.76
611.689	35.83
612.024	36.21
612.359	36.06
612.694	36.65
613.028	36.66
613.363	36.44
613.697	36.75
614.032	36.21
614.366	36.67
614.7	36.67
615.035	36.78
615.369	37.33
615.703	37.01
616.037	36.9
616.371	36.92
616.705	36.71
617.039	37.18
617.373	37.2
617.707	36.91
618.041	37.07
618.375	37.24
618.709	37.26
619.042	36.77
619.376	37.29
619.71	37.01
620.043	37.49
620.377	37.58
620.71	37.64
621.043	37.74
621.377	37.84
621.71	37.61
622.043	37.69
622.376	37.73
622.709	38.11
623.043	37.63
623.376	37.65
623.709	37.97
624.041	37.64
624.374	37.89
624.707	37.63
625.04	37.81
625.373	37.82
625.705	38.06
626.038	37.7
626.37	38.04
626.703	38.47
627.035	38.28
627.368	38.22
627.7	38.11
628.032	37.86
628.365	38.03
628.697	38.33
629.029	38.05
629.361	37.93
629.693	38.55
630.025	38.61
630.357	38.32
630.689	38.32
631.021	38.25
631.353	38.43
631.684	38.74
632.016	38.81
632.348	38.46
632.679	38.46
633.011	39.05
633.342	38.75
633.674	38.88
634.005	38.91
634.336	39.21
634.668	38.86
634.999	38.63
635.33	39.24
635.661	39.15
635.992	38.83
636.323	39.24
636.654	38.81
636.985	39.26
637.316	39.14
637.647	38.99
637.977	39.35
638.308	39.25
638.639	39.17
638.969	39.3
639.3	39.61
639.63	39.5
639.961	39.58
640.291	39.96
640.622	39.99
640.952	39.62
641.282	39.86
641.612	39.2
641.943	39.21
642.273	39.73
642.603	39.33
642.933	39.89
643.263	39.94
643.592	40.45
643.922	39.76
644.252	40.26
644.582	40.02
644.911	39.94
645.241	40.03
645.571	39.98
645.9	39.82
646.23	40.43
646.559	40.51
646.888	40.29
647.218	39.99
647.547	39.91
647.876	40.01
648.205	40.25
648.534	40.47
648.863	40.58
649.192	40.32
649.521	40.21
649.85	40.74
650.179	40.78
650.508	40.54
650.837	40.96
651.165	40.43
651.494	40.74
651.822	41.28
652.151	40.61
652.479	40.94
652.808	40.58
653.136	40.75
653.465	40.91
653.793	40.63
654.121	40.36
654.449	40.67
654.777	41.08
655.105	41.12
655.433	41.06
655.761	41.75
656.089	41.68
656.417	40.44
656.745	41.22
657.073	41.08
657.4	40.79
657.728	40.62
658.056	41.21
658.383	41.07
658.711	41.06
659.038	41.01
659.365	41.3
659.693	41.09
660.02	41.15
660.347	41.27
660.674	41.37
661.001	41.56
661.329	41.84
661.656	41.96
661.982	41.91
662.309	42.19
662.636	42.07
662.963	41.73
663.29	41.39
663.616	41.96
663.943	42.03
664.27	41.75
664.596	41.95
664.923	41.87
665.249	41.61
665.576	42.07
665.902	42.3
666.228	42.12
666.554	42.29
666.881	42.81
667.207	42.09
667.533	42.7
667.859	42.45
668.185	42.2
668.511	42.38
668.837	42.14
669.162	42.11
669.488	41.85
669.814	42.1
670.139	42.42
670.465	42.53
670.791	42.88
671.116	42.3
671.442	42.99
671.767	42.6
672.092	42.61
672.418	43.24
672.743	42.9
673.068	43.12
673.393	42.77
673.718	42.65
674.043	43.57
674.368	43.23
674.693	42.37
675.018	42.88
675.343	43.77
675.667	43.67
675.992	43.21
676.317	43.29
676.641	43.01
676.966	43.15
677.29	41.88
677.615	42.85
677.939	43.18
678.264	43.39
678.588	43.47
678.912	43.24
679.236	43.13
679.56	43.63
679.885	43.88
680.209	42.97
680.532	43.15
680.856	43.86
681.18	43.73
681.504	43.49
681.828	43.66
682.152	43.29
682.475	43.42
682.799	43.26
683.122	43.78
683.446	43.77
683.769	44.73
684.093	44.49
684.416	44.44
684.739	43.55
685.062	44.22
685.386	44.04
685.709	44.05
686.032	44.22
686.355	44.29
686.678	44.41
687.001	44.66
687.324	44.64
687.646	44.37
687.969	43.55
688.292	44.98
688.614	44.15
688.937	44.1
689.26	44.53
689.582	43.79
689.904	44.04
690.227	43.88
690.549	44.7
690.871	44.91
691.194	44.1
691.516	44.07
691.838	45.12
692.16	45.19
692.482	45.17
692.804	45.23
693.126	44.71
693.448	44.18
693.769	45.45
694.091	44.89
694.413	46.04
694.735	44.14
695.056	45.02
695.378	44.9
695.699	44.21
696.021	45.54
696.342	45
696.663	45.2
696.984	44.81
697.306	45.08
697.627	45.39
697.948	45.05
698.269	45.51
698.59	45.43
698.911	45.24
699.232	45.77
699.553	45.78
699.873	44.86
700.194	45.31
700.515	45.49
700.835	45.39
701.156	45.1
701.477	45.43
701.797	45.5
702.117	44.8
702.438	44.49
702.758	45.72
703.078	45.87
703.398	46.5
703.719	45.86
704.039	45.92
704.359	44.64
704.679	46.48
704.999	45.78
705.319	45.77
705.638	45.95
705.958	46.86
706.278	47.11
706.597	45.69
706.917	46.21
707.237	45.61
707.556	46.28
707.876	45.77
708.195	45.93
708.514	46.14
708.834	46.36
709.153	46.17
709.472	45.7
709.791	45.79
710.11	45.99
710.429	46.76
710.748	45.97
711.067	46.81
711.386	46.28
711.705	46.2
712.023	45.64
712.342	46.42
712.661	46.08
712.979	46.18
713.298	46.79
713.616	46.96
713.935	46.04
714.253	46.9
714.572	45.4
714.89	45.6
715.208	46.5
715.526	46.52
715.844	47.91
716.162	46.47
716.48	46.25
716.798	46.72
717.116	47.48
717.434	45.78
717.752	46.51
718.069	47.31
718.387	46.15
718.705	47.01
719.022	46.73
719.34	47.8
719.657	46.73
719.975	47.39
720.292	46.46
720.609	46.43
720.927	46.61
721.244	48.28
721.561	46.69
721.878	47.74
722.195	47.34
722.512	46.87
722.829	48.73
723.146	47.01
723.463	48.44
723.779	47.49
724.096	47.37
724.413	47.37
724.729	48.19
725.046	46.37
725.362	47.98
725.679	47.33
725.995	48.69
726.311	46.94
726.628	47.69
726.944	48.3
727.26	46.27
727.576	47.31
727.892	48.46
728.208	47.83
728.524	47.86
728.84	47.61
729.156	46.98
729.472	46.2
729.787	48.46
730.103	48.9
730.419	48.15
730.734	47.87
731.05	48.71
731.365	48.53
731.681	49.64
731.996	46.81
732.311	49.45
732.626	48.19
732.942	48.01
733.257	48.5
733.572	48.03
733.887	47.61
734.202	48.87
734.517	48.46
734.832	47.23
735.146	49.08
735.461	48.73
735.776	49.71
736.091	49.46
736.405	48.46
736.72	46.47
737.034	47.71
737.349	48.62
737.663	48.38
737.977	46.71
738.292	50.01
738.606	49.53
738.92	49.97
739.234	48.89
739.548	49.3
739.862	48.4
740.176	49.66
740.49	50.32
740.804	49.92
741.117	48.64
741.431	48.33
741.745	47.85
742.058	49.71
742.372	48.63
742.685	50.12
742.999	49.76
743.312	51.19
743.626	48.69
743.939	48.98
744.252	49.11
744.565	50.99
744.878	47.95
745.191	47.45
745.505	48.77
745.817	49.32
746.13	50.12
746.443	50.08
746.756	49.62
747.069	49.71
747.381	48.65
747.694	48.98
748.007	50.41
748.319	48.7
748.632	50.51
748.944	51.41
749.256	48.86
749.569	50.82
749.881	47.91
750.193	51.48
750.505	50.24
750.817	48.85
751.129	50.71
751.441	51.33
751.753	50.62
752.065	50.43
752.377	49.5
752.689	48.53
753	48.66
753.312	49.91
753.624	49.41
753.935	49.67
754.247	49.96
754.558	51.56
754.869	51.5
755.181	49.83
755.492	50.39
755.803	50.15
756.114	49.95
756.425	49.47
756.736	49.72
757.047	49
757.358	51.94
757.669	51.17
757.98	49.57
758.291	50.85
758.601	49.77
758.912	49.51
759.223	51.15
759.533	49.62
759.844	51.18
760.154	51.49
760.464	51.75
760.775	49.04
761.085	50.04
761.395	50.8
761.705	50.28
762.016	48.88
762.326	50.95
762.636	50.48
762.945	49.92
763.255	50.86
763.565	51.68
763.875	50.5
764.185	50.28
764.494	50.59
764.804	50.59
765.113	50.28
765.423	51.45
765.732	49.53
766.042	52.09
766.351	50.78
766.66	50.84
766.97	50.37
767.279	52.74
767.588	51.3
767.897	51.92
768.206	49.61
768.515	52.2
768.824	52.16
769.133	50.13
769.441	52.11
769.75	51.33
770.059	52.12
770.367	51.11
770.676	48.89
770.984	49.97
771.293	51.91
771.601	49.98
771.91	49.55
772.218	51.33
772.526	51.78
772.834	49.85
773.142	49.91
773.45	52.22
773.758	50.49
774.066	50.18
774.374	49.68
774.682	49.5
774.99	52.2
775.298	52.75
775.605	51.44
775.913	52.76
776.22	52.57
776.528	52.13
776.835	51.4
777.143	51.26
777.45	51.71
777.757	55.64
778.065	51.84
778.372	54.32
778.679	54.27
778.986	52.06
779.293	52.66
779.6	54.91
779.907	52.45
780.214	53.42
780.52	51.14
780.827	53.49
781.134	48.72
781.44	55.07
781.747	51.76
782.053	50.49
782.36	53.56
782.666	50.44
782.973	49.02
783.279	53.47
783.585	52.68
783.891	50.25
784.197	51.81
784.503	52.71
784.809	50.46
785.115	50.73
785.421	49.65
785.727	51.03
786.033	51.72
786.339	52.19
786.644	50.74
786.95	52.73
787.255	52.97
787.561	53.56
787.866	52.33
788.172	52.12
788.477	54.28
788.782	55.68
789.088	50.39
789.393	49.32
789.698	50.93
790.003	52.13
790.308	53.25
790.613	52.23
790.918	52.28
791.223	51.65
791.527	51.52
791.832	52.43
792.137	53.12
792.441	52.71
792.746	50.4
793.05	54.03
793.355	54.06
793.659	51.49
793.963	59.33
794.268	52.18
794.572	54.62
794.876	50.92
795.18	53.02
795.484	53.42
795.788	54.51
796.092	53.09
796.396	54.49
796.7	56.33
797.004	51.06
797.307	54.53
797.611	56.59
797.915	48.03
798.218	53.2
798.522	52.63
798.825	53.69
799.128	52.98
799.432	51.88
799.735	57.68
800.038	53.06
800.341	51.95
800.644	50.08
800.947	51.45
801.25	52.95
801.553	57.22
801.856	51.43
802.159	50.43
802.462	55.77
802.764	54.55
803.067	55.75
803.37	52.19
803.672	54.86
803.975	50.94
804.277	57.57
804.579	52.46
804.882	51.18
805.184	53.18
805.486	55.1
805.788	53.12
806.09	50.21
806.392	50.21
806.694	58.6
806.996	53.62
807.298	52.89
807.6	53.2
807.902	51.7
808.203	52.53
808.505	54.13
808.807	52
809.108	52.36
809.409	52.7
809.711	50.88
810.012	51.7
810.313	56.47
810.615	55.68
810.916	53.8
811.217	55.13
811.518	49.72
811.819	54.69
812.12	56.92
812.421	49.75
812.722	55.11
813.023	52
813.323	60.99
813.624	55.3
813.925	53.48
814.225	52.38
814.526	47.63
814.826	56.97
815.126	57.77
815.427	48.5
815.727	48.66
816.027	51.79
816.327	54.78
816.627	56
816.927	56.39
817.227	55.06
817.527	52.08
817.827	57.38
818.127	51.04
818.427	54.26
818.727	57.05
819.026	53.65
819.326	54.73
819.625	58.93
819.925	52.53
820.224	57.97
820.524	57.62
820.823	60.12
821.122	53.39
821.421	57.53
821.72	57.79
822.019	55.33
822.318	54.3
822.617	51.91
822.916	56.55
823.215	56.41
823.514	51.26
823.813	52.57
824.111	53.42
824.41	54.84
824.709	55.18
825.007	55.57
825.306	54.29
825.604	55.07
825.902	55.36
826.201	55.36
826.499	54.26
826.797	54.64
827.095	55.51
827.393	55.65
827.691	55.17
827.989	55.1
828.287	55.79
828.585	54.42
828.882	54.76
829.18	55.58
829.478	56.76
829.775	55.17
830.073	55.91
830.37	55.13
830.668	55.95
830.965	53.07
831.263	53.49
831.56	54.19
831.857	55.17
832.154	56.8
832.451	52.47
832.748	51.98
833.045	57.47
833.342	51.65
833.639	51.25
833.936	57.71
834.232	55.92
834.529	53.95
834.826	54.69
835.122	61.21
835.419	53.69
835.715	52.9
836.012	59.94
836.308	60.56
836.604	54.77
836.901	55.43
837.197	56.42
837.493	52.97
837.789	55.77
838.085	52.6
838.381	54.61
838.677	56.37
838.972	56.3
839.268	61.03
839.564	58.27
839.86	52.13
840.155	57.61
840.451	60.43
840.746	55.61
841.042	63.42
841.337	56.4
841.632	55.64
841.928	57.53
842.223	53.05
842.518	57.72
842.813	51.99
843.108	58.77
843.403	59.55
843.698	56.9
843.993	48.43
844.287	45.47
844.582	56.99
844.877	65.7
845.171	49.76
845.466	46.14
845.761	53.31
846.055	56.21
846.349	49.71
846.644	60.34
846.938	52.87
847.232	39.27
847.526	64.04
847.82	51.77
848.114	69.76
848.408	54.64
848.702	50.14
848.996	60.05
849.29	59.1
849.584	63.41
849.877	59.79
850.171	49.49
850.465	60.34
850.758	61.14
851.052	46.06
851.345	51.04
851.638	72.09
851.932	63.24
852.225	60.28
852.518	47.45
852.811	54.61
853.104	54.68
853.397	59.75
853.69	59.94
853.983	58.41
854.276	35.14
854.569	54.32
854.861	57.32
855.154	67.59
855.447	49.12
855.739	64.04
856.032	56.25
856.324	52.05
856.616	62.91
856.909	68.42
857.201	42.88
857.493	44.97
857.785	67.82
858.077	55.7
858.369	64.53
858.661	51.99
858.953	64.82
859.245	45.72
859.537	56.76
859.829	46.26
860.12	51.29
860.412	72.26
860.703	55.15
860.995	45.96
861.286	40.86
861.578	45.86
861.869	56.55
862.16	60.63
862.452	88.9
862.743	44.98
863.034	54.83
863.325	42.91
863.616	52.52
863.907	69.55
864.198	58.06
864.488	71.37
864.779	82.14
865.07	72.89
865.36	47.21
865.651	59.48
865.941	36.82
866.232	58.97
866.522	65.12
866.813	73.68
867.103	40.35
867.393	44.19
867.683	50.75
867.973	58.29
868.263	57.2
868.553	56.03
868.843	38.11
869.133	42.33
869.423	84.04
869.713	51.61
870.002	38.38
870.292	55.99
870.582	21.01
870.871	74.04
871.161	73.74
871.45	74.08
871.739	82.85
872.029	64.27
872.318	60.4
872.607	51.56
872.896	39.4
873.185	53.28
873.474	58.36
873.763	50.03
874.052	51.47
874.341	60.44
874.63	49.16
874.918	64.29
875.207	61.95
875.496	55.99
875.784	37.17
876.073	34.12
876.361	50.74
876.649	70.14
876.938	52.24
877.226	42.02
877.514	46.07
877.802	77.55
878.09	68.05
878.378	76.99
878.666	51.89
878.954	61.87
879.242	58.15
879.53	43.01
879.817	31.97
880.105	87.84
880.392	50.68
880.68	33.97
880.967	55.28
881.255	36.72
881.542	38.81
881.83	71.09
882.117	51.51
882.404	41.33
882.691	44.05
882.978	49.16
883.265	56.09
883.552	36.01
883.839	60.6
884.126	65.75
884.413	56.53
884.699	51.17
884.986	57.9
885.273	61.13
885.559	61.13
885.846	61.13
