Data from 1897-1_chest_Reflection__0__31.txt Node

Date: Fri Sep 30 18:00:29 CDT 2022
User: ToomeyLab
Spectrometer: FLMS14357
Trigger mode: 0
Integration Time (sec): 1.000000E-2
Scans to average: 100
Electric dark correction enabled: true
Nonlinearity correction enabled: false
Boxcar width: 0
XAxis mode: Wavelengths
Number of Pixels in Spectrum: 2048
>>>>>Begin Spectral Data<<<<<
189.047	-62.87
189.435	-62.87
189.823	-62.87
190.211	54.59
190.599	115.22
190.987	-385.53
191.375	223.59
191.763	207.02
192.151	-28.31
192.538	-63.77
192.926	-197.93
193.314	0.2
193.702	907.95
194.089	12.92
194.477	-101.81
194.864	43.98
195.252	-334.95
195.639	-130.39
196.027	-1296.35
196.414	2.06
196.801	43.46
197.189	19.45
197.576	36.72
197.963	-6.91
198.351	30.82
198.738	-19.89
199.125	51.9
199.512	21.31
199.899	19.52
200.286	-7.63
200.673	38.44
201.06	29.02
201.447	3.39
201.833	38.41
202.22	34.36
202.607	32.07
202.994	40.73
203.38	7.06
203.767	-12.15
204.154	47.09
204.54	57.24
204.927	35.15
205.313	-17.9
205.699	21.33
206.086	9
206.472	-5.48
206.858	17.9
207.245	4.13
207.631	12.22
208.017	-18.37
208.403	21.59
208.789	-12.3
209.175	28.29
209.561	-3.89
209.947	-40.13
210.333	2.78
210.719	-22.7
211.105	-10.92
211.491	18.92
211.876	9.67
212.262	17.91
212.648	15.73
213.034	-0.16
213.419	-7.23
213.805	3.3
214.19	-10.65
214.576	12.01
214.961	21.85
215.346	24.05
215.732	8.41
216.117	3.96
216.502	13.2
216.888	13.24
217.273	2.75
217.658	17.54
218.043	19.26
218.428	4.97
218.813	25.68
219.198	16.41
219.583	7.75
219.968	28.89
220.353	19.02
220.738	30.63
221.122	17.91
221.507	15.23
221.892	12.82
222.276	5.28
222.661	9.17
223.046	4.14
223.43	-6.01
223.815	3.88
224.199	7.35
224.583	-1.4
224.968	8.5
225.352	3.56
225.736	7.27
226.121	9.83
226.505	-3
226.889	0.34
227.273	-3.65
227.657	3.95
228.041	1.78
228.425	6.1
228.809	3.91
229.193	3.31
229.577	2.03
229.961	2.64
230.344	1.24
230.728	1.25
231.112	1.77
231.495	1.37
231.879	3.83
232.263	2.28
232.646	-0.42
233.03	1.9
233.413	1.88
233.797	2.28
234.18	0.86
234.563	3.99
234.946	3.02
235.33	1.34
235.713	1.78
236.096	2.41
236.479	2.36
236.862	1.14
237.245	3.47
237.628	1.58
238.011	3.2
238.394	2.15
238.777	0.37
239.16	1.36
239.543	3.04
239.925	3.24
240.308	-0.04
240.691	1.18
241.073	2.31
241.456	0.57
241.838	2.08
242.221	1.99
242.603	2.33
242.986	1.87
243.368	1.31
243.75	1.46
244.133	2.15
244.515	1.72
244.897	1.6
245.279	2.23
245.661	2.28
246.043	1.25
246.425	1.08
246.807	2.61
247.189	2.38
247.571	2.13
247.953	2.05
248.335	1.35
248.717	1.7
249.098	1.83
249.48	1.54
249.862	1.65
250.243	1.32
250.625	2.01
251.006	1.64
251.388	0.76
251.769	1.92
252.151	1.82
252.532	1.32
252.913	1.62
253.295	1.56
253.676	1.29
254.057	1.83
254.438	1.07
254.819	2.47
255.2	1.23
255.581	1.92
255.962	2.03
256.343	1.8
256.724	1.52
257.105	3.58
257.486	2.46
257.867	2.6
258.247	1.07
258.628	2.14
259.009	3
259.389	1.53
259.77	2.47
260.15	1.47
260.531	2.01
260.911	1.74
261.292	1.67
261.672	1.56
262.052	1.63
262.432	1.77
262.813	2.35
263.193	1.45
263.573	1.57
263.953	1.22
264.333	2.38
264.713	1.36
265.093	1.52
265.473	2.31
265.853	1.78
266.233	1.6
266.612	1.69
266.992	1.32
267.372	1.08
267.752	1.14
268.131	1.42
268.511	1.37
268.89	1.5
269.27	1.75
269.649	1.5
270.029	2.25
270.408	1.63
270.787	1.61
271.167	1.53
271.546	1.99
271.925	2.23
272.304	1.99
272.683	1.51
273.062	1.44
273.441	1.39
273.82	1.2
274.199	1.83
274.578	1.41
274.957	2.05
275.336	1.48
275.715	1.47
276.093	1.63
276.472	1.33
276.851	1.61
277.229	1.07
277.608	1.63
277.986	1.47
278.365	2.15
278.743	1.36
279.122	1.58
279.5	1.74
279.878	1.7
280.257	1.6
280.635	1.71
281.013	2.09
281.391	1.54
281.769	1.9
282.147	1.63
282.525	2.03
282.903	1.67
283.281	1.27
283.659	1.48
284.037	1.2
284.415	1.64
284.792	2.29
285.17	0.94
285.548	1.77
285.925	1.71
286.303	1.22
286.68	1.47
287.058	1.53
287.435	1.65
287.813	1.67
288.19	1.6
288.567	1.69
288.945	1.27
289.322	1.66
289.699	1.67
290.076	1.39
290.453	1.59
290.83	2.1
291.207	1.34
291.584	1.31
291.961	1.64
292.338	1.51
292.715	1.87
293.092	1.44
293.469	1.78
293.845	1.91
294.222	1.74
294.599	2.11
294.975	2.06
295.352	1.94
295.728	1.82
296.105	1.6
296.481	1.85
296.858	2
297.234	2.02
297.61	1.56
297.986	1.25
298.363	1.57
298.739	1.45
299.115	1.62
299.491	1.84
299.867	1.7
300.243	1.74
300.619	1.68
300.995	2.29
301.371	1.86
301.746	1.38
302.122	2.29
302.498	1.65
302.874	1.61
303.249	1.85
303.625	1.95
304	1.75
304.376	1.86
304.751	1.95
305.127	1.74
305.502	1.82
305.878	2.22
306.253	1.58
306.628	1.85
307.003	1.39
307.378	1.74
307.754	1.76
308.129	2.01
308.504	1.95
308.879	2.26
309.254	1.71
309.629	2.03
310.003	1.65
310.378	1.66
310.753	1.71
311.128	1.91
311.502	2.05
311.877	1.9
312.252	2.19
312.626	1.94
313.001	1.72
313.375	1.86
313.75	2.33
314.124	2.01
314.498	2.09
314.873	1.84
315.247	1.94
315.621	2.12
315.995	2.67
316.369	1.92
316.743	2.45
317.117	2.67
317.491	2.6
317.865	2.73
318.239	2.33
318.613	2.06
318.987	1.82
319.361	1.69
319.734	1.99
320.108	2.12
320.482	1.72
320.855	2.44
321.229	2.94
321.602	1.91
321.976	2.6
322.349	2.05
322.723	1.98
323.096	2.83
323.469	2.4
323.843	1.96
324.216	2.24
324.589	2.53
324.962	2.53
325.335	2.3
325.708	2.18
326.081	2.51
326.454	2.23
326.827	2.06
327.2	2.31
327.573	1.91
327.945	2.44
328.318	1.9
328.691	2.45
329.063	2.33
329.436	2.41
329.809	3.05
330.181	1.99
330.553	2.74
330.926	2.25
331.298	2.15
331.671	2.12
332.043	2.46
332.415	2.03
332.787	1.99
333.159	2.14
333.532	2.73
333.904	2.8
334.276	2.47
334.648	2.41
335.02	2.62
335.391	2.5
335.763	2.34
336.135	2.47
336.507	2.46
336.879	2.8
337.25	2.2
337.622	2.57
337.993	2.15
338.365	2.42
338.736	2.49
339.108	2.73
339.479	2.4
339.851	2
340.222	2.41
340.593	2.08
340.964	1.95
341.336	2.23
341.707	2.15
342.078	2.65
342.449	2.61
342.82	2.11
343.191	2.5
343.562	2.37
343.933	2.33
344.303	2.2
344.674	2.18
345.045	2.15
345.416	2.51
345.786	2.38
346.157	2.53
346.527	2.26
346.898	2.29
347.268	2.14
347.639	2.12
348.009	1.93
348.38	2.93
348.75	2.82
349.12	2.33
349.49	2.66
349.861	2.09
350.231	2.28
350.601	2.74
350.971	2.1
351.341	2.44
351.711	2.21
352.081	2.27
352.45	2.5
352.82	2.32
353.19	2.97
353.56	2.24
353.929	1.89
354.299	2.69
354.669	2.42
355.038	2.2
355.408	2.84
355.777	2.31
356.147	2.23
356.516	2.29
356.885	1.97
357.254	2.62
357.624	2.51
357.993	1.76
358.362	2.83
358.731	2.31
359.1	2.38
359.469	2.44
359.838	2.68
360.207	2.23
360.576	2.39
360.945	2.55
361.314	2.6
361.682	2.44
362.051	2.4
362.42	2.37
362.788	2.41
363.157	2.37
363.525	2.14
363.894	2.42
364.262	2.39
364.631	2.7
364.999	2.55
365.367	2.62
365.735	2.21
366.104	2.16
366.472	2.56
366.84	2.59
367.208	2.8
367.576	3.05
367.944	2.49
368.312	2.24
368.68	2.24
369.048	2.24
369.416	2.49
369.783	2.51
370.151	2.4
370.519	3.01
370.886	2.59
371.254	2.47
371.621	2.84
371.989	2.71
372.356	2.71
372.724	2.49
373.091	2.5
373.458	2.36
373.826	2.82
374.193	2.64
374.56	2.88
374.927	2.75
375.294	2.86
375.661	1.93
376.028	2.32
376.395	2.66
376.762	2.32
377.129	2.97
377.496	2.68
377.863	2.28
378.229	2.76
378.596	2.63
378.963	2.64
379.329	2.52
379.696	2.82
380.062	2.93
380.429	2.51
380.795	2.32
381.161	2.47
381.528	2.92
381.894	2.51
382.26	2.34
382.626	2.37
382.993	2.76
383.359	2.44
383.725	2.36
384.091	2.53
384.457	2.72
384.823	2.59
385.188	2.48
385.554	2.42
385.92	2.61
386.286	3.04
386.651	2.54
387.017	2.61
387.383	2.68
387.748	2.36
388.114	2.62
388.479	2.34
388.845	2.29
389.21	2.71
389.575	2.65
389.94	2.66
390.306	2.5
390.671	2.56
391.036	2.78
391.401	2.34
391.766	2.62
392.131	2.6
392.496	2.56
392.861	2.79
393.226	2.58
393.591	2.52
393.956	2.76
394.32	2.5
394.685	2.48
395.05	2.82
395.414	2.57
395.779	2.43
396.143	2.75
396.508	2.46
396.872	2.69
397.236	2.69
397.601	2.76
397.965	2.65
398.329	2.57
398.694	2.51
399.058	2.67
399.422	2.75
399.786	2.75
400.15	2.74
400.514	2.55
400.878	2.75
401.242	2.48
401.605	2.57
401.969	2.54
402.333	2.79
402.697	2.83
403.06	2.61
403.424	2.61
403.787	2.64
404.151	2.77
404.514	2.71
404.878	2.71
405.241	2.76
405.604	2.81
405.968	2.77
406.331	2.64
406.694	2.69
407.057	2.55
407.42	2.79
407.783	2.54
408.146	2.67
408.509	2.77
408.872	2.77
409.235	2.64
409.598	2.82
409.961	2.82
410.323	2.97
410.686	3.05
411.049	2.65
411.411	2.61
411.774	2.89
412.136	2.83
412.499	2.54
412.861	2.6
413.223	2.3
413.586	2.65
413.948	2.88
414.31	2.86
414.672	2.8
415.035	2.93
415.397	2.72
415.759	2.8
416.121	2.79
416.483	2.51
416.845	2.61
417.206	2.86
417.568	2.7
417.93	2.52
418.292	2.68
418.653	2.68
419.015	2.83
419.377	2.75
419.738	2.56
420.1	2.68
420.461	2.82
420.822	2.59
421.184	2.72
421.545	2.52
421.906	2.48
422.267	2.7
422.629	2.61
422.99	2.58
423.351	2.63
423.712	2.59
424.073	2.63
424.434	2.68
424.795	2.6
425.155	2.58
425.516	2.66
425.877	2.75
426.238	2.61
426.598	2.64
426.959	2.61
427.32	2.73
427.68	2.79
428.041	2.74
428.401	2.77
428.761	2.76
429.122	2.76
429.482	2.67
429.842	2.85
430.202	2.63
430.563	2.69
430.923	2.68
431.283	2.67
431.643	2.96
432.003	2.68
432.363	2.86
432.722	2.82
433.082	2.8
433.442	2.82
433.802	2.83
434.161	2.75
434.521	2.7
434.881	2.7
435.24	2.67
435.6	2.75
435.959	2.76
436.319	2.77
436.678	2.82
437.037	2.84
437.396	2.86
437.756	2.85
438.115	2.59
438.474	2.74
438.833	2.77
439.192	2.82
439.551	2.82
439.91	2.74
440.269	2.68
440.628	2.74
440.987	2.8
441.345	2.78
441.704	2.83
442.063	2.83
442.421	2.72
442.78	2.87
443.138	2.73
443.497	2.84
443.855	2.92
444.214	2.7
444.572	2.84
444.93	2.74
445.288	2.86
445.647	2.86
446.005	2.87
446.363	2.79
446.721	2.66
447.079	2.74
447.437	2.78
447.795	2.79
448.153	2.73
448.51	2.75
448.868	2.81
449.226	2.71
449.584	2.71
449.941	2.77
450.299	2.79
450.656	2.86
451.014	3.1
451.371	2.89
451.729	2.97
452.086	2.8
452.443	2.94
452.801	2.91
453.158	2.73
453.515	2.7
453.872	2.85
454.229	2.91
454.586	3.02
454.943	2.99
455.3	2.78
455.657	2.96
456.014	2.78
456.371	2.93
456.727	2.91
457.084	2.77
457.441	2.83
457.797	2.84
458.154	2.77
458.51	2.77
458.867	2.87
459.223	2.99
459.58	2.95
459.936	2.87
460.292	2.92
460.648	2.71
461.005	2.92
461.361	2.87
461.717	2.79
462.073	2.78
462.429	2.81
462.785	2.97
463.141	3.02
463.496	2.87
463.852	2.93
464.208	2.96
464.564	2.86
464.919	3
465.275	2.96
465.631	3.13
465.986	2.88
466.342	2.9
466.697	3.03
467.052	3.05
467.408	2.82
467.763	2.76
468.118	3.04
468.473	2.97
468.829	2.94
469.184	2.91
469.539	2.85
469.894	3.07
470.249	3.06
470.603	2.97
470.958	2.95
471.313	3
471.668	2.99
472.023	2.99
472.377	2.94
472.732	3.15
473.086	2.94
473.441	3.02
473.795	2.94
474.15	2.87
474.504	3.08
474.859	3.03
475.213	2.96
475.567	3.06
475.921	2.92
476.275	2.81
476.63	2.96
476.984	3.11
477.338	3.01
477.692	3.13
478.045	3.12
478.399	3.06
478.753	3.06
479.107	2.91
479.461	2.99
479.814	2.89
480.168	3.07
480.521	2.92
480.875	2.98
481.228	2.95
481.582	3.06
481.935	2.97
482.289	3.08
482.642	2.98
482.995	2.97
483.348	2.93
483.701	3
484.055	2.92
484.408	2.92
484.761	2.85
485.114	2.74
485.466	2.73
485.819	2.72
486.172	2.85
486.525	2.87
486.878	2.93
487.23	2.95
487.583	2.94
487.936	2.96
488.288	2.96
488.641	2.81
488.993	2.89
489.345	2.85
489.698	2.84
490.05	2.91
490.402	2.92
490.754	2.97
491.107	2.98
491.459	3.07
491.811	2.98
492.163	2.99
492.515	2.93
492.866	2.93
493.218	2.83
493.57	2.83
493.922	2.93
494.274	2.99
494.625	3.08
494.977	3.16
495.328	3.13
495.68	3.01
496.031	3.13
496.383	3.12
496.734	3.06
497.086	3.08
497.437	3.1
497.788	3.06
498.139	2.94
498.49	3.04
498.842	2.98
499.193	3.11
499.544	3.11
499.894	3.08
500.245	3.07
500.596	3.11
500.947	3.1
501.298	3.24
501.648	3.14
501.999	3.01
502.35	3.16
502.7	3.13
503.051	3.19
503.401	3.24
503.752	3.19
504.102	3.24
504.452	3.17
504.803	3.24
505.153	3.36
505.503	3.15
505.853	3.16
506.203	3.15
506.553	3.16
506.903	3.21
507.253	3.29
507.603	3.3
507.953	3.31
508.303	3.24
508.652	3.15
509.002	3.16
509.352	3.25
509.701	3.11
510.051	3.19
510.4	3.13
510.75	3.14
511.099	3.15
511.449	3.32
511.798	3.13
512.147	3.3
512.496	3.2
512.846	3.28
513.195	3.31
513.544	3.17
513.893	3.31
514.242	3.2
514.591	3.31
514.939	3.15
515.288	3.28
515.637	3.19
515.986	3.42
516.334	3.33
516.683	3.21
517.032	3.3
517.38	3.2
517.729	3.21
518.077	3.19
518.426	3.3
518.774	3.22
519.122	3.16
519.47	3.22
519.819	3.28
520.167	3.32
520.515	3.2
520.863	3.23
521.211	3.29
521.559	3.25
521.907	3.34
522.255	3.23
522.602	3.36
522.95	3.37
523.298	3.42
523.645	3.32
523.993	3.4
524.341	3.48
524.688	3.44
525.036	3.35
525.383	3.19
525.73	3.44
526.078	3.34
526.425	3.27
526.772	3.35
527.119	3.21
527.466	3.25
527.814	3.31
528.161	3.26
528.508	3.28
528.854	3.23
529.201	3.27
529.548	3.22
529.895	3.19
530.242	3.19
530.588	3.19
530.935	3.25
531.282	3.26
531.628	3.33
531.975	3.33
532.321	3.36
532.667	3.34
533.014	3.39
533.36	3.35
533.706	3.42
534.052	3.38
534.399	3.38
534.745	3.33
535.091	3.31
535.437	3.31
535.783	3.4
536.129	3.47
536.474	3.44
536.82	3.38
537.166	3.59
537.512	3.42
537.857	3.51
538.203	3.36
538.549	3.34
538.894	3.45
539.239	3.48
539.585	3.49
539.93	3.53
540.276	3.52
540.621	3.61
540.966	3.64
541.311	3.62
541.656	3.49
542.001	3.46
542.346	3.47
542.691	3.38
543.036	3.38
543.381	3.38
543.726	3.42
544.071	3.52
544.415	3.5
544.76	3.55
545.105	3.48
545.449	3.56
545.794	3.53
546.138	3.69
546.483	3.62
546.827	3.62
547.171	3.68
547.516	3.6
547.86	3.59
548.204	3.57
548.548	3.59
548.892	3.6
549.236	3.69
549.58	3.82
549.924	3.63
550.268	3.77
550.612	3.83
550.956	3.88
551.3	3.73
551.643	3.91
551.987	3.63
552.33	3.81
552.674	3.73
553.017	3.66
553.361	3.7
553.704	3.96
554.048	3.72
554.391	3.86
554.734	3.77
555.077	3.92
555.42	3.94
555.764	3.99
556.107	3.85
556.45	3.82
556.793	3.89
557.135	3.95
557.478	3.93
557.821	3.94
558.164	3.89
558.507	4.08
558.849	3.86
559.192	3.9
559.534	3.91
559.877	4.06
560.219	3.94
560.562	3.91
560.904	4.04
561.246	3.91
561.589	3.91
561.931	3.95
562.273	3.97
562.615	3.97
562.957	3.91
563.299	4.09
563.641	3.95
563.983	4.06
564.325	3.93
564.667	4.14
565.008	3.94
565.35	4.05
565.692	4.29
566.033	3.97
566.375	3.89
566.716	4.1
567.058	3.96
567.399	4.15
567.741	4.06
568.082	4.19
568.423	4.19
568.764	4.11
569.105	4.03
569.447	4.15
569.788	4.19
570.129	4.2
570.47	4.17
570.811	4.29
571.151	4.35
571.492	4.25
571.833	4.18
572.174	4.1
572.514	4.34
572.855	4.12
573.195	4.18
573.536	4.21
573.876	4.28
574.217	4.28
574.557	4.31
574.898	4.33
575.238	4.45
575.578	4.44
575.918	4.18
576.258	4.47
576.598	4.34
576.938	4.5
577.278	4.55
577.618	4.44
577.958	4.54
578.298	4.43
578.638	4.63
578.977	4.6
579.317	4.39
579.657	4.48
579.996	4.48
580.336	4.58
580.675	4.46
581.014	4.36
581.354	4.63
581.693	4.54
582.032	4.51
582.372	4.55
582.711	4.47
583.05	4.59
583.389	4.39
583.728	4.67
584.067	4.73
584.406	4.6
584.745	4.55
585.083	4.55
585.422	4.68
585.761	4.58
586.1	4.65
586.438	4.79
586.777	4.9
587.115	4.79
587.454	4.77
587.792	4.69
588.13	4.81
588.469	4.66
588.807	4.84
589.145	4.75
589.483	5.05
589.821	4.7
590.159	5
590.497	4.66
590.835	4.77
591.173	4.71
591.511	4.93
591.849	4.85
592.187	4.92
592.524	4.78
592.862	4.78
593.2	4.97
593.537	4.73
593.875	4.94
594.212	4.87
594.55	4.74
594.887	5.37
595.224	4.9
595.561	4.8
595.899	4.76
596.236	4.98
596.573	5.05
596.91	4.98
597.247	4.84
597.584	4.91
597.921	4.85
598.258	5.02
598.594	5.06
598.931	4.98
599.268	4.93
599.604	4.87
599.941	4.95
600.277	5.05
600.614	5.24
600.95	5.28
601.287	5.1
601.623	5.24
601.959	5.06
602.296	5.29
602.632	5.45
602.968	5.22
603.304	5.15
603.64	5.37
603.976	4.97
604.312	5.17
604.648	5.23
604.984	5.43
605.319	5.28
605.655	5.23
605.991	5.33
606.326	5.31
606.662	5.18
606.998	5.19
607.333	5.36
607.668	5.37
608.004	5.51
608.339	5.67
608.674	5.27
609.01	5.2
609.345	5.21
609.68	5.7
610.015	5.8
610.35	5.62
610.685	5.26
611.02	5.47
611.355	5.17
611.689	5.32
612.024	5.4
612.359	5.55
612.694	5.69
613.028	5.61
613.363	5.55
613.697	5.54
614.032	5.62
614.366	5.6
614.7	5.36
615.035	5.8
615.369	5.51
615.703	5.62
616.037	5.67
616.371	5.68
616.705	5.74
617.039	6.02
617.373	5.75
617.707	5.88
618.041	5.72
618.375	5.44
618.709	5.73
619.042	5.44
619.376	6.03
619.71	5.48
620.043	5.87
620.377	5.82
620.71	5.92
621.043	6.2
621.377	5.91
621.71	5.4
622.043	6.05
622.376	5.86
622.709	5.72
623.043	6.13
623.376	6.13
623.709	6.09
624.041	6.02
624.374	6.32
624.707	5.68
625.04	6.24
625.373	6.15
625.705	6.14
626.038	5.87
626.37	6.07
626.703	6.41
627.035	5.82
627.368	6.13
627.7	6.22
628.032	6.08
628.365	5.98
628.697	6.09
629.029	5.95
629.361	6.17
629.693	6.51
630.025	6.21
630.357	6.19
630.689	6.52
631.021	6.11
631.353	6.21
631.684	6.28
632.016	6.42
632.348	6.1
632.679	6.4
633.011	6.43
633.342	6.49
633.674	6.76
634.005	6.44
634.336	6.36
634.668	6.6
634.999	6.53
635.33	6.88
635.661	6.36
635.992	6.75
636.323	6.31
636.654	6.27
636.985	6.29
637.316	6.98
637.647	6.35
637.977	6.69
638.308	6.26
638.639	6.44
638.969	6.42
639.3	6.6
639.63	6.39
639.961	6.58
640.291	6.32
640.622	6.81
640.952	7.06
641.282	6.5
641.612	6.55
641.943	6.89
642.273	6.42
642.603	6.57
642.933	6.7
643.263	6.79
643.592	7.17
643.922	6.59
644.252	6.91
644.582	7.1
644.911	7.11
645.241	7.2
645.571	6.7
645.9	7.05
646.23	6.65
646.559	6.68
646.888	6.63
647.218	6.68
647.547	6.9
647.876	6.89
648.205	6.75
648.534	6.73
648.863	6.77
649.192	6.71
649.521	7.24
649.85	7.19
650.179	7.14
650.508	6.97
650.837	7.02
651.165	6.88
651.494	6.95
651.822	7.46
652.151	7.21
652.479	7.77
652.808	7.48
653.136	7.06
653.465	7.22
653.793	7.09
654.121	6.67
654.449	7.45
654.777	6.67
655.105	7.35
655.433	7.11
655.761	7.65
656.089	7.56
656.417	7.02
656.745	7.31
657.073	7.45
657.4	7.39
657.728	7.53
658.056	7.49
658.383	7.8
658.711	7.53
659.038	7.1
659.365	7.4
659.693	7.41
660.02	7.4
660.347	7.68
660.674	7.16
661.001	7.64
661.329	7.59
661.656	7.26
661.982	7.66
662.309	7.68
662.636	7.66
662.963	7.94
663.29	7.22
663.616	7.3
663.943	7.84
664.27	7.62
664.596	7.65
664.923	7.71
665.249	8.52
665.576	8.13
665.902	7.63
666.228	8.01
666.554	8.04
666.881	7.78
667.207	7.71
667.533	7.76
667.859	8.24
668.185	7.74
668.511	7.58
668.837	7.68
669.162	8.23
669.488	7.74
669.814	7.68
670.139	7.97
670.465	8.54
670.791	7.82
671.116	7.83
671.442	8.08
671.767	7.85
672.092	8.09
672.418	7.78
672.743	7.8
673.068	8.41
673.393	8.15
673.718	7.9
674.043	8.4
674.368	8.67
674.693	8.32
675.018	7.93
675.343	8.19
675.667	8.51
675.992	8.09
676.317	8.63
676.641	8.22
676.966	8.09
677.29	7.33
677.615	7.84
677.939	8.34
678.264	8.2
678.588	8.06
678.912	8.12
679.236	8.15
679.56	8.35
679.885	8.38
680.209	8.01
680.532	8.35
680.856	7.75
681.18	8.49
681.504	8.55
681.828	8.3
682.152	8.17
682.475	8.16
682.799	8.48
683.122	8.61
683.446	8.87
683.769	8.68
684.093	8.46
684.416	9.27
684.739	8.84
685.062	8.77
685.386	8.89
685.709	8.59
686.032	8.84
686.355	8.95
686.678	8.69
687.001	8.43
687.324	9.23
687.646	8.68
687.969	8.15
688.292	9.41
688.614	8.85
688.937	9.2
689.26	8.33
689.582	9.11
689.904	8.64
690.227	8.44
690.549	8.11
690.871	8.85
691.194	8.09
691.516	8.9
691.838	9.05
692.16	8.95
692.482	9.47
692.804	8.8
693.126	9.16
693.448	9.18
693.769	8.97
694.091	8.65
694.413	9.39
694.735	9.43
695.056	10.06
695.378	8.84
695.699	9.06
696.021	9
696.342	8.74
696.663	9.72
696.984	8.86
697.306	9.84
697.627	9.05
697.948	10.11
698.269	9.32
698.59	9.55
698.911	9.88
699.232	9.86
699.553	9.78
699.873	9.32
700.194	9.88
700.515	9.14
700.835	8.98
701.156	8.97
701.477	9.31
701.797	9.77
702.117	9.57
702.438	9.75
702.758	10.06
703.078	10.02
703.398	10.17
703.719	9.6
704.039	9.56
704.359	9.81
704.679	9.42
704.999	9.03
705.319	10.21
705.638	9.63
705.958	9.42
706.278	10.24
706.597	9.61
706.917	10
707.237	8.92
707.556	8.51
707.876	10.22
708.195	9.61
708.514	10.11
708.834	9.36
709.153	9.85
709.472	10.16
709.791	9.62
710.11	10.18
710.429	10.17
710.748	10.7
711.067	10.32
711.386	9.64
711.705	10.5
712.023	9.97
712.342	9.48
712.661	10.75
712.979	10.13
713.298	10.46
713.616	10.18
713.935	9.67
714.253	10.62
714.572	9.07
714.89	10.06
715.208	9.71
715.526	9.79
715.844	11.23
716.162	10.5
716.48	10.33
716.798	10.83
717.116	10.79
717.434	10.35
717.752	9.92
718.069	10.46
718.387	9.15
718.705	10.39
719.022	11.08
719.34	11.38
719.657	10.33
719.975	10.87
720.292	10.55
720.609	10.58
720.927	9.97
721.244	10.67
721.561	11.59
721.878	11.55
722.195	10.57
722.512	11.03
722.829	11.19
723.146	10.15
723.463	11.14
723.779	10.66
724.096	10.27
724.413	10.11
724.729	9.92
725.046	9.62
725.362	10.6
725.679	11.29
725.995	12.38
726.311	10.81
726.628	11.87
726.944	11.59
727.26	11.78
727.576	10.45
727.892	11.19
728.208	10.47
728.524	9.68
728.84	9.9
729.156	11.46
729.472	10.77
729.787	10.77
730.103	12.59
730.419	11.62
730.734	10.62
731.05	11.93
731.365	11.77
731.681	12.18
731.996	10.5
732.311	11.6
732.626	11.55
732.942	11.42
733.257	10.86
733.572	11.53
733.887	11.73
734.202	12.34
734.517	10.8
734.832	12.06
735.146	11.27
735.461	11.07
735.776	11.34
736.091	11.81
736.405	12.93
736.72	11.2
737.034	11.58
737.349	12.06
737.663	12.39
737.977	12.12
738.292	11.77
738.606	10.37
738.92	12.03
739.234	11.09
739.548	10.73
739.862	11.11
740.176	10.48
740.49	12.57
740.804	12.3
741.117	11.53
741.431	11.88
741.745	11.46
742.058	13.38
742.372	13.01
742.685	11.37
742.999	12.93
743.312	13
743.626	12.24
743.939	13.26
744.252	13.43
744.565	13.28
744.878	12.51
745.191	12.91
745.505	11.71
745.817	11.3
746.13	13.67
746.443	10.91
746.756	11.79
747.069	11.23
747.381	10.67
747.694	10.41
748.007	13.7
748.319	13.51
748.632	12.78
748.944	12.07
749.256	14.95
749.569	11.52
749.881	11.66
750.193	13.13
750.505	11.81
750.817	13.52
751.129	11.78
751.441	14.77
751.753	13.39
752.065	11.06
752.377	11.55
752.689	11.23
753	12.37
753.312	12.58
753.624	11.91
753.935	13.51
754.247	11.87
754.558	12.77
754.869	12.17
755.181	12.55
755.492	12.1
755.803	14.47
756.114	14.64
756.425	13.99
756.736	12.02
757.047	11.48
757.358	12.57
757.669	13.51
757.98	14.96
758.291	13.32
758.601	12.28
758.912	12.51
759.223	13.91
759.533	12.28
759.844	11.96
760.154	12.61
760.464	14.23
760.775	12.89
761.085	13.36
761.395	14.77
761.705	13.27
762.016	13.19
762.326	13.84
762.636	11.89
762.945	13.83
763.255	11.61
763.565	13.28
763.875	14.76
764.185	13.68
764.494	12.3
764.804	13.11
765.113	13.33
765.423	12.46
765.732	13.34
766.042	13.7
766.351	12.95
766.66	13.33
766.97	13.84
767.279	13.56
767.588	13.45
767.897	12.95
768.206	12.89
768.515	14.58
768.824	13.87
769.133	11.87
769.441	13.52
769.75	13.53
770.059	14.34
770.367	15.11
770.676	14.23
770.984	15.46
771.293	13.53
771.601	10.43
771.91	12.78
772.218	15.98
772.526	12.73
772.834	14
773.142	15.98
773.45	13.19
773.758	11.33
774.066	12.93
774.374	13.14
774.682	12.04
774.99	14.98
775.298	13.73
775.605	16.97
775.913	14.38
776.22	12.28
776.528	16.06
776.835	15.87
777.143	14.79
777.45	14.98
777.757	15.97
778.065	12.58
778.372	9.92
778.679	15.11
778.986	14.24
779.293	14.49
779.6	12.46
779.907	17.54
780.214	14.72
780.52	12.84
780.827	18.11
781.134	14.11
781.44	15.99
781.747	13.24
782.053	15.96
782.36	14.46
782.666	19.06
782.973	15.71
783.279	11.75
783.585	14.83
783.891	11.03
784.197	12.37
784.503	14.92
784.809	13.96
785.115	14.59
785.421	12.38
785.727	13.59
786.033	16.98
786.339	11.92
786.644	12.88
786.95	20.85
787.255	16.04
787.561	11.12
787.866	13.76
788.172	14.64
788.477	15.92
788.782	13
789.088	17.48
789.393	11.42
789.698	14.11
790.003	17.03
790.308	13.67
790.613	16.39
790.918	13.16
791.223	17.23
791.527	17.81
791.832	16.56
792.137	14.79
792.441	17.38
792.746	11.37
793.05	16.78
793.355	18.85
793.659	14.81
793.963	17.28
794.268	14.9
794.572	16.72
794.876	15.65
795.18	17.17
795.484	15.06
795.788	15.76
796.092	12.7
796.396	18.67
796.7	17.31
797.004	15.58
797.307	13.48
797.611	19.8
797.915	13.26
798.218	17.56
798.522	11.54
798.825	15.7
799.128	15.39
799.432	15.77
799.735	16.37
800.038	16.53
800.341	13.21
800.644	12.44
800.947	13.15
801.25	14.06
801.553	21.05
801.856	14.45
802.159	17.41
802.462	17.92
802.764	16.67
803.067	14.37
803.37	13
803.672	11.53
803.975	16.8
804.277	17.02
804.579	13.49
804.882	21.39
805.184	13.9
805.486	18.49
805.788	16.77
806.09	11.2
806.392	14.97
806.694	17.08
806.996	18.75
807.298	16.23
807.6	16.41
807.902	13.28
808.203	15.47
808.505	15.7
808.807	17.75
809.108	16.26
809.409	17.33
809.711	15.68
810.012	20.09
810.313	19.13
810.615	19.38
810.916	16.98
811.217	13.61
811.518	16.91
811.819	17.16
812.12	17.96
812.421	19.3
812.722	18.68
813.023	17.17
813.323	24.92
813.624	21.97
813.925	15.37
814.225	20.49
814.526	16.73
814.826	16.61
815.126	13.88
815.427	23.37
815.727	14.89
816.027	12.91
816.327	14.16
816.627	17.68
816.927	15.08
817.227	18.88
817.527	11.48
817.827	16.02
818.127	16.98
818.427	17.85
818.727	17.71
819.026	14.16
819.326	16.27
819.625	17.24
819.925	18.53
820.224	21.22
820.524	25.23
820.823	20.5
821.122	14.81
821.421	23.95
821.72	17.66
822.019	12.99
822.318	17.8
822.617	17.93
822.916	16.51
823.215	20.6
823.514	17.12
823.813	17.52
824.111	18.89
824.41	17.37
824.709	17.73
825.007	17.74
825.306	17.91
825.604	18.11
825.902	18.17
826.201	17.73
826.499	18.37
826.797	16.91
827.095	18.6
827.393	18.62
827.691	18.65
827.989	16.95
828.287	19.8
828.585	18.43
828.882	17.99
829.18	17.25
829.478	17.48
829.775	17.58
830.073	18.74
830.37	20.34
830.668	20.33
830.965	17.5
831.263	17.96
831.56	16.85
831.857	21.73
832.154	19.45
832.451	18.69
832.748	21.02
833.045	20.33
833.342	15.05
833.639	17.63
833.936	20.31
834.232	21.43
834.529	20.06
834.826	16.68
835.122	23.55
835.419	22.2
835.715	20.24
836.012	23.62
836.308	19.43
836.604	19.22
836.901	20.83
837.197	21.91
837.493	18.79
837.789	22.03
838.085	19.17
838.381	15.54
838.677	20.13
838.972	20.85
839.268	20.81
839.564	15.54
839.86	22.6
840.155	14.95
840.451	25.25
840.746	21.54
841.042	25.18
841.337	19.51
841.632	21.12
841.928	35.64
842.223	16.51
842.518	23.88
842.813	12.19
843.108	24.22
843.403	18.94
843.698	15.51
843.993	21.07
844.287	12.09
844.582	21.89
844.877	17.46
845.171	9.67
845.466	17.86
845.761	25.6
846.055	23.48
846.349	19.13
846.644	8.44
846.938	0.22
847.232	14.51
847.526	21.26
847.82	31.33
848.114	27.25
848.408	22.37
848.702	24.16
848.996	7.42
849.29	15.68
849.584	18.62
849.877	20.37
850.171	13.69
850.465	27.13
850.758	21.1
851.052	22.9
851.345	9.77
851.638	17.84
851.932	18.66
852.225	27.15
852.518	32.57
852.811	18.89
853.104	1.43
853.397	31.14
853.69	7.54
853.983	29.85
854.276	26.07
854.569	24.88
854.861	21.17
855.154	21.48
855.447	42.22
855.739	11.2
856.032	27.03
856.324	21.07
856.616	35.11
856.909	35.48
857.201	17.79
857.493	-13.65
857.785	36.58
858.077	22.17
858.369	20.89
858.661	23.02
858.953	24.6
859.245	-3.56
859.537	28.9
859.829	11.97
860.12	29.79
860.412	26.04
860.703	20.8
860.995	8.82
861.286	12.65
861.578	18.36
861.869	16.31
862.16	13.84
862.452	43.25
862.743	23.48
863.034	20.91
863.325	1.93
863.616	27.62
863.907	15.43
864.198	8.29
864.488	25.83
864.779	-4.69
865.07	30.77
865.36	9.32
865.651	15.76
865.941	27.14
866.232	13.84
866.522	51.5
866.813	18.39
867.103	25.6
867.393	21.41
867.683	37.48
867.973	10.58
868.263	4.56
868.553	13.32
868.843	17.42
869.133	18.61
869.423	39.66
869.713	12.09
870.002	20.86
870.292	37.39
870.582	19.06
870.871	34.65
871.161	4.6
871.45	31.7
871.739	29.32
872.029	24.21
872.318	31.99
872.607	37.98
872.896	22.9
873.185	23.13
873.474	18.53
873.763	8.3
874.052	16.56
874.341	33.74
874.63	15.92
874.918	32.7
875.207	17.01
875.496	30.22
875.784	29.82
876.073	19.63
876.361	30.39
876.649	25.54
876.938	36.15
877.226	21.5
877.514	-4.09
877.802	9.18
878.09	34.59
878.378	33.19
878.666	15.08
878.954	12.58
879.242	21.32
879.53	26.36
879.817	14.07
880.105	42.02
880.392	22.88
880.68	13.49
880.967	18.03
881.255	18.68
881.542	18.05
881.83	32.55
882.117	23.04
882.404	20.93
882.691	6.05
882.978	30.08
883.265	42.71
883.552	7.44
883.839	24.95
884.126	28.41
884.413	26.67
884.699	25.45
884.986	25.4
885.273	20.84
885.559	20.84
885.846	20.84
