Data from 0010_forehead_Reflection__1__328.txt Node

Date: Thu Dec 15 19:12:33 CST 2022
User: ToomeyLab
Spectrometer: FLMS14357
Trigger mode: 0
Integration Time (sec): 1.000000E-2
Scans to average: 100
Electric dark correction enabled: true
Nonlinearity correction enabled: false
Boxcar width: 0
XAxis mode: Wavelengths
Number of Pixels in Spectrum: 2048
>>>>>Begin Spectral Data<<<<<
189.047	-78.6
189.435	-78.6
189.823	-78.6
190.211	122.13
190.599	61.62
190.987	38.98
191.375	-108.82
191.763	374.68
192.151	-98.23
192.538	21.29
192.926	112.72
193.314	188.69
193.702	132.11
194.089	75.25
194.477	348.43
194.864	85.31
195.252	127.36
195.639	110.37
196.027	-302.85
196.414	49.81
196.801	-51.79
197.189	218.82
197.576	-362.73
197.963	137.99
198.351	-14.92
198.738	-133.24
199.125	-110.96
199.512	56.38
199.899	9.86
200.286	-28.94
200.673	89.12
201.06	-54.99
201.447	15.41
201.833	-6.59
202.22	113.58
202.607	-63.06
202.994	30.22
203.38	34.68
203.767	-0.33
204.154	53.03
204.54	40.24
204.927	39.34
205.313	25.65
205.699	18.93
206.086	44.65
206.472	18.59
206.858	-18.42
207.245	-8.72
207.631	5.8
208.017	80.26
208.403	-2.83
208.789	2.8
209.175	22.93
209.561	-67.13
209.947	-47.31
210.333	36.65
210.719	39.73
211.105	27.67
211.491	-6.25
211.876	-94.63
212.262	23.53
212.648	35.9
213.034	25.29
213.419	8.9
213.805	-8.35
214.19	-19.8
214.576	-34.47
214.961	16.35
215.346	-31.96
215.732	2.61
216.117	31.96
216.502	-22.83
216.888	22.37
217.273	10.69
217.658	23.55
218.043	-16.15
218.428	-25.08
218.813	13.59
219.198	5.09
219.583	14.68
219.968	0.88
220.353	7.77
220.738	-1.78
221.122	-19.59
221.507	-12.48
221.892	-12.1
222.276	-25.2
222.661	-4.61
223.046	-14.48
223.43	14.28
223.815	10.77
224.199	-2.63
224.583	-2.07
224.968	0.3
225.352	-10.48
225.736	11.61
226.121	3.38
226.505	-2.03
226.889	1.02
227.273	3.7
227.657	7.14
228.041	3.66
228.425	5.34
228.809	3.71
229.193	4.38
229.577	4.13
229.961	3.14
230.344	4.51
230.728	5.27
231.112	4.89
231.495	2.17
231.879	3.25
232.263	5.86
232.646	1.72
233.03	5.01
233.413	2.96
233.797	3.11
234.18	2.89
234.563	5.23
234.946	3.02
235.33	2.51
235.713	4.32
236.096	6.49
236.479	5.65
236.862	4.98
237.245	5.29
237.628	6.68
238.011	4.18
238.394	3.21
238.777	5.82
239.16	5.92
239.543	5.15
239.925	5.28
240.308	3.4
240.691	5.26
241.073	4.54
241.456	4.79
241.838	4.39
242.221	4.19
242.603	4.2
242.986	4.68
243.368	4.57
243.75	4.85
244.133	5.13
244.515	5.1
244.897	4.81
245.279	4.54
245.661	4.31
246.043	4.72
246.425	5.09
246.807	4.2
247.189	4.69
247.571	4.59
247.953	4.28
248.335	4.69
248.717	4.81
249.098	4.69
249.48	4.69
249.862	4.62
250.243	4.6
250.625	4.74
251.006	5.76
251.388	5.14
251.769	3.35
252.151	5.24
252.532	3.54
252.913	5.03
253.295	4.32
253.676	4.57
254.057	4.57
254.438	4.56
254.819	4.26
255.2	5.59
255.581	5.17
255.962	5.79
256.343	5.51
256.724	4.82
257.105	4.45
257.486	2.94
257.867	4.78
258.247	4.63
258.628	4.2
259.009	4.94
259.389	4.11
259.77	4.58
260.15	5.28
260.531	4.43
260.911	4.64
261.292	4.66
261.672	4.54
262.052	4.5
262.432	4.46
262.813	4.5
263.193	4.98
263.573	4.76
263.953	4.12
264.333	4.54
264.713	4.97
265.093	4.62
265.473	4.27
265.853	4.82
266.233	4.84
266.612	3.99
266.992	3.15
267.372	4.46
267.752	4.65
268.131	4.59
268.511	4.7
268.89	4.83
269.27	3.97
269.649	3.95
270.029	4.36
270.408	4.17
270.787	4.82
271.167	4.88
271.546	5.08
271.925	4.56
272.304	4.28
272.683	4.25
273.062	4.27
273.441	4.09
273.82	4.64
274.199	4.53
274.578	4.85
274.957	4.26
275.336	4.64
275.715	4.55
276.093	4.29
276.472	3.69
276.851	4.2
277.229	4.71
277.608	3.77
277.986	4.08
278.365	4.69
278.743	4.52
279.122	3.87
279.5	4.31
279.878	4.19
280.257	4.19
280.635	4.18
281.013	4.11
281.391	4.07
281.769	4.43
282.147	4.51
282.525	3.96
282.903	4.06
283.281	4.72
283.659	4.34
284.037	4.23
284.415	4.26
284.792	4.5
285.17	4.15
285.548	4.52
285.925	4.69
286.303	5
286.68	4.32
287.058	4.57
287.435	4.25
287.813	4.47
288.19	3.9
288.567	4.39
288.945	4.05
289.322	4.7
289.699	4.85
290.076	4.45
290.453	4.67
290.83	4.71
291.207	5.24
291.584	4.56
291.961	4.76
292.338	4.43
292.715	4.33
293.092	4.63
293.469	4.68
293.845	4.71
294.222	5.64
294.599	4.51
294.975	4.37
295.352	4.72
295.728	4.72
296.105	5.12
296.481	5.12
296.858	5.14
297.234	4.48
297.61	4.82
297.986	5.4
298.363	5.18
298.739	5.31
299.115	5.28
299.491	5.6
299.867	4.71
300.243	5.11
300.619	4.95
300.995	5.47
301.371	5.61
301.746	5.72
302.122	5.16
302.498	5.38
302.874	5.4
303.249	5.86
303.625	5.35
304	5.58
304.376	6.27
304.751	6.02
305.127	6.11
305.502	5.89
305.878	6.36
306.253	5.65
306.628	6.02
307.003	6.32
307.378	6.01
307.754	6.58
308.129	6.03
308.504	6.58
308.879	6.51
309.254	6.72
309.629	6.84
310.003	6.5
310.378	6.78
310.753	6.92
311.128	6.41
311.502	6.32
311.877	6.31
312.252	6.86
312.626	7.19
313.001	6.97
313.375	6.74
313.75	7.4
314.124	7.38
314.498	7.72
314.873	6.61
315.247	6.74
315.621	7.03
315.995	7.42
316.369	7.09
316.743	7.15
317.117	7.38
317.491	6.94
317.865	7.21
318.239	7.83
318.613	7.62
318.987	6.98
319.361	8.19
319.734	7.85
320.108	7.56
320.482	8.23
320.855	8.22
321.229	8.84
321.602	8.27
321.976	7.85
322.349	8.58
322.723	8.24
323.096	8.43
323.469	7.92
323.843	8.46
324.216	8.37
324.589	8.94
324.962	8.45
325.335	8.99
325.708	8.82
326.081	8.97
326.454	8.87
326.827	8.84
327.2	9
327.573	9.35
327.945	9.15
328.318	8.72
328.691	9.12
329.063	8.99
329.436	8.9
329.809	9.56
330.181	10.13
330.553	9.35
330.926	9.51
331.298	9.71
331.671	9.98
332.043	9.53
332.415	9.63
332.787	9.39
333.159	9.75
333.532	9.89
333.904	9.85
334.276	10.14
334.648	9.69
335.02	9.51
335.391	9.49
335.763	10.31
336.135	10.64
336.507	10.49
336.879	10.05
337.25	10.69
337.622	10.32
337.993	10.07
338.365	10.34
338.736	10.75
339.108	10.73
339.479	10.66
339.851	10.78
340.222	10.99
340.593	10.61
340.964	11.13
341.336	10.65
341.707	11.19
342.078	10.88
342.449	11.16
342.82	10.93
343.191	11.23
343.562	11.13
343.933	11.01
344.303	11.49
344.674	11.52
345.045	11.1
345.416	11.47
345.786	11.5
346.157	11.44
346.527	11.76
346.898	11.32
347.268	11.93
347.639	11.56
348.009	11.66
348.38	11.71
348.75	11.67
349.12	12.07
349.49	11.95
349.861	12.22
350.231	12.37
350.601	11.84
350.971	11.94
351.341	12.17
351.711	12.16
352.081	12.05
352.45	11.72
352.82	11.85
353.19	12.09
353.56	12.67
353.929	12.47
354.299	12.53
354.669	12.79
355.038	12.91
355.408	12.64
355.777	12.87
356.147	12.8
356.516	12.68
356.885	13.21
357.254	12.85
357.624	12.62
357.993	13.26
358.362	12.92
358.731	13.2
359.1	13.15
359.469	13.12
359.838	13.24
360.207	13.23
360.576	13.55
360.945	13.65
361.314	13.33
361.682	13.24
362.051	13.61
362.42	13.8
362.788	13.67
363.157	13.33
363.525	13.74
363.894	13.65
364.262	13.84
364.631	14.26
364.999	14.06
365.367	13.97
365.735	14.24
366.104	14.1
366.472	14.31
366.84	14.3
367.208	14.77
367.576	14.16
367.944	14.54
368.312	14.53
368.68	14.54
369.048	14.59
369.416	14.41
369.783	14.56
370.151	14.98
370.519	15.06
370.886	15.19
371.254	15.13
371.621	15.18
371.989	15.06
372.356	15.3
372.724	14.84
373.091	15.01
373.458	15.38
373.826	15.74
374.193	15.55
374.56	15.66
374.927	15.37
375.294	16.38
375.661	15.98
376.028	16
376.395	15.77
376.762	15.52
377.129	15.61
377.496	15.54
377.863	16.1
378.229	16.12
378.596	16.2
378.963	15.98
379.329	15.87
379.696	15.7
380.062	16.09
380.429	15.92
380.795	16.31
381.161	16.01
381.528	16.3
381.894	16.46
382.26	16.42
382.626	16.72
382.993	16.68
383.359	16.69
383.725	16.7
384.091	16.76
384.457	16.56
384.823	16.79
385.188	17.02
385.554	17.05
385.92	17.04
386.286	17.16
386.651	17.06
387.017	17.34
387.383	17.34
387.748	17.46
388.114	17.45
388.479	17.53
388.845	17.37
389.21	17.8
389.575	17.68
389.94	17.97
390.306	18.2
390.671	17.69
391.036	17.63
391.401	17.9
391.766	18.13
392.131	18.08
392.496	18.31
392.861	17.98
393.226	17.75
393.591	18.32
393.956	18.26
394.32	18.46
394.685	18.26
395.05	18.31
395.414	18.52
395.779	18.59
396.143	18.54
396.508	18.68
396.872	18.88
397.236	18.87
397.601	18.91
397.965	18.87
398.329	18.91
398.694	19.14
399.058	19
399.422	19.27
399.786	19.05
400.15	18.99
400.514	19.17
400.878	19.44
401.242	19.42
401.605	19.47
401.969	19.53
402.333	19.32
402.697	19.82
403.06	19.65
403.424	19.87
403.787	19.68
404.151	19.66
404.514	19.89
404.878	19.93
405.241	19.71
405.604	19.8
405.968	19.97
406.331	19.96
406.694	20.15
407.057	19.96
407.42	20.21
407.783	20.41
408.146	20.23
408.509	20.33
408.872	20.37
409.235	20.59
409.598	20.53
409.961	20.91
410.323	20.28
410.686	20.73
411.049	20.7
411.411	20.66
411.774	20.95
412.136	20.92
412.499	20.86
412.861	20.59
413.223	20.94
413.586	21.19
413.948	21.23
414.31	21.11
414.672	21.18
415.035	21.69
415.397	21.44
415.759	21.06
416.121	21.63
416.483	21.39
416.845	21.6
417.206	21.55
417.568	21.44
417.93	21.49
418.292	21.47
418.653	21.68
419.015	21.69
419.377	21.41
419.738	21.82
420.1	21.6
420.461	21.58
420.822	21.73
421.184	21.64
421.545	21.77
421.906	21.69
422.267	21.72
422.629	21.54
422.99	21.61
423.351	21.77
423.712	21.83
424.073	21.96
424.434	22.06
424.795	22.05
425.155	22.05
425.516	22.02
425.877	22.11
426.238	22.29
426.598	22.31
426.959	22.33
427.32	22.57
427.68	22.56
428.041	22.69
428.401	22.59
428.761	22.95
429.122	23.05
429.482	23.12
429.842	23.19
430.202	23.27
430.563	23.35
430.923	23.23
431.283	23.42
431.643	23.53
432.003	23.48
432.363	23.45
432.722	23.39
433.082	23.54
433.442	23.6
433.802	23.66
434.161	23.66
434.521	23.67
434.881	23.56
435.24	23.74
435.6	23.88
435.959	23.92
436.319	23.97
436.678	24.07
437.037	23.98
437.396	24.1
437.756	24.14
438.115	24.23
438.474	24.32
438.833	24.32
439.192	24.28
439.551	24.31
439.91	24.45
440.269	24.42
440.628	24.48
440.987	24.54
441.345	24.56
441.704	24.44
442.063	24.39
442.421	24.58
442.78	24.62
443.138	24.73
443.497	24.64
443.855	24.87
444.214	24.75
444.572	24.97
444.93	24.97
445.288	25.1
445.647	25.25
446.005	25.2
446.363	25.33
446.721	25.12
447.079	25.01
447.437	25.05
447.795	25.09
448.153	25.1
448.51	25.15
448.868	25.26
449.226	25.24
449.584	25.37
449.941	25.48
450.299	25.59
450.656	25.79
451.014	25.86
451.371	25.95
451.729	25.99
452.086	26.14
452.443	26.35
452.801	26.26
453.158	26.38
453.515	26.06
453.872	26.29
454.229	26.14
454.586	26.31
454.943	26.47
455.3	26.51
455.657	26.57
456.014	26.6
456.371	26.69
456.727	27.05
457.084	27.01
457.441	27.01
457.797	27.02
458.154	27
458.51	26.98
458.867	27.02
459.223	26.97
459.58	27.21
459.936	27.07
460.292	26.98
460.648	27.01
461.005	27.02
461.361	26.94
461.717	26.9
462.073	26.94
462.429	27.13
462.785	27.39
463.141	27.18
463.496	27.3
463.852	27.81
464.208	27.81
464.564	27.77
464.919	27.99
465.275	28.02
465.631	28.11
465.986	28.31
466.342	27.79
466.697	28.26
467.052	28.4
467.408	28.36
467.763	28.43
468.118	28.32
468.473	28.59
468.829	28.46
469.184	28.66
469.539	28.64
469.894	28.69
470.249	28.77
470.603	28.92
470.958	29.22
471.313	28.93
471.668	28.83
472.023	28.99
472.377	29
472.732	29.24
473.086	29.35
473.441	29.25
473.795	29.41
474.15	29.13
474.504	29.45
474.859	29.04
475.213	29.32
475.567	29.44
475.921	29.56
476.275	29.86
476.63	29.59
476.984	29.74
477.338	29.8
477.692	29.61
478.045	29.68
478.399	29.77
478.753	29.99
479.107	29.73
479.461	29.86
479.814	29.81
480.168	29.9
480.521	29.97
480.875	30.18
481.228	30.35
481.582	30.24
481.935	30.23
482.289	30.28
482.642	30.28
482.995	30.12
483.348	30.21
483.701	30.06
484.055	30.16
484.408	29.77
484.761	29.59
485.114	29.35
485.466	29.43
485.819	29.59
486.172	29.62
486.525	29.64
486.878	29.82
487.23	30.01
487.583	30.2
487.936	30.23
488.288	30.18
488.641	30.06
488.993	29.96
489.345	30.05
489.698	30.13
490.05	30.15
490.402	30.37
490.754	30.52
491.107	30.76
491.459	30.87
491.811	30.99
492.163	31.02
492.515	30.77
492.866	30.68
493.218	30.75
493.57	30.84
493.922	30.81
494.274	31.07
494.625	31.26
494.977	31.43
495.328	31.78
495.68	32.06
496.031	32.2
496.383	32.21
496.734	32.32
497.086	32.37
497.437	32.37
497.788	32.46
498.139	32.09
498.49	32.34
498.842	32.27
499.193	32.3
499.544	32.44
499.894	32.49
500.245	32.72
500.596	32.61
500.947	32.72
501.298	32.82
501.648	33.01
501.999	33.07
502.35	33.15
502.7	33.19
503.051	33.31
503.401	33.38
503.752	33.24
504.102	33.46
504.452	33.36
504.803	33.68
505.153	33.67
505.503	33.41
505.853	33.37
506.203	33.66
506.553	33.63
506.903	33.74
507.253	33.81
507.603	33.99
507.953	34.03
508.303	33.84
508.652	33.95
509.002	34.08
509.352	33.98
509.701	34.05
510.051	34.15
510.4	34.2
510.75	33.94
511.099	34.01
511.449	34.09
511.798	34.28
512.147	34.28
512.496	34.4
512.846	34.47
513.195	34.48
513.544	34.58
513.893	34.69
514.242	34.66
514.591	34.54
514.939	34.82
515.288	34.88
515.637	34.92
515.986	35.13
516.334	35.15
516.683	35.15
517.032	35.13
517.38	35.22
517.729	35.21
518.077	35.38
518.426	35.31
518.774	35.36
519.122	35.35
519.47	35.12
519.819	35.08
520.167	34.92
520.515	35.03
520.863	34.99
521.211	35.35
521.559	35.35
521.907	35.49
522.255	35.55
522.602	35.9
522.95	35.92
523.298	36.09
523.645	35.99
523.993	36
524.341	36.15
524.688	36.13
525.036	36.36
525.383	36.19
525.73	36.23
526.078	36.25
526.425	36.13
526.772	35.78
527.119	36
527.466	35.93
527.814	35.99
528.161	35.98
528.508	36.07
528.854	36.05
529.201	36
529.548	35.88
529.895	35.78
530.242	35.9
530.588	35.87
530.935	35.95
531.282	35.95
531.628	36.04
531.975	36.18
532.321	36.36
532.667	36.61
533.014	36.75
533.36	36.89
533.706	36.93
534.052	36.91
534.399	36.61
534.745	36.63
535.091	36.74
535.437	36.71
535.783	36.88
536.129	37.26
536.474	37.13
536.82	37.38
537.166	37.43
537.512	37.45
537.857	37.43
538.203	37.47
538.549	37.51
538.894	37.59
539.239	37.67
539.585	37.89
539.93	38.02
540.276	38.22
540.621	38.41
540.966	38.35
541.311	38.37
541.656	38.24
542.001	38.01
542.346	38
542.691	37.77
543.036	37.65
543.381	37.85
543.726	37.86
544.071	37.96
544.415	38.02
544.76	38.27
545.105	38.35
545.449	38.37
545.794	38.56
546.138	38.71
546.483	39.11
546.827	38.96
547.171	39.14
547.516	39.16
547.86	39.17
548.204	39.12
548.548	39.14
548.892	39.12
549.236	39.2
549.58	39.35
549.924	39.73
550.268	39.83
550.612	39.96
550.956	40.16
551.3	40.15
551.643	40.18
551.987	40.42
552.33	40.61
552.674	40.51
553.017	40.27
553.361	40.53
553.704	40.61
554.048	40.48
554.391	40.34
554.734	40.49
555.077	40.55
555.42	40.54
555.764	40.7
556.107	40.71
556.45	40.84
556.793	40.98
557.135	41.02
557.478	41.08
557.821	41.25
558.164	41.34
558.507	41.28
558.849	41.22
559.192	41.33
559.534	41.23
559.877	41.47
560.219	41.5
560.562	41.55
560.904	41.61
561.246	41.22
561.589	41.78
561.931	41.71
562.273	41.69
562.615	41.75
562.957	41.59
563.299	41.75
563.641	41.7
563.983	41.77
564.325	41.92
564.667	42.25
565.008	41.83
565.35	41.79
565.692	41.94
566.033	42.3
566.375	42.12
566.716	42.1
567.058	42.07
567.399	42.22
567.741	42.08
568.082	42.3
568.423	42.47
568.764	42.26
569.105	42.44
569.447	42.34
569.788	42.52
570.129	42.54
570.47	42.73
570.811	42.74
571.151	42.76
571.492	42.74
571.833	42.9
572.174	43.09
572.514	43.03
572.855	43.11
573.195	43.02
573.536	43
573.876	42.7
574.217	43.04
574.557	42.95
574.898	43.2
575.238	43.41
575.578	43.14
575.918	43.47
576.258	43.43
576.598	43.51
576.938	43.31
577.278	43.49
577.618	43.39
577.958	43.62
578.298	43.59
578.638	43.67
578.977	43.77
579.317	43.78
579.657	43.76
579.996	44.16
580.336	44.38
580.675	44.09
581.014	44.29
581.354	44.23
581.693	44.39
582.032	44.46
582.372	44.94
582.711	44.66
583.05	44.78
583.389	44.39
583.728	44.89
584.067	44.78
584.406	44.63
584.745	44.82
585.083	44.94
585.422	45.14
585.761	45.33
586.1	44.99
586.438	45.24
586.777	45.11
587.115	45.34
587.454	45.08
587.792	45.24
588.13	45.16
588.469	45.04
588.807	45.47
589.145	45.4
589.483	45.47
589.821	45.59
590.159	45.5
590.497	45.44
590.835	45.41
591.173	45.36
591.511	45.71
591.849	45.64
592.187	45.52
592.524	45.21
592.862	45.51
593.2	45.99
593.537	45.9
593.875	45.95
594.212	45.73
594.55	46.07
594.887	46.17
595.224	46.13
595.561	46.09
595.899	46.04
596.236	46.09
596.573	46.46
596.91	46.41
597.247	46.04
597.584	46.42
597.921	45.9
598.258	45.99
598.594	46.16
598.931	46.17
599.268	46.03
599.604	46.2
599.941	46.4
600.277	46.61
600.614	46.55
600.95	46.58
601.287	46.48
601.623	46.68
601.959	47.22
602.296	47.27
602.632	46.77
602.968	46.81
603.304	46.63
603.64	47.13
603.976	46.94
604.312	47.18
604.648	47.29
604.984	47
605.319	47.15
605.655	47.06
605.991	46.9
606.326	47.13
606.662	46.96
606.998	46.73
607.333	47.18
607.668	47.33
608.004	47.6
608.339	47.23
608.674	47.51
609.01	47.71
609.345	47.56
609.68	47.69
610.015	47.78
610.35	48.17
610.685	47.62
611.02	47.62
611.355	47.68
611.689	47.79
612.024	47.83
612.359	47.56
612.694	48.12
613.028	48.07
613.363	47.93
613.697	48.13
614.032	48.26
614.366	48.32
614.7	48.49
615.035	48.43
615.369	48.38
615.703	49.21
616.037	49.34
616.371	48.65
616.705	49.03
617.039	48.9
617.373	48.79
617.707	48.83
618.041	48.9
618.375	48.63
618.709	49.06
619.042	49.49
619.376	48.7
619.71	48.96
620.043	49.08
620.377	49.1
620.71	49.28
621.043	49.11
621.377	49.62
621.71	49.34
622.043	49.33
622.376	49.27
622.709	49.87
623.043	49.61
623.376	49.65
623.709	49.67
624.041	49.99
624.374	49.46
624.707	49.93
625.04	49.88
625.373	49.7
625.705	50.32
626.038	49.66
626.37	49.77
626.703	50.24
627.035	49.82
627.368	49.93
627.7	50.02
628.032	50.21
628.365	49.94
628.697	50.05
629.029	50.07
629.361	50.11
629.693	50.5
630.025	49.9
630.357	50.16
630.689	50.05
631.021	50.56
631.353	50.84
631.684	50.4
632.016	49.86
632.348	50.53
632.679	50.5
633.011	51.11
633.342	50.91
633.674	50.11
634.005	50.65
634.336	50.3
634.668	50.4
634.999	50.84
635.33	51
635.661	50.94
635.992	51.34
636.323	50.83
636.654	50.97
636.985	50.75
637.316	50.64
637.647	50.93
637.977	51.23
638.308	51.28
638.639	51.3
638.969	51.1
639.3	51.71
639.63	51.17
639.961	51.57
640.291	51.7
640.622	51.82
640.952	51.88
641.282	51.21
641.612	51.54
641.943	51.01
642.273	51.4
642.603	51.6
642.933	51.77
643.263	52.05
643.592	51.69
643.922	51.63
644.252	51.47
644.582	51.97
644.911	51.83
645.241	51.94
645.571	51.84
645.9	51.9
646.23	51.88
646.559	51.96
646.888	52.74
647.218	52.63
647.547	52.24
647.876	52.59
648.205	52.41
648.534	52.27
648.863	52.45
649.192	52.56
649.521	52.44
649.85	52.38
650.179	52.27
650.508	52.02
650.837	52.37
651.165	52.62
651.494	52.63
651.822	52.85
652.151	52.23
652.479	52.52
652.808	52.56
653.136	53.07
653.465	52.49
653.793	52.44
654.121	52.53
654.449	52.78
654.777	52.75
655.105	52.82
655.433	53.11
655.761	52.63
656.089	53.23
656.417	53.84
656.745	53.71
657.073	53.13
657.4	52.74
657.728	53.06
658.056	53.2
658.383	53.17
658.711	52.95
659.038	53.63
659.365	52.65
659.693	53.76
660.02	52.93
660.347	53.51
660.674	53.41
661.001	53.27
661.329	53.1
661.656	53.58
661.982	53.18
662.309	53.42
662.636	53.65
662.963	53.2
663.29	53.35
663.616	53.84
663.943	53.71
664.27	54.22
664.596	53.84
664.923	53.91
665.249	54.54
665.576	53.65
665.902	53.82
666.228	53.92
666.554	54.25
666.881	53.53
667.207	53.97
667.533	54.45
667.859	53.73
668.185	54.23
668.511	53.88
668.837	53.98
669.162	54.28
669.488	53.78
669.814	54.31
670.139	54.55
670.465	54.98
670.791	54.41
671.116	54.03
671.442	54.49
671.767	54.47
672.092	54.41
672.418	54.7
672.743	54.35
673.068	54.17
673.393	54.56
673.718	53.94
674.043	54.49
674.368	54.6
674.693	54.37
675.018	55.88
675.343	55.33
675.667	54.98
675.992	55.05
676.317	54.17
676.641	55.28
676.966	54.73
677.29	54.15
677.615	53.88
677.939	54.94
678.264	54.94
678.588	54.67
678.912	55.34
679.236	54.9
679.56	55.3
679.885	55.39
680.209	55.79
680.532	55.06
680.856	55.29
681.18	56.22
681.504	54.98
681.828	54.19
682.152	55.61
682.475	54.88
682.799	54.93
683.122	54.35
683.446	55.93
683.769	56.03
684.093	55.63
684.416	55.02
684.739	55.43
685.062	56.27
685.386	55.11
685.709	55.58
686.032	56.04
686.355	56.12
686.678	55.89
687.001	55.42
687.324	55.87
687.646	56.43
687.969	56.42
688.292	56.15
688.614	56.23
688.937	56.31
689.26	56.3
689.582	56.16
689.904	55.94
690.227	56.4
690.549	55.78
690.871	56.58
691.194	56.07
691.516	55.94
691.838	56.01
692.16	55.86
692.482	56.19
692.804	56.79
693.126	55.7
693.448	56.23
693.769	56.25
694.091	56.29
694.413	57
694.735	56.31
695.056	56.36
695.378	56.11
695.699	56.79
696.021	55.35
696.342	56.36
696.663	56.55
696.984	56
697.306	56.74
697.627	57.61
697.948	57.57
698.269	57.02
698.59	55.69
698.911	56.75
699.232	56.95
699.553	56.75
699.873	56.79
700.194	57.26
700.515	56.8
700.835	56.67
701.156	57.28
701.477	56.85
701.797	56.76
702.117	56.86
702.438	56.73
702.758	57.55
703.078	56.61
703.398	57.44
703.719	56.66
704.039	57.56
704.359	57.88
704.679	56.71
704.999	57.45
705.319	57.14
705.638	57.08
705.958	57.2
706.278	57.15
706.597	57.71
706.917	57.17
707.237	56.8
707.556	57.41
707.876	57.43
708.195	57.28
708.514	57.56
708.834	59
709.153	57.18
709.472	58.17
709.791	57.75
710.11	57.26
710.429	57.93
710.748	58.28
711.067	57.47
711.386	57.92
711.705	58.04
712.023	58.49
712.342	57.7
712.661	58.6
712.979	58.19
713.298	58.93
713.616	57.87
713.935	58.41
714.253	58.38
714.572	56.94
714.89	58.05
715.208	59.08
715.526	57.91
715.844	57.52
716.162	58.31
716.48	57.28
716.798	57.3
717.116	58.47
717.434	58.08
717.752	58.65
718.069	59.07
718.387	58.15
718.705	58.5
719.022	58.85
719.34	57.11
719.657	58.72
719.975	57.61
720.292	57.23
720.609	57.05
720.927	59.1
721.244	58.58
721.561	56.94
721.878	57.95
722.195	59.49
722.512	57.42
722.829	57.59
723.146	59.01
723.463	58.73
723.779	58.97
724.096	58.19
724.413	59.63
724.729	59.73
725.046	57.69
725.362	58.13
725.679	58.58
725.995	57.79
726.311	59.82
726.628	59.56
726.944	59.44
727.26	58.27
727.576	59.64
727.892	58.6
728.208	58.1
728.524	59.12
728.84	58.77
729.156	58.94
729.472	58.29
729.787	59.98
730.103	58.68
730.419	59.28
730.734	59.29
731.05	59.27
731.365	60.02
731.681	59.26
731.996	60.02
732.311	58.13
732.626	59.12
732.942	59.69
733.257	60.34
733.572	59.79
733.887	59.52
734.202	59.56
734.517	59.9
734.832	59.14
735.146	60.21
735.461	59.92
735.776	59.72
736.091	58.86
736.405	58.24
736.72	58.03
737.034	59.44
737.349	59.77
737.663	58.98
737.977	61.73
738.292	57.69
738.606	59.54
738.92	59.81
739.234	58.82
739.548	59.24
739.862	58.13
740.176	59.04
740.49	60.16
740.804	58.68
741.117	58.82
741.431	60.7
741.745	60.42
742.058	58.33
742.372	59.59
742.685	59.85
742.999	59.14
743.312	59.49
743.626	61.33
743.939	57.81
744.252	61.14
744.565	60.83
744.878	59.29
745.191	60.06
745.505	58.16
745.817	60.34
746.13	60.74
746.443	58.29
746.756	59
747.069	60.71
747.381	59.54
747.694	59.72
748.007	59.66
748.319	61.13
748.632	61.04
748.944	59.32
749.256	58.44
749.569	58.97
749.881	59.88
750.193	60
750.505	59.94
750.817	58.9
751.129	60
751.441	60.48
751.753	61.41
752.065	59.79
752.377	59.56
752.689	60.07
753	60.01
753.312	59.75
753.624	59.23
753.935	59.46
754.247	61.52
754.558	60.43
754.869	62.15
755.181	61.12
755.492	59.36
755.803	62.09
756.114	59.46
756.425	60.44
756.736	61.82
757.047	60.52
757.358	60.12
757.669	59.91
757.98	58.24
758.291	60.37
758.601	60.28
758.912	58.97
759.223	60.46
759.533	60.74
759.844	60.6
760.154	61.27
760.464	60.94
760.775	60.98
761.085	58.57
761.395	61.11
761.705	61.04
762.016	62.23
762.326	62.74
762.636	61.57
762.945	62.23
763.255	60.61
763.565	62.79
763.875	61.43
764.185	61.67
764.494	60.49
764.804	61.42
765.113	61.56
765.423	61.43
765.732	62.06
766.042	60.48
766.351	63.12
766.66	60.53
766.97	60.75
767.279	61.83
767.588	60.7
767.897	59.17
768.206	61.65
768.515	60.38
768.824	60.76
769.133	59.04
769.441	59.66
769.75	58.5
770.059	61.44
770.367	59.45
770.676	58.29
770.984	59.46
771.293	61.42
771.601	58.42
771.91	59.81
772.218	60.15
772.526	60.85
772.834	60.31
773.142	63.33
773.45	60
773.758	64.61
774.066	59.43
774.374	61.98
774.682	58.55
774.99	60.35
775.298	60.4
775.605	58.77
775.913	56.8
776.22	59.16
776.528	62.16
776.835	60.55
777.143	59.79
777.45	61.25
777.757	62.52
778.065	60
778.372	61.72
778.679	62.03
778.986	65.45
779.293	59.25
779.6	60.04
779.907	61.36
780.214	60.88
780.52	62.59
780.827	64.44
781.134	59.05
781.44	61.13
781.747	61.8
782.053	62.61
782.36	65.63
782.666	62.18
782.973	60.81
783.279	62.64
783.585	60.78
783.891	62.07
784.197	57.39
784.503	57.71
784.809	63.82
785.115	63.37
785.421	60.33
785.727	61.59
786.033	61.46
786.339	63.55
786.644	62.35
786.95	61.62
787.255	58.18
787.561	62.99
787.866	59.85
788.172	60.3
788.477	59.51
788.782	63.42
789.088	62.71
789.393	59.64
789.698	62.42
790.003	59.11
790.308	59.96
790.613	57.7
790.918	60.86
791.223	61.17
791.527	61.71
791.832	60.65
792.137	60.17
792.441	61.07
792.746	64.21
793.05	63.42
793.355	58.51
793.659	58.1
793.963	62.82
794.268	59.6
794.572	60.79
794.876	59.09
795.18	64.81
795.484	61.48
795.788	61
796.092	62.59
796.396	58.11
796.7	59.12
797.004	59.3
797.307	60.63
797.611	58.59
797.915	57.34
798.218	61.49
798.522	59.65
798.825	63.15
799.128	66.26
799.432	58.98
799.735	59.27
800.038	58.26
800.341	62.7
800.644	63.46
800.947	65.61
801.25	65.18
801.553	62.87
801.856	63.68
802.159	65.58
802.462	64.27
802.764	58.37
803.067	59.2
803.37	64.89
803.672	61.92
803.975	62.53
804.277	59.11
804.579	61.75
804.882	64.48
805.184	60.36
805.486	60.84
805.788	63.97
806.09	63.62
806.392	58.59
806.694	61.62
806.996	62.78
807.298	61.18
807.6	64.05
807.902	55.2
808.203	65.42
808.505	56.1
808.807	60.75
809.108	65.84
809.409	61.06
809.711	59.48
810.012	57.81
810.313	59.44
810.615	59.74
810.916	60.33
811.217	55.51
811.518	61.82
811.819	60.93
812.12	61.08
812.421	59.67
812.722	60.37
813.023	63.6
813.323	56.25
813.624	63.83
813.925	56.47
814.225	61.48
814.526	52.54
814.826	63.96
815.126	59.07
815.427	59.64
815.727	66.54
816.027	70.36
816.327	65.81
816.627	65.37
816.927	65.91
817.227	57.26
817.527	64.01
817.827	60.94
818.127	67.34
818.427	56.53
818.727	54.54
819.026	65.51
819.326	64.97
819.625	66.19
819.925	62.97
820.224	64.59
820.524	53.56
820.823	60.74
821.122	58.34
821.421	63.05
821.72	61.29
822.019	61.85
822.318	62.94
822.617	64.74
822.916	61.57
823.215	59.69
823.514	63.69
823.813	63.78
824.111	63.95
824.41	65.25
824.709	64.82
825.007	65.02
825.306	64.15
825.604	63.74
825.902	64.47
826.201	64.25
826.499	64.09
826.797	62.78
827.095	63.59
827.393	63.73
827.691	63.06
827.989	62.23
828.287	61.88
828.585	60.25
828.882	62.59
829.18	64.77
829.478	64.36
829.775	62.21
830.073	64.89
830.37	66.35
830.668	61.13
830.965	62.41
831.263	64.15
831.56	60.04
831.857	67.7
832.154	61.5
832.451	61.29
832.748	64.21
833.045	57.97
833.342	59.38
833.639	61.18
833.936	67.25
834.232	60.94
834.529	63.92
834.826	74.38
835.122	64.09
835.419	63.96
835.715	60.37
836.012	61.32
836.308	67.13
836.604	65.03
836.901	62.57
837.197	63.63
837.493	66.23
837.789	64.43
838.085	61
838.381	62.49
838.677	63.14
838.972	55.66
839.268	59.34
839.564	61.5
839.86	57.58
840.155	58.95
840.451	63.5
840.746	57.74
841.042	52.61
841.337	53.36
841.632	57.12
841.928	49.77
842.223	56.66
842.518	54.86
842.813	57.63
843.108	59.01
843.403	64.9
843.698	63.04
843.993	68.32
844.287	66.07
844.582	59.61
844.877	58.7
845.171	55.87
845.466	51.24
845.761	58.09
846.055	52.75
846.349	57.15
846.644	46.73
846.938	69.96
847.232	63.18
847.526	55.93
847.82	53.94
848.114	65.69
848.408	56.58
848.702	60.21
848.996	46.57
849.29	60.77
849.584	54.78
849.877	53.7
850.171	81.96
850.465	71.92
850.758	48.65
851.052	49.18
851.345	59.2
851.638	63.73
851.932	40.72
852.225	60.29
852.518	83.93
852.811	45.59
853.104	60.36
853.397	59.82
853.69	41.94
853.983	38.51
854.276	56.21
854.569	42.33
854.861	49.67
855.154	60.81
855.447	53.49
855.739	46.61
856.032	86.21
856.324	42.4
856.616	52.22
856.909	42.49
857.201	40.65
857.493	44.44
857.785	51.55
858.077	55.57
858.369	52
858.661	53.12
858.953	79.21
859.245	49.69
859.537	63.23
859.829	64.22
860.12	34.55
860.412	61.1
860.703	48.14
860.995	51.51
861.286	36.77
861.578	45.52
861.869	74.56
862.16	42.78
862.452	55.12
862.743	49.29
863.034	46.17
863.325	55.8
863.616	63.22
863.907	51.83
864.198	55.75
864.488	35.59
864.779	60.93
865.07	76.56
865.36	72.27
865.651	64.58
865.941	44.76
866.232	60.22
866.522	38.14
866.813	70.3
867.103	69.01
867.393	59.17
867.683	34.19
867.973	48.23
868.263	39.11
868.553	64.45
868.843	64.88
869.133	72.24
869.423	62.56
869.713	26.86
870.002	74.17
870.292	47.18
870.582	60.97
870.871	78.06
871.161	44.92
871.45	79.24
871.739	47.09
872.029	63.44
872.318	54.98
872.607	47.05
872.896	41.55
873.185	48.28
873.474	47.61
873.763	79.44
874.052	35.06
874.341	41.56
874.63	64.73
874.918	44.28
875.207	10.37
875.496	72.99
875.784	17.89
876.073	29.79
876.361	37.91
876.649	57.25
876.938	28.19
877.226	56.66
877.514	54.7
877.802	33.74
878.09	56.77
878.378	81.76
878.666	65.88
878.954	84.91
879.242	58.4
879.53	48.06
879.817	53.45
880.105	48.05
880.392	59.09
880.68	46.86
880.967	87.14
881.255	74.65
881.542	68.37
881.83	47.2
882.117	45.81
882.404	77.03
882.691	47.87
882.978	57.98
883.265	73.51
883.552	48.82
883.839	72.8
884.126	49.74
884.413	55.6
884.699	68.53
884.986	66.84
885.273	64.69
885.559	64.69
885.846	64.69
