Data from 0010_chest_Reflection__1__318.txt Node

Date: Thu Dec 15 19:09:36 CST 2022
User: ToomeyLab
Spectrometer: FLMS14357
Trigger mode: 0
Integration Time (sec): 1.000000E-2
Scans to average: 100
Electric dark correction enabled: true
Nonlinearity correction enabled: false
Boxcar width: 0
XAxis mode: Wavelengths
Number of Pixels in Spectrum: 2048
>>>>>Begin Spectral Data<<<<<
189.047	-41.84
189.435	-41.84
189.823	-41.84
190.211	52.91
190.599	84.74
190.987	-33.82
191.375	137.46
191.763	197.46
192.151	99.29
192.538	81.01
192.926	-53.4
193.314	151.99
193.702	122.49
194.089	-158.38
194.477	302.75
194.864	82.11
195.252	256.6
195.639	126.33
196.027	-64.86
196.414	-26.58
196.801	24.13
197.189	114.9
197.576	2807.27
197.963	408.36
198.351	-39.89
198.738	-102.66
199.125	-111.31
199.512	18.03
199.899	-94.54
200.286	-4.87
200.673	15.98
201.06	-20.97
201.447	-24.42
201.833	-3.94
202.22	-65.29
202.607	-45.75
202.994	16.46
203.38	24.76
203.767	-31.35
204.154	6.39
204.54	-15.08
204.927	-22.43
205.313	-0.85
205.699	31.34
206.086	11.94
206.472	-3.54
206.858	-21.68
207.245	-38.38
207.631	-9.14
208.017	24.25
208.403	-28.77
208.789	2.32
209.175	-21.79
209.561	-96.07
209.947	-22.78
210.333	0.81
210.719	13.02
211.105	9.38
211.491	-16.13
211.876	-9.22
212.262	-7.19
212.648	-26.77
213.034	-3.06
213.419	-19.3
213.805	-47.04
214.19	-29.87
214.576	-7.57
214.961	8.22
215.346	-59.89
215.732	-22.65
216.117	-29.49
216.502	-12.24
216.888	-25.27
217.273	-18.85
217.658	-19.1
218.043	-44.93
218.428	12.95
218.813	19.41
219.198	-49.54
219.583	-22.4
219.968	-7.83
220.353	-35.95
220.738	-11.24
221.122	-27.5
221.507	-40.38
221.892	-48.37
222.276	-41.9
222.661	-21.8
223.046	-22.49
223.43	12.39
223.815	0.47
224.199	-0.65
224.583	-9.35
224.968	-13.51
225.352	-11.83
225.736	0.06
226.121	-1.22
226.505	-7.54
226.889	-5.36
227.273	-4.5
227.657	1.62
228.041	-1.75
228.425	-5.95
228.809	-2.93
229.193	0.08
229.577	0.53
229.961	0.9
230.344	1.64
230.728	2.05
231.112	1.39
231.495	-0.23
231.879	0.63
232.263	3.07
232.646	1.01
233.03	1.8
233.413	0.92
233.797	-2.79
234.18	3.43
234.563	0.27
234.946	-2.07
235.33	0.33
235.713	0.83
236.096	1.68
236.479	1.64
236.862	0.48
237.245	2.24
237.628	1.45
238.011	1.45
238.394	1.45
238.777	1.63
239.16	0.55
239.543	2.15
239.925	0.32
240.308	0.19
240.691	0.58
241.073	1.83
241.456	0.72
241.838	0.82
242.221	0.7
242.603	1.48
242.986	0.87
243.368	1.39
243.75	1.08
244.133	1.79
244.515	1.08
244.897	0.94
245.279	0.94
245.661	0.5
246.043	0.44
246.425	2.23
246.807	0.56
247.189	1.42
247.571	1.57
247.953	1.2
248.335	1.32
248.717	1.43
249.098	1.26
249.48	1.45
249.862	1.5
250.243	1.4
250.625	1.28
251.006	2.37
251.388	1.28
251.769	0.18
252.151	1.4
252.532	0.68
252.913	1.59
253.295	1.34
253.676	1.33
254.057	1.25
254.438	1.3
254.819	1.11
255.2	1.58
255.581	2.85
255.962	2.03
256.343	1.71
256.724	-0.03
257.105	0.06
257.486	0.33
257.867	0.74
258.247	1.46
258.628	1.61
259.009	0.89
259.389	0.91
259.77	1.41
260.15	1.88
260.531	1.62
260.911	1.27
261.292	1.41
261.672	1.37
262.052	1.45
262.432	0.87
262.813	1.1
263.193	1.47
263.573	0.95
263.953	0.78
264.333	1.9
264.713	1.35
265.093	1.14
265.473	0.89
265.853	1.35
266.233	1.42
266.612	0.59
266.992	1.05
267.372	1.54
267.752	1.42
268.131	1
268.511	1.26
268.89	1.27
269.27	0.94
269.649	1.41
270.029	1.17
270.408	0.59
270.787	0.53
271.167	1.37
271.546	1.91
271.925	1.13
272.304	1.17
272.683	0.89
273.062	1.28
273.441	1.24
273.82	1.45
274.199	1.25
274.578	1.14
274.957	1.35
275.336	1.42
275.715	1.93
276.093	0.47
276.472	0.62
276.851	1.11
277.229	0.48
277.608	0.69
277.986	0.84
278.365	1.44
278.743	1.2
279.122	1.11
279.5	0.96
279.878	0.61
280.257	0.66
280.635	1.04
281.013	1.24
281.391	1.58
281.769	1.6
282.147	1.18
282.525	0.6
282.903	0.96
283.281	1.21
283.659	1.51
284.037	0.92
284.415	1.08
284.792	0.97
285.17	0.89
285.548	1.13
285.925	0.66
286.303	1.69
286.68	1.27
287.058	1.18
287.435	1.01
287.813	1.32
288.19	0.93
288.567	1.37
288.945	1.23
289.322	1.44
289.699	1.26
290.076	1.19
290.453	1.17
290.83	1.38
291.207	0.93
291.584	1.25
291.961	1.22
292.338	1
292.715	1.2
293.092	1.73
293.469	1.27
293.845	1.56
294.222	1.81
294.599	1.14
294.975	0.69
295.352	1.73
295.728	0.96
296.105	1.82
296.481	1.41
296.858	1.47
297.234	1.06
297.61	1.51
297.986	2.21
298.363	1.85
298.739	1.82
299.115	1.3
299.491	1.65
299.867	1.36
300.243	1.4
300.619	1.43
300.995	1.53
301.371	1.26
301.746	1.68
302.122	0.86
302.498	1.42
302.874	1.68
303.249	1.5
303.625	1.53
304	1.61
304.376	1.78
304.751	1.34
305.127	1.55
305.502	1.56
305.878	1.72
306.253	1.26
306.628	1.9
307.003	1.44
307.378	1.62
307.754	1.67
308.129	1.76
308.504	1.64
308.879	1.82
309.254	2.27
309.629	1.6
310.003	1.65
310.378	2.4
310.753	1.52
311.128	1.75
311.502	1.48
311.877	1.94
312.252	2.21
312.626	2.3
313.001	1.8
313.375	1.93
313.75	1.88
314.124	1.97
314.498	2.24
314.873	1.46
315.247	1.79
315.621	1.65
315.995	1.63
316.369	1.8
316.743	1.81
317.117	1.59
317.491	1.95
317.865	1.69
318.239	2.51
318.613	1.79
318.987	1.45
319.361	1.82
319.734	2.19
320.108	2.01
320.482	2.39
320.855	1.68
321.229	1.84
321.602	2.33
321.976	1.71
322.349	2.43
322.723	2.37
323.096	1.61
323.469	1.63
323.843	1.65
324.216	1.81
324.589	2.03
324.962	1.59
325.335	1.64
325.708	1.82
326.081	2.2
326.454	2.41
326.827	1.92
327.2	1.52
327.573	2.83
327.945	1.43
328.318	1.76
328.691	1.64
329.063	1.77
329.436	1.55
329.809	1.95
330.181	2.53
330.553	2.41
330.926	1.96
331.298	2.26
331.671	1.91
332.043	1.97
332.415	2.06
332.787	2.59
333.159	1.8
333.532	1.98
333.904	2.45
334.276	2.45
334.648	1.93
335.02	2.12
335.391	1.7
335.763	1.62
336.135	2.64
336.507	1.94
336.879	2.01
337.25	2.43
337.622	2.34
337.993	2.72
338.365	2.04
338.736	2.48
339.108	2.89
339.479	2.15
339.851	2.53
340.222	2.39
340.593	2.17
340.964	2.38
341.336	1.76
341.707	2.03
342.078	1.94
342.449	1.94
342.82	2.3
343.191	2.04
343.562	2.32
343.933	2.11
344.303	2.32
344.674	2.28
345.045	2.34
345.416	2.79
345.786	2
346.157	2.47
346.527	2.04
346.898	1.85
347.268	2.69
347.639	1.82
348.009	2.25
348.38	2.22
348.75	2.73
349.12	2.26
349.49	2.53
349.861	2.44
350.231	2.44
350.601	2.3
350.971	2.28
351.341	2.56
351.711	2.3
352.081	1.88
352.45	1.83
352.82	1.99
353.19	1.92
353.56	2.4
353.929	2.45
354.299	2.27
354.669	2.29
355.038	2.49
355.408	2.23
355.777	2.26
356.147	2.48
356.516	2.44
356.885	2.49
357.254	2.09
357.624	2.2
357.993	2.38
358.362	2.38
358.731	2.6
359.1	2.44
359.469	2.45
359.838	2.61
360.207	2.48
360.576	2.68
360.945	2.8
361.314	2.1
361.682	2.54
362.051	2.48
362.42	2.4
362.788	2.44
363.157	2.36
363.525	2.74
363.894	2.54
364.262	2.49
364.631	2.88
364.999	2.46
365.367	2.64
365.735	2.47
366.104	2.64
366.472	2.31
366.84	2.6
367.208	2.78
367.576	2.55
367.944	2.6
368.312	2.47
368.68	2.84
369.048	2.47
369.416	2.21
369.783	2.69
370.151	2.74
370.519	2.9
370.886	2.54
371.254	2.6
371.621	2.7
371.989	2.93
372.356	2.51
372.724	2.55
373.091	2.42
373.458	2.54
373.826	2.67
374.193	2.72
374.56	2.73
374.927	2.45
375.294	2.65
375.661	2.65
376.028	2.67
376.395	2.77
376.762	2.4
377.129	2.44
377.496	2.83
377.863	2.91
378.229	3.03
378.596	2.94
378.963	2.76
379.329	2.81
379.696	2.6
380.062	2.86
380.429	2.49
380.795	2.75
381.161	2.24
381.528	2.26
381.894	2.52
382.26	2.83
382.626	2.76
382.993	2.88
383.359	2.59
383.725	2.67
384.091	2.63
384.457	2.45
384.823	2.71
385.188	2.81
385.554	3.17
385.92	2.73
386.286	2.59
386.651	2.79
387.017	2.9
387.383	2.81
387.748	2.92
388.114	3.07
388.479	2.64
388.845	2.43
389.21	2.97
389.575	2.97
389.94	3.13
390.306	3.05
390.671	2.96
391.036	2.75
391.401	2.86
391.766	2.78
392.131	3.17
392.496	2.82
392.861	2.94
393.226	2.9
393.591	2.83
393.956	2.86
394.32	2.82
394.685	2.89
395.05	2.91
395.414	2.88
395.779	3.23
396.143	2.8
396.508	2.83
396.872	2.86
397.236	3.07
397.601	3.04
397.965	3.07
398.329	2.59
398.694	2.9
399.058	3
399.422	2.91
399.786	2.54
400.15	2.77
400.514	3.06
400.878	3.11
401.242	2.97
401.605	3.01
401.969	2.94
402.333	2.66
402.697	3.33
403.06	3.06
403.424	2.9
403.787	2.95
404.151	2.88
404.514	3.05
404.878	2.84
405.241	3.11
405.604	2.92
405.968	3.1
406.331	3.15
406.694	3.04
407.057	2.84
407.42	2.96
407.783	3.24
408.146	2.99
408.509	3.15
408.872	3.18
409.235	3.17
409.598	3.08
409.961	2.99
410.323	3.09
410.686	3.1
411.049	3.1
411.411	2.97
411.774	3.05
412.136	2.93
412.499	3.15
412.861	2.93
413.223	3.08
413.586	3.24
413.948	3.46
414.31	3.12
414.672	2.9
415.035	3.45
415.397	3.1
415.759	3.05
416.121	3.33
416.483	3.05
416.845	3.27
417.206	3.25
417.568	3.17
417.93	3.03
418.292	3.06
418.653	2.95
419.015	3.18
419.377	3.06
419.738	3.17
420.1	3.19
420.461	3.07
420.822	3.13
421.184	3.13
421.545	3.24
421.906	3.22
422.267	3.13
422.629	3.03
422.99	3.16
423.351	3.19
423.712	3.2
424.073	3.13
424.434	3.3
424.795	3.12
425.155	3.12
425.516	3.09
425.877	3.2
426.238	3.2
426.598	3.3
426.959	3.23
427.32	3.24
427.68	3.26
428.041	3.25
428.401	3.23
428.761	3.45
429.122	3.23
429.482	3.25
429.842	3.25
430.202	3.39
430.563	3.18
430.923	3.23
431.283	3.38
431.643	3.43
432.003	3.38
432.363	3.5
432.722	3.31
433.082	3.32
433.442	3.33
433.802	3.35
434.161	3.21
434.521	3.28
434.881	3.33
435.24	3.31
435.6	3.44
435.959	3.39
436.319	3.41
436.678	3.51
437.037	3.32
437.396	3.32
437.756	3.2
438.115	3.4
438.474	3.48
438.833	3.46
439.192	3.29
439.551	3.39
439.91	3.44
440.269	3.38
440.628	3.44
440.987	3.34
441.345	3.47
441.704	3.39
442.063	3.42
442.421	3.48
442.78	3.49
443.138	3.42
443.497	3.46
443.855	3.44
444.214	3.27
444.572	3.5
444.93	3.45
445.288	3.47
445.647	3.34
446.005	3.44
446.363	3.5
446.721	3.49
447.079	3.44
447.437	3.56
447.795	3.55
448.153	3.45
448.51	3.51
448.868	3.43
449.226	3.46
449.584	3.47
449.941	3.46
450.299	3.42
450.656	3.62
451.014	3.47
451.371	3.79
451.729	3.61
452.086	3.67
452.443	3.64
452.801	3.61
453.158	3.69
453.515	3.49
453.872	3.63
454.229	3.47
454.586	3.52
454.943	3.58
455.3	3.61
455.657	3.62
456.014	3.66
456.371	3.64
456.727	3.61
457.084	3.71
457.441	3.66
457.797	3.5
458.154	3.79
458.51	3.66
458.867	3.68
459.223	3.36
459.58	3.64
459.936	3.66
460.292	3.63
460.648	3.64
461.005	3.62
461.361	3.58
461.717	3.68
462.073	3.71
462.429	3.74
462.785	3.76
463.141	3.72
463.496	3.73
463.852	3.93
464.208	3.85
464.564	3.78
464.919	3.64
465.275	3.76
465.631	3.92
465.986	4.07
466.342	3.65
466.697	3.68
467.052	3.92
467.408	3.74
467.763	3.74
468.118	3.7
468.473	3.79
468.829	3.75
469.184	3.78
469.539	3.59
469.894	3.88
470.249	3.8
470.603	3.91
470.958	3.9
471.313	3.77
471.668	3.92
472.023	3.78
472.377	3.92
472.732	4.05
473.086	3.87
473.441	3.94
473.795	4.16
474.15	3.84
474.504	3.75
474.859	3.76
475.213	3.92
475.567	3.9
475.921	4
476.275	4.09
476.63	4.02
476.984	3.78
477.338	4.09
477.692	3.89
478.045	3.98
478.399	3.98
478.753	3.93
479.107	4.1
479.461	3.85
479.814	3.95
480.168	3.99
480.521	3.94
480.875	3.97
481.228	4
481.582	3.95
481.935	4.08
482.289	4
482.642	4.07
482.995	3.87
483.348	3.99
483.701	3.99
484.055	3.87
484.408	3.97
484.761	3.87
485.114	3.71
485.466	3.73
485.819	3.78
486.172	3.85
486.525	3.9
486.878	4.02
487.23	3.95
487.583	3.99
487.936	3.91
488.288	3.96
488.641	3.93
488.993	3.91
489.345	3.87
489.698	3.88
490.05	3.91
490.402	3.99
490.754	4
491.107	3.98
491.459	4.07
491.811	4.02
492.163	4.11
492.515	3.98
492.866	3.93
493.218	3.91
493.57	4.04
493.922	4.07
494.274	4.13
494.625	4.23
494.977	4.2
495.328	4.26
495.68	4.26
496.031	4.23
496.383	4.24
496.734	4.25
497.086	4.39
497.437	4.35
497.788	4.36
498.139	4.3
498.49	4.18
498.842	4.32
499.193	4.14
499.544	4.29
499.894	4.23
500.245	4.47
500.596	4.29
500.947	4.2
501.298	4.43
501.648	4.4
501.999	4.41
502.35	4.28
502.7	4.51
503.051	4.38
503.401	4.41
503.752	4.36
504.102	4.39
504.452	4.3
504.803	4.31
505.153	4.41
505.503	4.34
505.853	4.58
506.203	4.56
506.553	4.34
506.903	4.47
507.253	4.37
507.603	4.47
507.953	4.43
508.303	4.42
508.652	4.37
509.002	4.48
509.352	4.49
509.701	4.46
510.051	4.65
510.4	4.64
510.75	4.53
511.099	4.38
511.449	4.46
511.798	4.47
512.147	4.51
512.496	4.65
512.846	4.55
513.195	4.65
513.544	4.58
513.893	4.65
514.242	4.62
514.591	4.54
514.939	4.72
515.288	4.71
515.637	4.54
515.986	4.78
516.334	4.68
516.683	4.75
517.032	4.67
517.38	4.59
517.729	4.64
518.077	4.72
518.426	4.72
518.774	4.63
519.122	4.73
519.47	4.67
519.819	4.66
520.167	4.64
520.515	4.67
520.863	4.66
521.211	4.65
521.559	4.65
521.907	4.76
522.255	4.76
522.602	4.79
522.95	5.01
523.298	4.85
523.645	4.79
523.993	4.88
524.341	4.78
524.688	4.84
525.036	4.92
525.383	4.82
525.73	4.73
526.078	4.88
526.425	4.84
526.772	4.82
527.119	4.86
527.466	4.84
527.814	4.83
528.161	4.92
528.508	4.96
528.854	4.8
529.201	4.79
529.548	4.76
529.895	4.66
530.242	4.68
530.588	4.72
530.935	4.78
531.282	4.8
531.628	4.91
531.975	4.89
532.321	4.93
532.667	5.01
533.014	5.08
533.36	5.05
533.706	4.96
534.052	4.98
534.399	4.99
534.745	4.89
535.091	4.89
535.437	4.98
535.783	5.01
536.129	5.05
536.474	5.17
536.82	5.19
537.166	5.05
537.512	5.23
537.857	5.14
538.203	5.11
538.549	5.15
538.894	5.22
539.239	5.16
539.585	5.32
539.93	5.34
540.276	5.3
540.621	5.45
540.966	5.38
541.311	5.34
541.656	5.32
542.001	5.28
542.346	5.16
542.691	5.17
543.036	5.13
543.381	5.22
543.726	5.32
544.071	5.29
544.415	5.31
544.76	5.32
545.105	5.34
545.449	5.39
545.794	5.49
546.138	5.49
546.483	5.64
546.827	5.4
547.171	5.46
547.516	5.6
547.86	5.53
548.204	5.57
548.548	5.49
548.892	5.61
549.236	5.64
549.58	5.7
549.924	5.77
550.268	5.79
550.612	5.72
550.956	5.84
551.3	5.91
551.643	5.81
551.987	5.99
552.33	5.95
552.674	5.88
553.017	5.99
553.361	5.96
553.704	6.05
554.048	5.91
554.391	6.02
554.734	5.86
555.077	5.89
555.42	5.92
555.764	5.96
556.107	5.95
556.45	5.97
556.793	5.98
557.135	5.89
557.478	6.15
557.821	6.05
558.164	6.17
558.507	5.92
558.849	6.23
559.192	6.08
559.534	6.12
559.877	6.09
560.219	6.23
560.562	6.03
560.904	6.33
561.246	6.17
561.589	6.62
561.931	6.28
562.273	6.13
562.615	6.2
562.957	6.29
563.299	6.29
563.641	6.3
563.983	6.19
564.325	6.36
564.667	6.53
565.008	6.18
565.35	6.23
565.692	6.54
566.033	6.27
566.375	6.51
566.716	6.29
567.058	6.57
567.399	6.61
567.741	6.46
568.082	6.5
568.423	6.52
568.764	6.5
569.105	6.59
569.447	6.53
569.788	6.63
570.129	6.69
570.47	6.67
570.811	6.7
571.151	6.56
571.492	6.53
571.833	6.73
572.174	6.83
572.514	6.81
572.855	6.82
573.195	6.71
573.536	6.82
573.876	6.59
574.217	6.82
574.557	6.81
574.898	6.71
575.238	6.85
575.578	6.94
575.918	6.95
576.258	7.07
576.598	6.97
576.938	6.86
577.278	6.99
577.618	7.01
577.958	7.11
578.298	7.05
578.638	6.99
578.977	7.16
579.317	7.21
579.657	7.14
579.996	7.23
580.336	7.16
580.675	7.05
581.014	7.31
581.354	7.03
581.693	7.52
582.032	7.51
582.372	7.36
582.711	7.5
583.05	7.46
583.389	7.46
583.728	7.65
584.067	7.44
584.406	7.48
584.745	7.21
585.083	7.6
585.422	7.86
585.761	7.77
586.1	7.6
586.438	7.47
586.777	7.67
587.115	7.83
587.454	7.45
587.792	7.64
588.13	7.73
588.469	7.57
588.807	8.21
589.145	7.81
589.483	7.75
589.821	7.74
590.159	7.76
590.497	7.99
590.835	7.78
591.173	8.02
591.511	7.83
591.849	7.89
592.187	7.76
592.524	8.07
592.862	7.8
593.2	7.97
593.537	7.81
593.875	8.01
594.212	7.97
594.55	8.07
594.887	8.29
595.224	8.28
595.561	8.03
595.899	8.2
596.236	8.26
596.573	7.99
596.91	8.05
597.247	8.34
597.584	8.09
597.921	8.03
598.258	8.15
598.594	8.18
598.931	8.06
599.268	8.21
599.604	8.35
599.941	8.54
600.277	8.37
600.614	8.24
600.95	8.52
601.287	8.24
601.623	8.17
601.959	8.65
602.296	8.53
602.632	8.62
602.968	8.6
603.304	8.52
603.64	8.79
603.976	8.3
604.312	8.71
604.648	8.64
604.984	8.85
605.319	8.5
605.655	8.62
605.991	8.71
606.326	8.66
606.662	8.55
606.998	8.81
607.333	8.59
607.668	8.78
608.004	8.74
608.339	8.81
608.674	9.1
609.01	9.05
609.345	9.07
609.68	8.74
610.015	9.11
610.35	9.25
610.685	8.73
611.02	8.98
611.355	9.03
611.689	9.09
612.024	8.98
612.359	9.17
612.694	9.22
613.028	9.01
613.363	9.38
613.697	9.36
614.032	9.32
614.366	9.22
614.7	9.45
615.035	9.24
615.369	9.44
615.703	9.66
616.037	9.67
616.371	9.43
616.705	9.89
617.039	9.6
617.373	9.59
617.707	9.29
618.041	9.27
618.375	9.27
618.709	9.67
619.042	9.72
619.376	9.8
619.71	9.65
620.043	10.08
620.377	9.55
620.71	9.59
621.043	9.94
621.377	10.14
621.71	10.2
622.043	9.95
622.376	9.91
622.709	10.26
623.043	9.88
623.376	10.06
623.709	10.26
624.041	10
624.374	10.15
624.707	10.08
625.04	9.88
625.373	10.18
625.705	10.27
626.038	10.21
626.37	9.8
626.703	10.41
627.035	10.18
627.368	10.18
627.7	10.28
628.032	10.25
628.365	10.43
628.697	10.41
629.029	10.45
629.361	10.51
629.693	10.57
630.025	10.42
630.357	10.47
630.689	10.47
631.021	10.64
631.353	10.71
631.684	10.54
632.016	10.34
632.348	10.49
632.679	11.02
633.011	10.75
633.342	10.57
633.674	10.55
634.005	10.79
634.336	10.68
634.668	10.99
634.999	10.99
635.33	10.39
635.661	10.67
635.992	10.93
636.323	10.99
636.654	10.87
636.985	10.45
637.316	10.75
637.647	10.88
637.977	10.84
638.308	11.11
638.639	10.78
638.969	10.54
639.3	11.27
639.63	11.05
639.961	11.22
640.291	10.87
640.622	11.48
640.952	11.43
641.282	11.11
641.612	11.37
641.943	10.7
642.273	11.47
642.603	11.62
642.933	11.54
643.263	11.59
643.592	11.68
643.922	11.61
644.252	11.8
644.582	11.54
644.911	11.43
645.241	11.65
645.571	11.4
645.9	11.65
646.23	11.9
646.559	11.28
646.888	11.72
647.218	11.86
647.547	12.16
647.876	11.5
648.205	11.59
648.534	11.36
648.863	11.3
649.192	12.06
649.521	12.26
649.85	12.43
650.179	12.21
650.508	11.92
650.837	12.13
651.165	12.38
651.494	11.84
651.822	11.96
652.151	11.57
652.479	11.93
652.808	12.07
653.136	11.77
653.465	11.82
653.793	11.87
654.121	11.76
654.449	11.77
654.777	11.84
655.105	12.28
655.433	12.14
655.761	12.38
656.089	12.09
656.417	12.05
656.745	12.66
657.073	12.14
657.4	12.38
657.728	12.06
658.056	12.01
658.383	12.49
658.711	12.49
659.038	12.73
659.365	12.65
659.693	12.22
660.02	12.45
660.347	12.79
660.674	12.35
661.001	12.31
661.329	12.23
661.656	12.07
661.982	12.53
662.309	12.68
662.636	12.57
662.963	12.86
663.29	12.85
663.616	12.74
663.943	12.94
664.27	13.01
664.596	12.93
664.923	13.26
665.249	12.64
665.576	12.83
665.902	12.26
666.228	12.91
666.554	13.13
666.881	12.95
667.207	13.05
667.533	13.15
667.859	12.7
668.185	13.14
668.511	13.51
668.837	13.28
669.162	13
669.488	12.64
669.814	13.16
670.139	12.63
670.465	13.75
670.791	13.3
671.116	12.78
671.442	12.81
671.767	13.6
672.092	13.3
672.418	13.6
672.743	13.32
673.068	13.24
673.393	13.62
673.718	13.09
674.043	13.49
674.368	13.45
674.693	13.15
675.018	13.37
675.343	13.51
675.667	13.41
675.992	13.92
676.317	12.49
676.641	13.49
676.966	13.56
677.29	13.85
677.615	13.7
677.939	14.1
678.264	13.5
678.588	14.31
678.912	13.9
679.236	13.27
679.56	13.76
679.885	14.07
680.209	14.23
680.532	13.92
680.856	14.41
681.18	15.07
681.504	14.22
681.828	13.7
682.152	14.13
682.475	14.35
682.799	13.7
683.122	13.64
683.446	13.38
683.769	14.12
684.093	14.28
684.416	14.04
684.739	14.3
685.062	14.57
685.386	14.29
685.709	14.9
686.032	14.5
686.355	14.75
686.678	14.46
687.001	13.89
687.324	14.91
687.646	14.6
687.969	14.54
688.292	14.59
688.614	14.42
688.937	14.76
689.26	14.8
689.582	14.1
689.904	15.04
690.227	14.77
690.549	14.52
690.871	15.01
691.194	14.61
691.516	14.25
691.838	15.45
692.16	14.36
692.482	14.2
692.804	15.21
693.126	14.69
693.448	14.8
693.769	14.72
694.091	15.19
694.413	15.41
694.735	14.41
695.056	15.09
695.378	15.19
695.699	14.65
696.021	15.07
696.342	14.82
696.663	15.24
696.984	15.11
697.306	14.97
697.627	15.67
697.948	14.87
698.269	15.53
698.59	15.31
698.911	15.16
699.232	15.6
699.553	15.67
699.873	15.29
700.194	15.3
700.515	15.19
700.835	15.08
701.156	15.83
701.477	15.42
701.797	15.16
702.117	16.19
702.438	16.08
702.758	15.21
703.078	15.43
703.398	15.49
703.719	16.49
704.039	15.31
704.359	15.98
704.679	15.19
704.999	15.62
705.319	16.18
705.638	16.3
705.958	16.2
706.278	15.22
706.597	15.02
706.917	16.73
707.237	15.91
707.556	15.6
707.876	15.98
708.195	15.44
708.514	15.48
708.834	14.88
709.153	15.82
709.472	16.75
709.791	15.62
710.11	15.61
710.429	15.56
710.748	16.46
711.067	16.3
711.386	16.76
711.705	16.49
712.023	17.7
712.342	16.72
712.661	16.88
712.979	17.58
713.298	16.53
713.616	17.09
713.935	17.12
714.253	16.33
714.572	16.6
714.89	16.51
715.208	16.83
715.526	16.59
715.844	17.05
716.162	16.43
716.48	16.49
716.798	17.34
717.116	16.46
717.434	17.06
717.752	17.15
718.069	16.97
718.387	17.05
718.705	17.63
719.022	17.29
719.34	15.62
719.657	17.31
719.975	16.7
720.292	16.38
720.609	16.44
720.927	16.37
721.244	17.58
721.561	16.74
721.878	17.12
722.195	17.6
722.512	15.88
722.829	16.76
723.146	16.37
723.463	15.75
723.779	15.8
724.096	14.94
724.413	18.06
724.729	16.87
725.046	17.71
725.362	16.94
725.679	16.65
725.995	15.52
726.311	18.28
726.628	16.73
726.944	17.6
727.26	16.74
727.576	18.27
727.892	18.28
728.208	16.81
728.524	16.97
728.84	18.18
729.156	17.21
729.472	17.07
729.787	17.22
730.103	17.77
730.419	17.13
730.734	17.71
731.05	18.1
731.365	18.2
731.681	17.92
731.996	19.05
732.311	17.34
732.626	17.2
732.942	17.87
733.257	17.81
733.572	18.78
733.887	19.17
734.202	18.86
734.517	17.27
734.832	17.39
735.146	20.23
735.461	17.84
735.776	19.46
736.091	18.61
736.405	17.47
736.72	15.45
737.034	17.61
737.349	18.38
737.663	19.04
737.977	19.92
738.292	18.4
738.606	18.35
738.92	19.35
739.234	18.42
739.548	19.34
739.862	18.51
740.176	17.28
740.49	18.11
740.804	19.22
741.117	16.96
741.431	18.5
741.745	16.91
742.058	17.34
742.372	17.44
742.685	18.39
742.999	18.39
743.312	19.14
743.626	19.96
743.939	18.43
744.252	18.59
744.565	18.88
744.878	17.82
745.191	19.46
745.505	19.11
745.817	18.59
746.13	18.39
746.443	17.75
746.756	19.23
747.069	19.96
747.381	17.19
747.694	19.55
748.007	17.96
748.319	21.78
748.632	20.37
748.944	19.42
749.256	20.42
749.569	20.74
749.881	18.28
750.193	20.86
750.505	19.89
750.817	18.37
751.129	19.74
751.441	19.82
751.753	19.69
752.065	19.28
752.377	18.89
752.689	19.62
753	20.79
753.312	20.62
753.624	19.06
753.935	17.84
754.247	18.32
754.558	17.06
754.869	20.76
755.181	18.13
755.492	19.36
755.803	20.8
756.114	18.38
756.425	18.48
756.736	20.14
757.047	19.82
757.358	21.32
757.669	19.52
757.98	18.25
758.291	18.4
758.601	21.18
758.912	21.17
759.223	18.14
759.533	19.91
759.844	17.16
760.154	20.95
760.464	19.26
760.775	20.81
761.085	19.78
761.395	18.09
761.705	19.61
762.016	20.01
762.326	21.64
762.636	21.56
762.945	19.71
763.255	19.73
763.565	21.44
763.875	18.86
764.185	22.06
764.494	21.16
764.804	18.48
765.113	20.34
765.423	20.14
765.732	20.35
766.042	20.74
766.351	21.02
766.66	21.35
766.97	21.24
767.279	20.76
767.588	21.34
767.897	20.38
768.206	20.9
768.515	20.91
768.824	21.91
769.133	18.45
769.441	18.07
769.75	18.93
770.059	21.92
770.367	20.98
770.676	19.4
770.984	18.4
771.293	20.46
771.601	17.6
771.91	19.17
772.218	20.03
772.526	20.89
772.834	19.53
773.142	19.7
773.45	20.41
773.758	22.42
774.066	21.42
774.374	23.77
774.682	22
774.99	20.36
775.298	18.64
775.605	18.68
775.913	17.4
776.22	18.14
776.528	16.44
776.835	23.64
777.143	21.78
777.45	18.98
777.757	20.62
778.065	18.36
778.372	18.97
778.679	22.4
778.986	22.94
779.293	20.78
779.6	22.36
779.907	23.59
780.214	19.15
780.52	22.37
780.827	23.29
781.134	21.69
781.44	22.16
781.747	18.29
782.053	22.04
782.36	21.54
782.666	21.55
782.973	18.87
783.279	21.46
783.585	22.8
783.891	21.77
784.197	21.83
784.503	19.68
784.809	22.69
785.115	25.89
785.421	23.32
785.727	19.17
786.033	19.5
786.339	20.99
786.644	18.76
786.95	20.23
787.255	16.96
787.561	19.33
787.866	24.78
788.172	21.89
788.477	21.06
788.782	19.99
789.088	21.14
789.393	19.84
789.698	19.72
790.003	21.69
790.308	24.59
790.613	21.19
790.918	19.55
791.223	23.21
791.527	24.89
791.832	22.95
792.137	23.79
792.441	20.28
792.746	21.85
793.05	23
793.355	19.74
793.659	22.46
793.963	22.06
794.268	22.76
794.572	16.86
794.876	18.18
795.18	24.71
795.484	23.38
795.788	20.56
796.092	19.16
796.396	21.92
796.7	20.44
797.004	19.57
797.307	20.15
797.611	21.23
797.915	18.05
798.218	18.56
798.522	18.24
798.825	22.68
799.128	20.43
799.432	20.31
799.735	22.42
800.038	23.61
800.341	23.26
800.644	22.43
800.947	21.93
801.25	24.3
801.553	24.49
801.856	24.82
802.159	19.67
802.462	20.11
802.764	24.54
803.067	24.58
803.37	22.65
803.672	18.13
803.975	19.89
804.277	22.38
804.579	23.55
804.882	25.13
805.184	19.49
805.486	25.92
805.788	23.96
806.09	22.52
806.392	21.27
806.694	22.52
806.996	27.01
807.298	18.67
807.6	24.2
807.902	23.17
808.203	25.15
808.505	22.01
808.807	21.15
809.108	24.09
809.409	23.18
809.711	19.94
810.012	20.74
810.313	21.91
810.615	23.19
810.916	25.03
811.217	17.79
811.518	18.47
811.819	26.95
812.12	21.5
812.421	24
812.722	16.19
813.023	28.43
813.323	19.89
813.624	27.51
813.925	16.54
814.225	26.57
814.526	15.51
814.826	20.77
815.126	22.99
815.427	21.32
815.727	25.19
816.027	23.56
816.327	25.48
816.627	18.3
816.927	23.15
817.227	25.79
817.527	20.77
817.827	22.03
818.127	20.13
818.427	19.21
818.727	14.39
819.026	26.01
819.326	22.45
819.625	18.89
819.925	17.3
820.224	28.23
820.524	21.96
820.823	22.22
821.122	17.61
821.421	22.97
821.72	18.79
822.019	17.07
822.318	29.62
822.617	23.67
822.916	20.23
823.215	24.81
823.514	24.93
823.813	25.8
824.111	23.95
824.41	25.82
824.709	26.19
825.007	26.33
825.306	26.72
825.604	26.58
825.902	26.18
826.201	27.31
826.499	26.11
826.797	26.35
827.095	27.43
827.393	25.64
827.691	26.99
827.989	25.79
828.287	24.93
828.585	25.3
828.882	23.83
829.18	25.35
829.478	26.23
829.775	26.68
830.073	27.27
830.37	25.62
830.668	24.93
830.965	28.4
831.263	26.46
831.56	25.42
831.857	29.75
832.154	26.61
832.451	23.02
832.748	27.62
833.045	23.89
833.342	22.66
833.639	27.38
833.936	20.3
834.232	24.14
834.529	20.05
834.826	27.54
835.122	19.48
835.419	28.63
835.715	23.19
836.012	27.63
836.308	26.47
836.604	26.88
836.901	25.06
837.197	24.92
837.493	29.24
837.789	28.05
838.085	26.45
838.381	28.37
838.677	25.15
838.972	23.27
839.268	22.52
839.564	24.74
839.86	30.81
840.155	29.76
840.451	30
840.746	19.27
841.042	24.08
841.337	17.46
841.632	21.96
841.928	26.21
842.223	15.98
842.518	19.98
842.813	16.2
843.108	22.74
843.403	22.61
843.698	22.16
843.993	32.55
844.287	14.14
844.582	23.67
844.877	18.2
845.171	25.39
845.466	10.39
845.761	21.82
846.055	21.16
846.349	17.59
846.644	25.84
846.938	22.89
847.232	20.87
847.526	19.29
847.82	18.2
848.114	21.43
848.408	19.32
848.702	30.51
848.996	16.82
849.29	21.66
849.584	9.96
849.877	13.28
850.171	37.59
850.465	35.89
850.758	23.58
851.052	29.57
851.345	26.06
851.638	18.06
851.932	26.51
852.225	29
852.518	35.08
852.811	-3.43
853.104	10.96
853.397	10.19
853.69	24.33
853.983	8.73
854.276	19.99
854.569	15.52
854.861	9.23
855.154	38.41
855.447	12.47
855.739	-3.59
856.032	22.68
856.324	24.34
856.616	14.53
856.909	1.26
857.201	4.94
857.493	2.31
857.785	7.71
858.077	14.74
858.369	-2.9
858.661	26.53
858.953	31.52
859.245	21.68
859.537	10.56
859.829	-12.82
860.12	24.32
860.412	-13.63
860.703	16
860.995	24.74
861.286	-21.79
861.578	17.97
861.869	24.06
862.16	10.07
862.452	9.74
862.743	-10.26
863.034	25.08
863.325	27.65
863.616	15.03
863.907	24.63
864.198	26.32
864.488	15.5
864.779	29.07
865.07	25.3
865.36	32.01
865.651	41.39
865.941	29.48
866.232	32.14
866.522	-25.8
866.813	-6.6
867.103	4.97
867.393	-0.08
867.683	25.93
867.973	49.6
868.263	-4.84
868.553	22.23
868.843	-7.31
869.133	14.84
869.423	41.36
869.713	2.43
870.002	48.84
870.292	31.86
870.582	26.24
870.871	-15.67
871.161	14.6
871.45	3.85
871.739	25
872.029	-3.7
872.318	12.1
872.607	30.11
872.896	23.59
873.185	31.09
873.474	15.78
873.763	47.46
874.052	27.67
874.341	9.43
874.63	21.71
874.918	26.6
875.207	-12.62
875.496	21.71
875.784	16.07
876.073	-3.21
876.361	20.13
876.649	2.68
876.938	-6.37
877.226	42.6
877.514	34.73
877.802	15.28
878.09	15.65
878.378	32.04
878.666	23.65
878.954	38.56
879.242	14.22
879.53	23.41
879.817	-14.49
880.105	17.06
880.392	24.84
880.68	22.97
880.967	19.77
881.255	37.15
881.542	28.5
881.83	37.77
882.117	46.73
882.404	16.55
882.691	-7.58
882.978	31.35
883.265	32.05
883.552	28.84
883.839	38.73
884.126	30.27
884.413	29.73
884.699	38.19
884.986	30.74
885.273	31.86
885.559	31.86
885.846	31.86
