Data from 0010_chest_Reflection__0__317.txt Node

Date: Thu Dec 15 19:09:26 CST 2022
User: ToomeyLab
Spectrometer: FLMS14357
Trigger mode: 0
Integration Time (sec): 1.000000E-2
Scans to average: 100
Electric dark correction enabled: true
Nonlinearity correction enabled: false
Boxcar width: 0
XAxis mode: Wavelengths
Number of Pixels in Spectrum: 2048
>>>>>Begin Spectral Data<<<<<
189.047	16.04
189.435	16.04
189.823	16.04
190.211	26.41
190.599	46.34
190.987	21.67
191.375	-26.7
191.763	104.13
192.151	170.63
192.538	10.96
192.926	-41.75
193.314	152.29
193.702	-80.69
194.089	-179.85
194.477	264.22
194.864	18.79
195.252	-51.52
195.639	111.28
196.027	237.31
196.414	2.96
196.801	-59.25
197.189	148.96
197.576	1545
197.963	423.43
198.351	-9.2
198.738	-75.58
199.125	-103.22
199.512	6.24
199.899	-62.09
200.286	-23.96
200.673	72.97
201.06	-5.38
201.447	9.33
201.833	14.37
202.22	-47.25
202.607	-55.55
202.994	-23.59
203.38	19.8
203.767	-60.89
204.154	1.9
204.54	-1.93
204.927	-26.43
205.313	5.49
205.699	9.68
206.086	7.07
206.472	5.07
206.858	22.54
207.245	-17.3
207.631	-47.19
208.017	53.01
208.403	-78.18
208.789	-29.14
209.175	-30.51
209.561	-94.94
209.947	-75.75
210.333	-32.93
210.719	12.86
211.105	16.71
211.491	21.65
211.876	-20
212.262	-20.58
212.648	-26.02
213.034	-8.83
213.419	4.33
213.805	-62.3
214.19	-29.14
214.576	-39.16
214.961	25.8
215.346	-19.03
215.732	-6.25
216.117	-10.37
216.502	-51.35
216.888	-19.64
217.273	6.24
217.658	-16.36
218.043	-64.14
218.428	-40.53
218.813	-17.93
219.198	-41.17
219.583	-37.86
219.968	-21.48
220.353	-52.19
220.738	-20
221.122	-44.49
221.507	-16.94
221.892	-52.24
222.276	-36.73
222.661	-10.96
223.046	-27.09
223.43	11.58
223.815	-1.76
224.199	-16
224.583	-14.37
224.968	-5.92
225.352	-11.77
225.736	-8.6
226.121	-12.18
226.505	-4.19
226.889	4.87
227.273	-7.59
227.657	-1.52
228.041	-2.27
228.425	-2.73
228.809	-3.44
229.193	1.06
229.577	-0.97
229.961	0.26
230.344	0.9
230.728	1.52
231.112	2.07
231.495	-1.14
231.879	-0.27
232.263	0.23
232.646	-0.69
233.03	0.69
233.413	-0.79
233.797	-0.41
234.18	-1.52
234.563	-0.83
234.946	-0.49
235.33	0.24
235.713	1.32
236.096	1.46
236.479	-0.21
236.862	0.61
237.245	0.15
237.628	0.34
238.011	-0.18
238.394	-0.42
238.777	0.76
239.16	0.89
239.543	0.17
239.925	0.5
240.308	-0.74
240.691	-1.86
241.073	-0.17
241.456	3.04
241.838	1.44
242.221	0.29
242.603	1.24
242.986	1.24
243.368	1.22
243.75	1.58
244.133	2.12
244.515	1.22
244.897	0.6
245.279	0.64
245.661	0.81
246.043	0.42
246.425	1.3
246.807	0.68
247.189	1.02
247.571	0.97
247.953	0.82
248.335	1.57
248.717	1.74
249.098	1.71
249.48	1.35
249.862	1.4
250.243	1.79
250.625	1.57
251.006	2.25
251.388	1.12
251.769	0.6
252.151	2.95
252.532	-0.11
252.913	0.92
253.295	0.76
253.676	1.78
254.057	1.3
254.438	0.83
254.819	1.23
255.2	1.77
255.581	2.62
255.962	0.57
256.343	1.25
256.724	1.22
257.105	0.46
257.486	0.26
257.867	0.96
258.247	1.44
258.628	1.89
259.009	0.6
259.389	0.76
259.77	0.57
260.15	1.45
260.531	1.21
260.911	1.14
261.292	1.41
261.672	1.35
262.052	1.43
262.432	1.2
262.813	1.47
263.193	1.24
263.573	0.55
263.953	0.73
264.333	0.67
264.713	1.31
265.093	1.12
265.473	0.84
265.853	1.51
266.233	0.89
266.612	0.35
266.992	0.99
267.372	1.47
267.752	1.88
268.131	1.25
268.511	1.2
268.89	1.58
269.27	0.79
269.649	0.96
270.029	1.59
270.408	1.49
270.787	1.43
271.167	1.48
271.546	1.23
271.925	0.9
272.304	0.8
272.683	1.31
273.062	1.3
273.441	1.02
273.82	1.67
274.199	1.23
274.578	1.26
274.957	0.92
275.336	1.29
275.715	0.84
276.093	0.97
276.472	1.44
276.851	1.42
277.229	1.22
277.608	0.5
277.986	1.35
278.365	1.2
278.743	0.76
279.122	0.64
279.5	0.69
279.878	1.32
280.257	0.85
280.635	1.03
281.013	0.96
281.391	0.64
281.769	1.32
282.147	1.37
282.525	1.22
282.903	0.76
283.281	1.36
283.659	1.12
284.037	0.91
284.415	1.02
284.792	1.11
285.17	0.77
285.548	1.15
285.925	0.67
286.303	2.03
286.68	1.11
287.058	1.42
287.435	0.87
287.813	1.39
288.19	1.02
288.567	1.13
288.945	0.56
289.322	1.01
289.699	1.55
290.076	1.17
290.453	0.54
290.83	1.31
291.207	0.98
291.584	1.16
291.961	1.31
292.338	1.35
292.715	1.05
293.092	1.63
293.469	0.94
293.845	1.09
294.222	1.34
294.599	0.86
294.975	0.54
295.352	1.4
295.728	1.28
296.105	1.48
296.481	1.36
296.858	1.34
297.234	0.72
297.61	1.1
297.986	1.66
298.363	1.7
298.739	1.89
299.115	1.54
299.491	1.72
299.867	0.96
300.243	1.32
300.619	1.64
300.995	1.3
301.371	1.73
301.746	1.49
302.122	1.32
302.498	0.88
302.874	1.74
303.249	1.42
303.625	1.04
304	1.51
304.376	1.68
304.751	1.4
305.127	1.03
305.502	1.68
305.878	1.76
306.253	1.05
306.628	1.78
307.003	1.43
307.378	1.22
307.754	1.62
308.129	1.41
308.504	1.45
308.879	1.33
309.254	2.08
309.629	1.79
310.003	1.57
310.378	1.94
310.753	1.99
311.128	1.24
311.502	1.67
311.877	1.37
312.252	1.97
312.626	1.73
313.001	1.86
313.375	1.85
313.75	1.91
314.124	1.53
314.498	1.76
314.873	1.75
315.247	1.64
315.621	1.32
315.995	1.55
316.369	1.56
316.743	1.02
317.117	1.31
317.491	1.86
317.865	1.1
318.239	1.8
318.613	1.21
318.987	1.47
319.361	1.83
319.734	1.7
320.108	1.51
320.482	1.82
320.855	1.67
321.229	1.92
321.602	1.93
321.976	1.16
322.349	2.52
322.723	1.32
323.096	1.45
323.469	1.62
323.843	1.2
324.216	1.37
324.589	1.95
324.962	1.86
325.335	1.73
325.708	1.75
326.081	1.58
326.454	2.07
326.827	1.97
327.2	1.3
327.573	2.39
327.945	2.04
328.318	1.47
328.691	1.46
329.063	1.24
329.436	1.33
329.809	1.78
330.181	2.19
330.553	1.95
330.926	1.93
331.298	1.99
331.671	1.79
332.043	1.69
332.415	1.31
332.787	1.7
333.159	1.76
333.532	2.04
333.904	1.8
334.276	1.78
334.648	2.3
335.02	1.86
335.391	1.76
335.763	2.09
336.135	2.28
336.507	1.52
336.879	2.14
337.25	2.07
337.622	1.87
337.993	1.89
338.365	2.16
338.736	2.22
339.108	2.16
339.479	1.85
339.851	2.17
340.222	2.21
340.593	1.74
340.964	2.32
341.336	1.96
341.707	1.51
342.078	1.85
342.449	2.11
342.82	1.95
343.191	1.99
343.562	1.87
343.933	1.76
344.303	2.03
344.674	2.14
345.045	2.19
345.416	2.14
345.786	1.95
346.157	1.96
346.527	2.03
346.898	1.88
347.268	2.14
347.639	2.03
348.009	2.08
348.38	2.12
348.75	2.27
349.12	2.18
349.49	2.03
349.861	2.18
350.231	2.4
350.601	1.82
350.971	2.01
351.341	2.06
351.711	2.01
352.081	1.48
352.45	1.54
352.82	1.41
353.19	1.88
353.56	1.88
353.929	2.14
354.299	2.14
354.669	2.59
355.038	2.1
355.408	1.81
355.777	2.31
356.147	2.05
356.516	1.55
356.885	1.93
357.254	1.81
357.624	1.78
357.993	1.98
358.362	2.24
358.731	2.47
359.1	1.94
359.469	2.43
359.838	2.37
360.207	2.03
360.576	2.28
360.945	2.16
361.314	1.9
361.682	1.78
362.051	2.23
362.42	2.21
362.788	2.33
363.157	2.16
363.525	2.43
363.894	2.17
364.262	2.24
364.631	2.54
364.999	2.17
365.367	2.08
365.735	1.88
366.104	2.13
366.472	2.04
366.84	2.05
367.208	2.29
367.576	2.05
367.944	2.26
368.312	1.87
368.68	2.47
369.048	2.24
369.416	1.96
369.783	2.15
370.151	2.49
370.519	2.87
370.886	1.87
371.254	2.58
371.621	2.25
371.989	2.75
372.356	2.42
372.724	2.16
373.091	2.14
373.458	2.32
373.826	2.09
374.193	2.37
374.56	2.2
374.927	2.15
375.294	2.26
375.661	2.29
376.028	2.23
376.395	2.36
376.762	2.14
377.129	2.02
377.496	2.46
377.863	2.49
378.229	2.57
378.596	2.48
378.963	2.43
379.329	2.5
379.696	2.15
380.062	2.44
380.429	2.19
380.795	2.37
381.161	2.19
381.528	2.01
381.894	2
382.26	2.44
382.626	2.6
382.993	2.74
383.359	2.03
383.725	2.42
384.091	2.24
384.457	2.23
384.823	2.58
385.188	2.46
385.554	2.52
385.92	2.35
386.286	2.52
386.651	2.32
387.017	2.66
387.383	2.22
387.748	2.65
388.114	2.68
388.479	2.44
388.845	2.07
389.21	2.73
389.575	2.36
389.94	2.67
390.306	2.78
390.671	2.9
391.036	2.55
391.401	2.51
391.766	2.56
392.131	2.53
392.496	2.59
392.861	2.54
393.226	2.45
393.591	2.7
393.956	2.54
394.32	2.64
394.685	2.74
395.05	2.46
395.414	2.62
395.779	2.96
396.143	2.5
396.508	2.5
396.872	2.58
397.236	2.94
397.601	2.73
397.965	2.59
398.329	2.6
398.694	2.46
399.058	2.77
399.422	2.47
399.786	2.63
400.15	2.5
400.514	2.75
400.878	2.66
401.242	2.74
401.605	2.46
401.969	2.4
402.333	2.59
402.697	2.87
403.06	2.58
403.424	2.68
403.787	2.85
404.151	2.78
404.514	2.74
404.878	2.48
405.241	2.57
405.604	2.67
405.968	2.69
406.331	2.76
406.694	2.73
407.057	2.61
407.42	2.79
407.783	2.73
408.146	2.91
408.509	2.73
408.872	2.63
409.235	2.96
409.598	2.75
409.961	2.99
410.323	2.55
410.686	2.63
411.049	2.96
411.411	2.66
411.774	2.67
412.136	2.71
412.499	3.02
412.861	2.49
413.223	2.68
413.586	2.63
413.948	2.9
414.31	2.71
414.672	2.65
415.035	2.92
415.397	2.64
415.759	2.44
416.121	2.88
416.483	2.85
416.845	2.8
417.206	2.89
417.568	2.61
417.93	2.81
418.292	2.74
418.653	2.73
419.015	2.81
419.377	2.63
419.738	2.74
420.1	2.85
420.461	2.76
420.822	2.8
421.184	2.78
421.545	2.9
421.906	2.83
422.267	2.75
422.629	2.79
422.99	2.84
423.351	2.79
423.712	2.9
424.073	2.85
424.434	2.84
424.795	2.79
425.155	2.76
425.516	2.8
425.877	2.91
426.238	2.86
426.598	2.84
426.959	2.92
427.32	2.83
427.68	2.96
428.041	3.01
428.401	2.81
428.761	2.87
429.122	2.82
429.482	2.89
429.842	2.97
430.202	3.03
430.563	2.91
430.923	2.94
431.283	3.02
431.643	3.06
432.003	2.98
432.363	3.08
432.722	3.13
433.082	2.85
433.442	3.1
433.802	3
434.161	3.06
434.521	3.01
434.881	3.04
435.24	3.06
435.6	3.05
435.959	3.13
436.319	3.06
436.678	3.14
437.037	3.05
437.396	2.93
437.756	3.01
438.115	2.97
438.474	3.32
438.833	3
439.192	3.06
439.551	2.87
439.91	3.04
440.269	3.01
440.628	3.04
440.987	3.11
441.345	3.13
441.704	2.98
442.063	3.05
442.421	3.09
442.78	3.14
443.138	3.16
443.497	3.05
443.855	3.12
444.214	2.92
444.572	3.25
444.93	3.13
445.288	3.12
445.647	2.92
446.005	3.16
446.363	3.13
446.721	3.11
447.079	3.1
447.437	3.14
447.795	3.13
448.153	3.16
448.51	3.18
448.868	3.08
449.226	3.13
449.584	3.14
449.941	3.06
450.299	3.11
450.656	3.09
451.014	3.17
451.371	3.27
451.729	3.22
452.086	3.12
452.443	3.39
452.801	3.39
453.158	3.26
453.515	3.19
453.872	3.27
454.229	3.25
454.586	3.08
454.943	3.29
455.3	3.32
455.657	3.21
456.014	3.21
456.371	3.32
456.727	3.52
457.084	3.56
457.441	3.26
457.797	3.2
458.154	3.22
458.51	3.11
458.867	3.29
459.223	3.21
459.58	3.34
459.936	3.32
460.292	3.32
460.648	3.31
461.005	3.38
461.361	3.28
461.717	3.23
462.073	3.34
462.429	3.37
462.785	3.44
463.141	3.46
463.496	3.38
463.852	3.41
464.208	3.38
464.564	3.27
464.919	3.38
465.275	3.46
465.631	3.5
465.986	3.46
466.342	3.37
466.697	3.35
467.052	3.54
467.408	3.41
467.763	3.29
468.118	3.27
468.473	3.58
468.829	3.32
469.184	3.45
469.539	3.29
469.894	3.44
470.249	3.58
470.603	3.47
470.958	3.63
471.313	3.53
471.668	3.54
472.023	3.4
472.377	3.52
472.732	3.61
473.086	3.51
473.441	3.48
473.795	3.76
474.15	3.37
474.504	3.45
474.859	3.37
475.213	3.63
475.567	3.44
475.921	3.53
476.275	3.62
476.63	3.71
476.984	3.39
477.338	3.69
477.692	3.57
478.045	3.65
478.399	3.61
478.753	3.54
479.107	3.51
479.461	3.62
479.814	3.67
480.168	3.58
480.521	3.66
480.875	3.68
481.228	3.58
481.582	3.59
481.935	3.8
482.289	3.72
482.642	3.75
482.995	3.59
483.348	3.56
483.701	3.64
484.055	3.63
484.408	3.6
484.761	3.53
485.114	3.48
485.466	3.49
485.819	3.46
486.172	3.48
486.525	3.48
486.878	3.56
487.23	3.56
487.583	3.59
487.936	3.62
488.288	3.59
488.641	3.58
488.993	3.59
489.345	3.53
489.698	3.57
490.05	3.54
490.402	3.56
490.754	3.6
491.107	3.56
491.459	3.68
491.811	3.75
492.163	3.77
492.515	3.59
492.866	3.65
493.218	3.63
493.57	3.73
493.922	3.7
494.274	3.75
494.625	3.81
494.977	3.81
495.328	3.81
495.68	3.78
496.031	3.83
496.383	3.92
496.734	3.8
497.086	3.95
497.437	3.87
497.788	3.84
498.139	3.9
498.49	3.89
498.842	3.82
499.193	3.78
499.544	3.87
499.894	3.87
500.245	3.98
500.596	3.98
500.947	3.9
501.298	3.91
501.648	3.84
501.999	3.93
502.35	3.92
502.7	3.94
503.051	3.92
503.401	4.05
503.752	3.81
504.102	4.03
504.452	3.81
504.803	3.91
505.153	4.07
505.503	4
505.853	4.09
506.203	4.15
506.553	3.97
506.903	3.98
507.253	3.89
507.603	4.09
507.953	4.1
508.303	4
508.652	3.89
509.002	4.06
509.352	4.14
509.701	3.97
510.051	4.2
510.4	4.17
510.75	4.11
511.099	4.02
511.449	4.18
511.798	4.04
512.147	4.11
512.496	4.18
512.846	4.14
513.195	4.14
513.544	4.24
513.893	4.17
514.242	4.07
514.591	4.12
514.939	4.25
515.288	4.25
515.637	4.18
515.986	4.27
516.334	4.21
516.683	4.25
517.032	4.22
517.38	4.16
517.729	4.26
518.077	4.29
518.426	4.34
518.774	4.18
519.122	4.33
519.47	4.25
519.819	4.27
520.167	4.27
520.515	4.25
520.863	4.22
521.211	4.21
521.559	4.24
521.907	4.3
522.255	4.28
522.602	4.39
522.95	4.4
523.298	4.45
523.645	4.41
523.993	4.37
524.341	4.39
524.688	4.26
525.036	4.26
525.383	4.59
525.73	4.35
526.078	4.47
526.425	4.42
526.772	4.37
527.119	4.48
527.466	4.47
527.814	4.42
528.161	4.51
528.508	4.53
528.854	4.47
529.201	4.35
529.548	4.38
529.895	4.33
530.242	4.36
530.588	4.34
530.935	4.35
531.282	4.35
531.628	4.41
531.975	4.44
532.321	4.42
532.667	4.59
533.014	4.6
533.36	4.52
533.706	4.66
534.052	4.56
534.399	4.61
534.745	4.47
535.091	4.53
535.437	4.54
535.783	4.55
536.129	4.6
536.474	4.66
536.82	4.74
537.166	4.6
537.512	4.65
537.857	4.68
538.203	4.68
538.549	4.68
538.894	4.67
539.239	4.77
539.585	4.74
539.93	4.9
540.276	4.79
540.621	4.96
540.966	4.89
541.311	4.85
541.656	4.83
542.001	4.81
542.346	4.81
542.691	4.73
543.036	4.78
543.381	4.75
543.726	4.86
544.071	4.82
544.415	4.84
544.76	4.85
545.105	4.92
545.449	4.97
545.794	5
546.138	4.92
546.483	4.99
546.827	5
547.171	5.05
547.516	5.17
547.86	5.05
548.204	4.98
548.548	4.92
548.892	5.15
549.236	5.15
549.58	5.14
549.924	5.14
550.268	5.15
550.612	5.21
550.956	5.31
551.3	5.36
551.643	5.13
551.987	5.34
552.33	5.41
552.674	5.28
553.017	5.47
553.361	5.48
553.704	5.33
554.048	5.41
554.391	5.39
554.734	5.24
555.077	5.41
555.42	5.38
555.764	5.32
556.107	5.36
556.45	5.57
556.793	5.59
557.135	5.55
557.478	5.55
557.821	5.49
558.164	5.49
558.507	5.46
558.849	5.83
559.192	5.53
559.534	5.56
559.877	5.61
560.219	5.62
560.562	5.61
560.904	5.93
561.246	5.61
561.589	5.79
561.931	5.68
562.273	5.79
562.615	5.62
562.957	5.75
563.299	5.73
563.641	5.94
563.983	5.7
564.325	5.96
564.667	5.85
565.008	5.72
565.35	5.78
565.692	5.91
566.033	5.86
566.375	5.83
566.716	5.81
567.058	5.89
567.399	5.93
567.741	5.91
568.082	6.08
568.423	6.04
568.764	5.94
569.105	6.01
569.447	6.07
569.788	5.84
570.129	6.15
570.47	6.03
570.811	6.15
571.151	6.19
571.492	6.19
571.833	6.18
572.174	6.26
572.514	6.18
572.855	6.27
573.195	6.11
573.536	6.29
573.876	6.21
574.217	6.31
574.557	6.11
574.898	6.31
575.238	6.52
575.578	6.26
575.918	6.26
576.258	6.44
576.598	6.29
576.938	6.38
577.278	6.5
577.618	6.45
577.958	6.53
578.298	6.52
578.638	6.32
578.977	6.38
579.317	6.76
579.657	6.51
579.996	6.88
580.336	6.67
580.675	6.64
581.014	6.63
581.354	6.39
581.693	6.81
582.032	6.99
582.372	6.94
582.711	6.92
583.05	6.82
583.389	6.95
583.728	6.95
584.067	6.83
584.406	7.06
584.745	6.74
585.083	6.87
585.422	6.9
585.761	7.22
586.1	7.03
586.438	6.86
586.777	7.12
587.115	7.11
587.454	6.82
587.792	7.21
588.13	7.01
588.469	7.09
588.807	7.15
589.145	7.13
589.483	6.94
589.821	7.23
590.159	7.29
590.497	7.13
590.835	7.08
591.173	7.43
591.511	7.46
591.849	7.42
592.187	7.02
592.524	7.35
592.862	7.31
593.2	7.48
593.537	7.36
593.875	7.34
594.212	7.41
594.55	7.36
594.887	7.68
595.224	7.51
595.561	7.51
595.899	7.51
596.236	7.49
596.573	7.59
596.91	7.61
597.247	7.69
597.584	7.61
597.921	7.64
598.258	7.62
598.594	7.56
598.931	7.69
599.268	7.5
599.604	7.78
599.941	8.08
600.277	7.77
600.614	7.86
600.95	7.96
601.287	7.82
601.623	7.77
601.959	8.28
602.296	7.86
602.632	7.9
602.968	8.06
603.304	7.93
603.64	8.06
603.976	7.93
604.312	7.97
604.648	8.21
604.984	8
605.319	8.06
605.655	8.12
605.991	8.06
606.326	8.17
606.662	8.02
606.998	8.31
607.333	8.17
607.668	8.29
608.004	8.29
608.339	8.37
608.674	8.06
609.01	8.63
609.345	8.48
609.68	8.11
610.015	8.59
610.35	8.36
610.685	8.08
611.02	8.38
611.355	8.49
611.689	8.61
612.024	8.63
612.359	8.7
612.694	8.55
613.028	8.37
613.363	8.66
613.697	8.81
614.032	8.83
614.366	8.67
614.7	8.87
615.035	8.62
615.369	9.02
615.703	9.08
616.037	8.83
616.371	8.74
616.705	8.81
617.039	8.82
617.373	8.99
617.707	9.17
618.041	8.71
618.375	8.59
618.709	9.22
619.042	9.09
619.376	9.12
619.71	8.91
620.043	9.48
620.377	9.3
620.71	9.07
621.043	9.28
621.377	9.6
621.71	9.43
622.043	9.38
622.376	9.17
622.709	9.62
623.043	9.35
623.376	9.19
623.709	9.6
624.041	9.55
624.374	9.55
624.707	9.47
625.04	9.63
625.373	9.73
625.705	9.6
626.038	9.38
626.37	9.22
626.703	9.42
627.035	9.72
627.368	10.01
627.7	9.69
628.032	9.68
628.365	10.02
628.697	10.01
629.029	9.86
629.361	10.12
629.693	9.72
630.025	9.99
630.357	9.98
630.689	10
631.021	10.25
631.353	9.92
631.684	9.68
632.016	9.68
632.348	9.77
632.679	10.33
633.011	9.9
633.342	10.18
633.674	9.96
634.005	9.7
634.336	10.13
634.668	10.24
634.999	9.93
635.33	10.12
635.661	9.92
635.992	10.13
636.323	10.41
636.654	10.2
636.985	10.19
637.316	9.95
637.647	10.52
637.977	10.33
638.308	10.6
638.639	10.28
638.969	10.6
639.3	10.52
639.63	10.59
639.961	10.53
640.291	10.34
640.622	10.71
640.952	10.62
641.282	10.63
641.612	10.46
641.943	10.22
642.273	10.68
642.603	10.95
642.933	11.25
643.263	10.95
643.592	10.82
643.922	11.24
644.252	10.96
644.582	11.25
644.911	10.73
645.241	10.87
645.571	10.82
645.9	11.11
646.23	10.74
646.559	10.81
646.888	11.34
647.218	11.12
647.547	10.83
647.876	11.42
648.205	10.67
648.534	10.99
648.863	11.42
649.192	11.33
649.521	11.42
649.85	11.33
650.179	11.04
650.508	11.39
650.837	11.86
651.165	11.5
651.494	11.37
651.822	11.39
652.151	11.65
652.479	11.71
652.808	11.62
653.136	11.45
653.465	11.27
653.793	11.45
654.121	11.68
654.449	11.29
654.777	11.42
655.105	11.65
655.433	11.44
655.761	11.43
656.089	10.96
656.417	11.74
656.745	12.38
657.073	11.69
657.4	12.12
657.728	11.81
658.056	11.86
658.383	12.32
658.711	11.76
659.038	12.22
659.365	11.57
659.693	11.79
660.02	12.02
660.347	12.17
660.674	11.84
661.001	12.26
661.329	11.79
661.656	11.65
661.982	12.04
662.309	12.19
662.636	12.24
662.963	12.53
663.29	12.62
663.616	12.12
663.943	12.52
664.27	12.14
664.596	11.91
664.923	12.74
665.249	13.27
665.576	12.56
665.902	11.72
666.228	13.25
666.554	12.64
666.881	12.34
667.207	12.57
667.533	12.61
667.859	12.27
668.185	12.72
668.511	12.91
668.837	12.84
669.162	12.31
669.488	12.33
669.814	12.62
670.139	12.12
670.465	13.42
670.791	12.95
671.116	12.3
671.442	12.17
671.767	12.73
672.092	12.75
672.418	12.66
672.743	12.88
673.068	12.88
673.393	13.21
673.718	13.18
674.043	12.79
674.368	13.05
674.693	13.22
675.018	13.51
675.343	13.37
675.667	12.77
675.992	13.21
676.317	12.75
676.641	14.29
676.966	13.28
677.29	12.78
677.615	12.72
677.939	13.31
678.264	13.15
678.588	13.48
678.912	13.37
679.236	13.22
679.56	13.36
679.885	13.1
680.209	14
680.532	13.4
680.856	14.08
681.18	13.94
681.504	13.42
681.828	13.25
682.152	13.31
682.475	13.64
682.799	13.52
683.122	13.59
683.446	12.67
683.769	13.71
684.093	14.29
684.416	13.41
684.739	13.95
685.062	13.44
685.386	13.5
685.709	13.85
686.032	14.15
686.355	14.04
686.678	14.33
687.001	13.94
687.324	14.07
687.646	13.76
687.969	14.35
688.292	13.41
688.614	13.89
688.937	14.51
689.26	14.31
689.582	14.53
689.904	14.11
690.227	14.13
690.549	14.57
690.871	14.56
691.194	14.43
691.516	14.15
691.838	15.27
692.16	13.66
692.482	14.82
692.804	14.49
693.126	13.55
693.448	13.93
693.769	14.25
694.091	14.57
694.413	14.04
694.735	14.04
695.056	14.95
695.378	13.95
695.699	14.22
696.021	14.43
696.342	14.66
696.663	15.06
696.984	13.94
697.306	14.65
697.627	14.91
697.948	14.68
698.269	14.78
698.59	14.5
698.911	14.09
699.232	14.67
699.553	15.6
699.873	14.68
700.194	15.42
700.515	14.97
700.835	15.14
701.156	15.39
701.477	15.01
701.797	14.9
702.117	15.1
702.438	15.89
702.758	14.7
703.078	15.47
703.398	14.35
703.719	14.92
704.039	15.76
704.359	16.05
704.679	15.48
704.999	15.41
705.319	15.18
705.638	14.99
705.958	15.86
706.278	15.44
706.597	16.13
706.917	14.56
707.237	15.78
707.556	16.09
707.876	15.89
708.195	15.15
708.514	15.99
708.834	16.07
709.153	14.83
709.472	15.78
709.791	15.14
710.11	16.33
710.429	15.4
710.748	16.44
711.067	15.6
711.386	15.98
711.705	17
712.023	15.54
712.342	15.23
712.661	16.87
712.979	15.9
713.298	16.38
713.616	15.6
713.935	16.05
714.253	15.93
714.572	15.97
714.89	16.4
715.208	16.61
715.526	16.46
715.844	16.58
716.162	16.21
716.48	16.19
716.798	16.62
717.116	15.67
717.434	15.91
717.752	15.97
718.069	15.72
718.387	15.84
718.705	16.48
719.022	16.17
719.34	15.97
719.657	16.03
719.975	16.19
720.292	15.87
720.609	14.4
720.927	16.78
721.244	16.69
721.561	15.3
721.878	17.3
722.195	16.98
722.512	18.1
722.829	16.73
723.146	16.48
723.463	15.83
723.779	14.66
724.096	15.42
724.413	17.79
724.729	17.16
725.046	16.74
725.362	16.96
725.679	16.3
725.995	15.27
726.311	17.28
726.628	18.04
726.944	17.76
727.26	16.19
727.576	17.05
727.892	17.04
728.208	17.08
728.524	18.33
728.84	16.68
729.156	16.4
729.472	16.16
729.787	16.42
730.103	16.73
730.419	16.22
730.734	15.8
731.05	16
731.365	18.8
731.681	17.69
731.996	18.42
732.311	16.75
732.626	18.76
732.942	18.09
733.257	16.89
733.572	17.41
733.887	17.73
734.202	18.7
734.517	17.96
734.832	17.22
735.146	17.8
735.461	18.41
735.776	17.85
736.091	18.01
736.405	17.48
736.72	15.78
737.034	18.29
737.349	17.76
737.663	18.5
737.977	20.01
738.292	16.94
738.606	18.16
738.92	18.4
739.234	17.23
739.548	17.45
739.862	17.82
740.176	17.17
740.49	17.86
740.804	17.33
741.117	17.2
741.431	17.61
741.745	17.17
742.058	17.34
742.372	16.84
742.685	18.37
742.999	16.94
743.312	18.12
743.626	19.15
743.939	17.44
744.252	17.85
744.565	18.97
744.878	15.43
745.191	18.94
745.505	16.95
745.817	18.22
746.13	19.01
746.443	17.35
746.756	17.19
747.069	20.55
747.381	18.15
747.694	17.53
748.007	18.54
748.319	19.72
748.632	18.59
748.944	18.23
749.256	18.83
749.569	18.11
749.881	16.4
750.193	18.65
750.505	18.86
750.817	16.81
751.129	19.11
751.441	19.54
751.753	19.24
752.065	17.92
752.377	19.58
752.689	16.93
753	20.8
753.312	19.71
753.624	17.23
753.935	17.57
754.247	18.33
754.558	18.69
754.869	19
755.181	17.91
755.492	18.53
755.803	19.91
756.114	18.48
756.425	16.91
756.736	18.67
757.047	19.13
757.358	18.46
757.669	19.62
757.98	16.22
758.291	20.49
758.601	18.7
758.912	18.05
759.223	16.87
759.533	19.17
759.844	18.97
760.154	19.19
760.464	20.97
760.775	20.38
761.085	19.24
761.395	18.37
761.705	19.62
762.016	19.51
762.326	20.54
762.636	19.79
762.945	18.91
763.255	17.69
763.565	19.88
763.875	19.42
764.185	19.51
764.494	18.78
764.804	19.15
765.113	20.33
765.423	19.38
765.732	20.25
766.042	20.45
766.351	21.62
766.66	20.57
766.97	19.09
767.279	19.87
767.588	18.3
767.897	18.33
768.206	19.7
768.515	19.68
768.824	21.39
769.133	18.11
769.441	19.25
769.75	17.31
770.059	17.3
770.367	20.6
770.676	17.35
770.984	17.94
771.293	18.63
771.601	15.94
771.91	20.34
772.218	21.13
772.526	16.91
772.834	18.03
773.142	17.16
773.45	19.53
773.758	21.45
774.066	18.84
774.374	22.34
774.682	18.69
774.99	19.69
775.298	17.87
775.605	18.99
775.913	18.76
776.22	15.49
776.528	19.56
776.835	20.89
777.143	20.13
777.45	15.41
777.757	19.67
778.065	16.13
778.372	17.05
778.679	21.48
778.986	23.9
779.293	19.17
779.6	20.89
779.907	21.57
780.214	18.87
780.52	18.45
780.827	23.8
781.134	22.16
781.44	22.63
781.747	21.73
782.053	19.5
782.36	21.04
782.666	24.08
782.973	19.03
783.279	21
783.585	22.05
783.891	19.94
784.197	19
784.503	16.54
784.809	21.4
785.115	21.38
785.421	20.7
785.727	20.07
786.033	18.34
786.339	25.51
786.644	20.53
786.95	18.19
787.255	16.22
787.561	18
787.866	20.82
788.172	22.09
788.477	22.9
788.782	17.58
789.088	15.93
789.393	18.55
789.698	19
790.003	19.66
790.308	22.01
790.613	16.85
790.918	19.38
791.223	20.9
791.527	23.65
791.832	20.89
792.137	18.85
792.441	18.01
792.746	20.96
793.05	20.77
793.355	20.78
793.659	19.83
793.963	20.01
794.268	21.47
794.572	17.68
794.876	20.72
795.18	21.61
795.484	21.73
795.788	21.99
796.092	15.67
796.396	13.29
796.7	19.11
797.004	15.3
797.307	18.5
797.611	22.5
797.915	17.17
798.218	16.08
798.522	17.55
798.825	22.65
799.128	20.03
799.432	20.6
799.735	16.81
800.038	21.28
800.341	18.86
800.644	17.05
800.947	17.7
801.25	19.05
801.553	22.1
801.856	25.35
802.159	16.97
802.462	17.67
802.764	24.07
803.067	21.28
803.37	20.08
803.672	20.82
803.975	20.84
804.277	20.27
804.579	20.41
804.882	24.31
805.184	21.08
805.486	25.84
805.788	28.14
806.09	18.94
806.392	22.02
806.694	22.3
806.996	21.73
807.298	16.3
807.6	23.64
807.902	20.4
808.203	20.32
808.505	16.01
808.807	20.57
809.108	22.56
809.409	23.98
809.711	20.47
810.012	17.93
810.313	21.35
810.615	19.49
810.916	16.16
811.217	13.71
811.518	19.77
811.819	21.39
812.12	20.06
812.421	21.1
812.722	25.25
813.023	24.32
813.323	18.92
813.624	24.59
813.925	26.17
814.225	22.4
814.526	16.31
814.826	16.84
815.126	18.2
815.427	16.46
815.727	17.99
816.027	19.1
816.327	19.84
816.627	19.73
816.927	24.16
817.227	17.56
817.527	17.77
817.827	20.17
818.127	18.15
818.427	17.99
818.727	16.03
819.026	17.57
819.326	20.84
819.625	19.19
819.925	22.31
820.224	23.52
820.524	20.19
820.823	21.12
821.122	18.82
821.421	19.23
821.72	18.68
822.019	17.69
822.318	21.99
822.617	19.74
822.916	17.77
823.215	20.71
823.514	25.38
823.813	23.33
824.111	21.69
824.41	24.26
824.709	24.37
825.007	24.35
825.306	24.68
825.604	24.28
825.902	24.86
826.201	24.28
826.499	25.06
826.797	24.29
827.095	24.86
827.393	27.08
827.691	27.12
827.989	24.16
828.287	26.01
828.585	23.41
828.882	21.41
829.18	21.37
829.478	24.94
829.775	24.79
830.073	24.7
830.37	23.36
830.668	26.33
830.965	23.22
831.263	23.71
831.56	24.11
831.857	24.73
832.154	21.13
832.451	26.05
832.748	26.62
833.045	23.65
833.342	22.4
833.639	24.36
833.936	18.69
834.232	20.94
834.529	21.86
834.826	25.28
835.122	16.67
835.419	26.18
835.715	16.91
836.012	21.77
836.308	24.65
836.604	23.11
836.901	21.05
837.197	24.46
837.493	24.54
837.789	23.38
838.085	17.21
838.381	23.07
838.677	25.1
838.972	22.9
839.268	21.35
839.564	21.17
839.86	22.38
840.155	27.98
840.451	24.29
840.746	17.66
841.042	21.95
841.337	16.96
841.632	14.58
841.928	23.64
842.223	17.49
842.518	20.23
842.813	19.79
843.108	26.39
843.403	22.12
843.698	19.53
843.993	27.01
844.287	25.08
844.582	21.73
844.877	27.95
845.171	23.44
845.466	16.64
845.761	19.98
846.055	22.42
846.349	11.76
846.644	11.18
846.938	34.41
847.232	20.11
847.526	3.11
847.82	20.2
848.114	31.04
848.408	17.59
848.702	24.12
848.996	31.35
849.29	40.5
849.584	16.08
849.877	11.61
850.171	14.76
850.465	7.34
850.758	-3.81
851.052	2.91
851.345	21.71
851.638	15.72
851.932	17.92
852.225	21.52
852.518	3.25
852.811	-8.08
853.104	29.67
853.397	23.21
853.69	7.73
853.983	20.01
854.276	24.6
854.569	-2.62
854.861	13.58
855.154	24.27
855.447	14.31
855.739	-13.22
856.032	32.18
856.324	10.96
856.616	21.44
856.909	-3.99
857.201	-4.59
857.493	19.92
857.785	19.42
858.077	-11.32
858.369	34.83
858.661	11.23
858.953	29.19
859.245	10.9
859.537	-39.42
859.829	4.05
860.12	14.97
860.412	11.28
860.703	11.52
860.995	17.57
861.286	-30.55
861.578	-1.39
861.869	33.04
862.16	31.04
862.452	11.28
862.743	1.51
863.034	20.79
863.325	4.04
863.616	17.17
863.907	18.93
864.198	-3.36
864.488	11.29
864.779	-1.85
865.07	14.13
865.36	20.04
865.651	28.99
865.941	18.2
866.232	21.34
866.522	19.86
866.813	16.6
867.103	0.13
867.393	-3.76
867.683	-1.44
867.973	18.05
868.263	7.58
868.553	14.02
868.843	28.41
869.133	3.37
869.423	-8.76
869.713	-13.76
870.002	13.73
870.292	-14.5
870.582	12.51
870.871	44.06
871.161	32.35
871.45	-4.04
871.739	12.3
872.029	1.57
872.318	22.69
872.607	25.68
872.896	7.13
873.185	31.46
873.474	-44.66
873.763	9.83
874.052	7.06
874.341	-12.01
874.63	8.89
874.918	17.23
875.207	-13.83
875.496	14.87
875.784	18.83
876.073	-7.96
876.361	20.45
876.649	-1.58
876.938	12.45
877.226	16.71
877.514	41.49
877.802	-32.42
878.09	-3.04
878.378	18.87
878.666	25
878.954	15.66
879.242	4.7
879.53	28.65
879.817	-22.29
880.105	14.33
880.392	-6.14
880.68	30.26
880.967	18.99
881.255	27.26
881.542	-22.14
881.83	10.63
882.117	7.81
882.404	-24.38
882.691	15.83
882.978	9.13
883.265	9.88
883.552	20.33
883.839	31.98
884.126	20.97
884.413	17.37
884.699	32.8
884.986	26.32
885.273	29.53
885.559	29.53
885.846	29.53
