Data from 21-5_forehead_Reflection__3__13.txt Node

Date: Thu Dec 15 16:30:27 CST 2022
User: ToomeyLab
Spectrometer: FLMS14357
Trigger mode: 0
Integration Time (sec): 1.000000E-2
Scans to average: 100
Electric dark correction enabled: true
Nonlinearity correction enabled: false
Boxcar width: 0
XAxis mode: Wavelengths
Number of Pixels in Spectrum: 2048
>>>>>Begin Spectral Data<<<<<
189.047	-3010
189.435	-3010
189.823	-3010
190.211	-141.49
190.599	816.02
190.987	121.85
191.375	32.51
191.763	282.81
192.151	42.37
192.538	16.17
192.926	585.9
193.314	52.25
193.702	-987.42
194.089	92.31
194.477	16.9
194.864	-4.11
195.252	66.32
195.639	137.91
196.027	51.87
196.414	28.87
196.801	4.62
197.189	45.31
197.576	97.43
197.963	33.09
198.351	12.5
198.738	12.91
199.125	-1.34
199.512	32.13
199.899	0.84
200.286	-8.52
200.673	22.7
201.06	1.86
201.447	36.93
201.833	6.41
202.22	10.64
202.607	4.81
202.994	7.1
203.38	6.63
203.767	7.16
204.154	8.8
204.54	-1.21
204.927	-0.59
205.313	16.06
205.699	1.25
206.086	22.62
206.472	26.09
206.858	-9.41
207.245	6.6
207.631	40.75
208.017	36.39
208.403	-51.42
208.789	31.61
209.175	44.53
209.561	-17.24
209.947	-0.76
210.333	19.7
210.719	37.8
211.105	47.09
211.491	22.88
211.876	12.65
212.262	6.8
212.648	21.35
213.034	20.67
213.419	-2.21
213.805	5.36
214.19	24.84
214.576	24.71
214.961	30.01
215.346	11.58
215.732	-5.76
216.117	17.15
216.502	2.57
216.888	11.08
217.273	25.44
217.658	1.12
218.043	-11.41
218.428	7.28
218.813	23.98
219.198	-4.97
219.583	-5.04
219.968	2.74
220.353	10.54
220.738	4.4
221.122	19.31
221.507	-5.75
221.892	-12.07
222.276	-15
222.661	2.52
223.046	-1.76
223.43	15.06
223.815	5.1
224.199	7.27
224.583	4.83
224.968	0.9
225.352	-1.33
225.736	7.63
226.121	6.66
226.505	-6.36
226.889	0.18
227.273	-3.92
227.657	2.61
228.041	1.72
228.425	-1.99
228.809	0.66
229.193	0.53
229.577	1.47
229.961	0.87
230.344	1.12
230.728	1.64
231.112	0.77
231.495	-0.29
231.879	1.79
232.263	1.45
232.646	1.29
233.03	3
233.413	1.56
233.797	0.99
234.18	0.92
234.563	1.93
234.946	1.23
235.33	0.62
235.713	1.28
236.096	1.69
236.479	3.75
236.862	1.27
237.245	1.03
237.628	2.01
238.011	1.92
238.394	0.16
238.777	1.61
239.16	3.08
239.543	3.62
239.925	0.93
240.308	1.55
240.691	1.65
241.073	0.9
241.456	1.91
241.838	1.11
242.221	2.12
242.603	1.41
242.986	1.39
243.368	0.94
243.75	1.17
244.133	1.59
244.515	0.97
244.897	0.94
245.279	0.93
245.661	1.04
246.043	1.3
246.425	1.27
246.807	1.11
247.189	1.81
247.571	0.92
247.953	0.96
248.335	1.1
248.717	1.16
249.098	1.08
249.48	0.91
249.862	1.28
250.243	1.07
250.625	1.3
251.006	2.04
251.388	1.49
251.769	0.56
252.151	1.97
252.532	0.97
252.913	0.59
253.295	1.16
253.676	1.21
254.057	1.32
254.438	1.24
254.819	1.32
255.2	2.28
255.581	2.36
255.962	2.21
256.343	2
256.724	1.5
257.105	1.96
257.486	0.78
257.867	0.82
258.247	1.83
258.628	1.74
259.009	1.02
259.389	0.58
259.77	1.19
260.15	1.6
260.531	1.34
260.911	1.23
261.292	1.08
261.672	1.14
262.052	1.19
262.432	1.07
262.813	1.3
263.193	1.34
263.573	1.2
263.953	1.44
264.333	1.14
264.713	1.54
265.093	1.67
265.473	0.98
265.853	1.45
266.233	1.32
266.612	1.43
266.992	1.01
267.372	1.68
267.752	1.54
268.131	1.12
268.511	1.18
268.89	2.09
269.27	0.92
269.649	0.97
270.029	1.05
270.408	1.3
270.787	1.99
271.167	1.39
271.546	1.5
271.925	1.07
272.304	0.72
272.683	1.25
273.062	1.26
273.441	0.88
273.82	1.04
274.199	1.01
274.578	1.27
274.957	1.16
275.336	1.51
275.715	1.84
276.093	1.36
276.472	0.85
276.851	1.03
277.229	1.23
277.608	1.06
277.986	1.34
278.365	1.69
278.743	1.08
279.122	0.8
279.5	0.78
279.878	0.83
280.257	1.53
280.635	1.71
281.013	1.17
281.391	1.22
281.769	1.55
282.147	1.23
282.525	0.92
282.903	1.17
283.281	1.55
283.659	1.49
284.037	1.12
284.415	1.27
284.792	0.97
285.17	0.99
285.548	1.12
285.925	0.95
286.303	1.66
286.68	1.34
287.058	1.39
287.435	1.2
287.813	1.01
288.19	1.04
288.567	1.05
288.945	1.34
289.322	1.1
289.699	1.42
290.076	1.04
290.453	1.16
290.83	1.19
291.207	0.98
291.584	1.49
291.961	1.35
292.338	1.16
292.715	1.23
293.092	1.59
293.469	1.17
293.845	1.36
294.222	1.74
294.599	1.14
294.975	1.25
295.352	1.7
295.728	1.29
296.105	1.25
296.481	1.4
296.858	1.34
297.234	1.32
297.61	1.6
297.986	1.55
298.363	1.52
298.739	1.52
299.115	1.34
299.491	1.68
299.867	1.15
300.243	1.52
300.619	1.13
300.995	1.33
301.371	1.73
301.746	1.81
302.122	0.99
302.498	1.21
302.874	1.6
303.249	1.5
303.625	1.38
304	2.05
304.376	1.96
304.751	1.77
305.127	2
305.502	1.87
305.878	1.6
306.253	1.55
306.628	1.74
307.003	1.77
307.378	1.37
307.754	1.84
308.129	1.4
308.504	2.01
308.879	1.89
309.254	1.92
309.629	1.73
310.003	1.53
310.378	1.99
310.753	2.09
311.128	1.25
311.502	1.61
311.877	1.73
312.252	1.7
312.626	1.91
313.001	1.84
313.375	1.9
313.75	2.03
314.124	2.5
314.498	2.14
314.873	1.7
315.247	2.11
315.621	2.07
315.995	1.82
316.369	1.97
316.743	2.02
317.117	1.89
317.491	2.35
317.865	1.97
318.239	2.07
318.613	1.81
318.987	1.85
319.361	2.21
319.734	2.18
320.108	2.15
320.482	2.4
320.855	2.48
321.229	2.05
321.602	2.53
321.976	1.93
322.349	2.86
322.723	2.25
323.096	1.98
323.469	1.95
323.843	1.61
324.216	2.24
324.589	2.36
324.962	2.01
325.335	1.89
325.708	2.1
326.081	2.41
326.454	2.41
326.827	2.1
327.2	1.66
327.573	2.58
327.945	2.05
328.318	2.11
328.691	2.32
329.063	2.11
329.436	2.04
329.809	2.61
330.181	2.89
330.553	2.86
330.926	2.8
331.298	2.46
331.671	2.25
332.043	2.29
332.415	2.39
332.787	2.55
333.159	2.18
333.532	2.36
333.904	3.07
334.276	2.22
334.648	2.64
335.02	2.13
335.391	2.46
335.763	2.52
336.135	2.67
336.507	2.31
336.879	2.51
337.25	2.46
337.622	2.91
337.993	2.01
338.365	2.34
338.736	2.25
339.108	2.5
339.479	2.61
339.851	2.55
340.222	2.85
340.593	2.53
340.964	2.5
341.336	2.44
341.707	2.29
342.078	1.92
342.449	2.41
342.82	2.87
343.191	2.85
343.562	2.69
343.933	2.8
344.303	2.74
344.674	3.01
345.045	2.55
345.416	3.03
345.786	2.71
346.157	2.58
346.527	2.21
346.898	2.19
347.268	2.58
347.639	2.38
348.009	3.01
348.38	2.75
348.75	2.76
349.12	2.94
349.49	2.91
349.861	3
350.231	2.68
350.601	2.6
350.971	2.34
351.341	2.55
351.711	2.67
352.081	2.36
352.45	2.09
352.82	2.2
353.19	2.39
353.56	2.64
353.929	2.64
354.299	2.91
354.669	2.71
355.038	2.84
355.408	2.64
355.777	3.03
356.147	2.72
356.516	2.16
356.885	2.78
357.254	2.59
357.624	2.58
357.993	2.69
358.362	2.75
358.731	2.87
359.1	2.59
359.469	2.83
359.838	2.9
360.207	2.82
360.576	2.66
360.945	2.83
361.314	2.69
361.682	2.61
362.051	2.78
362.42	2.6
362.788	2.72
363.157	2.73
363.525	2.87
363.894	2.49
364.262	2.66
364.631	3.08
364.999	2.66
365.367	2.71
365.735	2.56
366.104	2.85
366.472	2.97
366.84	2.85
367.208	3.26
367.576	2.56
367.944	2.85
368.312	2.66
368.68	3.08
369.048	2.81
369.416	2.55
369.783	2.38
370.151	3.1
370.519	3.11
370.886	3.04
371.254	3.2
371.621	3.18
371.989	3.39
372.356	2.97
372.724	3.02
373.091	2.83
373.458	2.75
373.826	3.08
374.193	3.05
374.56	3.33
374.927	2.81
375.294	2.95
375.661	3.01
376.028	2.82
376.395	2.88
376.762	2.77
377.129	2.93
377.496	2.86
377.863	3.06
378.229	3.22
378.596	3.06
378.963	3.11
379.329	3.17
379.696	2.8
380.062	3.1
380.429	3.15
380.795	3.37
381.161	2.72
381.528	2.97
381.894	2.86
382.26	3.2
382.626	3.17
382.993	3.31
383.359	3.01
383.725	2.87
384.091	3.16
384.457	2.98
384.823	3.21
385.188	2.88
385.554	3.03
385.92	2.74
386.286	3.06
386.651	2.82
387.017	2.97
387.383	3.03
387.748	3.26
388.114	3.13
388.479	2.82
388.845	2.8
389.21	3.23
389.575	3.34
389.94	3.24
390.306	3.3
390.671	3.11
391.036	3.06
391.401	3.06
391.766	3.11
392.131	3.21
392.496	3.15
392.861	2.96
393.226	2.9
393.591	3.01
393.956	3.08
394.32	3.03
394.685	3.19
395.05	3.15
395.414	2.92
395.779	3.2
396.143	2.98
396.508	2.95
396.872	2.98
397.236	3.26
397.601	3.06
397.965	3.04
398.329	2.81
398.694	2.7
399.058	2.71
399.422	2.86
399.786	2.71
400.15	2.98
400.514	3.06
400.878	3.02
401.242	3.03
401.605	2.97
401.969	2.93
402.333	2.81
402.697	3.23
403.06	2.87
403.424	3.02
403.787	2.84
404.151	2.9
404.514	3.02
404.878	2.84
405.241	2.99
405.604	2.69
405.968	2.72
406.331	2.88
406.694	2.77
407.057	2.68
407.42	2.67
407.783	2.81
408.146	2.69
408.509	2.89
408.872	2.75
409.235	2.94
409.598	2.83
409.961	2.7
410.323	2.66
410.686	2.68
411.049	2.89
411.411	2.74
411.774	2.67
412.136	2.91
412.499	2.89
412.861	2.51
413.223	2.7
413.586	2.93
413.948	2.82
414.31	2.74
414.672	2.76
415.035	2.76
415.397	2.81
415.759	2.64
416.121	2.92
416.483	2.9
416.845	2.87
417.206	2.81
417.568	2.8
417.93	2.9
418.292	2.68
418.653	2.71
419.015	2.82
419.377	2.68
419.738	2.96
420.1	2.76
420.461	2.72
420.822	2.88
421.184	2.86
421.545	2.93
421.906	2.83
422.267	2.87
422.629	2.82
422.99	2.86
423.351	2.92
423.712	3.06
424.073	2.95
424.434	3.1
424.795	3
425.155	2.99
425.516	2.95
425.877	3.13
426.238	3.04
426.598	3.16
426.959	3.19
427.32	3.15
427.68	3.28
428.041	3.34
428.401	3.3
428.761	3.43
429.122	3.51
429.482	3.41
429.842	3.4
430.202	3.47
430.563	3.46
430.923	3.48
431.283	3.58
431.643	3.78
432.003	3.66
432.363	3.64
432.722	3.64
433.082	3.59
433.442	3.69
433.802	3.69
434.161	3.51
434.521	3.71
434.881	3.7
435.24	3.79
435.6	3.85
435.959	3.89
436.319	3.8
436.678	3.92
437.037	3.97
437.396	3.88
437.756	3.86
438.115	3.98
438.474	4.05
438.833	3.9
439.192	3.93
439.551	3.89
439.91	4.15
440.269	4.1
440.628	4.09
440.987	4.02
441.345	4.04
441.704	4.14
442.063	4.06
442.421	4.07
442.78	4.18
443.138	4.13
443.497	4.13
443.855	4.31
444.214	4.1
444.572	4.31
444.93	4.31
445.288	4.34
445.647	4.18
446.005	4.28
446.363	4.29
446.721	4.27
447.079	4.22
447.437	4.25
447.795	4.37
448.153	4.32
448.51	4.4
448.868	4.37
449.226	4.39
449.584	4.34
449.941	4.55
450.299	4.53
450.656	4.56
451.014	4.6
451.371	4.62
451.729	4.72
452.086	4.53
452.443	4.79
452.801	4.68
453.158	4.78
453.515	4.55
453.872	4.62
454.229	4.48
454.586	4.61
454.943	4.74
455.3	4.84
455.657	4.75
456.014	4.88
456.371	4.85
456.727	4.99
457.084	4.96
457.441	4.87
457.797	4.92
458.154	4.91
458.51	4.96
458.867	5.05
459.223	4.88
459.58	5.12
459.936	4.92
460.292	4.87
460.648	4.78
461.005	4.82
461.361	4.91
461.717	4.9
462.073	5.03
462.429	5.08
462.785	5.27
463.141	5.02
463.496	5.15
463.852	5.27
464.208	5.12
464.564	5.02
464.919	5.24
465.275	5.3
465.631	5.41
465.986	5.49
466.342	5.36
466.697	5.38
467.052	5.5
467.408	5.44
467.763	5.37
468.118	5.36
468.473	5.37
468.829	5.31
469.184	5.46
469.539	5.36
469.894	5.42
470.249	5.42
470.603	5.68
470.958	5.69
471.313	5.74
471.668	5.53
472.023	5.54
472.377	5.68
472.732	5.65
473.086	5.68
473.441	5.57
473.795	5.83
474.15	5.6
474.504	5.72
474.859	5.53
475.213	5.82
475.567	5.63
475.921	5.78
476.275	5.94
476.63	5.87
476.984	5.64
477.338	5.92
477.692	5.78
478.045	5.75
478.399	5.84
478.753	5.76
479.107	5.93
479.461	5.91
479.814	5.97
480.168	5.85
480.521	6.02
480.875	5.82
481.228	5.92
481.582	5.91
481.935	6.12
482.289	6.01
482.642	6.05
482.995	5.9
483.348	5.91
483.701	5.94
484.055	5.85
484.408	5.74
484.761	5.68
485.114	5.54
485.466	5.56
485.819	5.59
486.172	5.7
486.525	5.84
486.878	5.95
487.23	5.9
487.583	5.94
487.936	5.93
488.288	5.89
488.641	5.85
488.993	5.83
489.345	5.82
489.698	5.88
490.05	5.93
490.402	6.04
490.754	6.03
491.107	6.13
491.459	6.21
491.811	6.16
492.163	6.21
492.515	6.09
492.866	6.04
493.218	5.97
493.57	6.07
493.922	6.13
494.274	6.28
494.625	6.32
494.977	6.39
495.328	6.46
495.68	6.47
496.031	6.47
496.383	6.55
496.734	6.46
497.086	6.57
497.437	6.57
497.788	6.52
498.139	6.41
498.49	6.44
498.842	6.56
499.193	6.53
499.544	6.51
499.894	6.55
500.245	6.69
500.596	6.64
500.947	6.64
501.298	6.69
501.648	6.77
501.999	6.8
502.35	6.63
502.7	6.82
503.051	6.79
503.401	6.93
503.752	6.65
504.102	6.74
504.452	6.73
504.803	6.77
505.153	6.94
505.503	6.87
505.853	6.95
506.203	6.91
506.553	6.79
506.903	6.93
507.253	6.96
507.603	6.94
507.953	7.01
508.303	6.99
508.652	6.78
509.002	6.97
509.352	7.02
509.701	6.87
510.051	6.9
510.4	6.97
510.75	6.82
511.099	6.98
511.449	6.97
511.798	6.98
512.147	6.98
512.496	6.98
512.846	6.96
513.195	7.03
513.544	7.09
513.893	7.04
514.242	7.03
514.591	7.08
514.939	7.1
515.288	7.17
515.637	7.1
515.986	7.11
516.334	7.24
516.683	7.12
517.032	7.2
517.38	7.18
517.729	7.26
518.077	7.23
518.426	7.25
518.774	7.14
519.122	7.25
519.47	7.03
519.819	7.11
520.167	7.03
520.515	7.07
520.863	7.08
521.211	7.11
521.559	7.14
521.907	7.3
522.255	7.17
522.602	7.33
522.95	7.23
523.298	7.31
523.645	7.37
523.993	7.3
524.341	7.33
524.688	7.35
525.036	7.42
525.383	7.42
525.73	7.27
526.078	7.37
526.425	7.27
526.772	7.16
527.119	7.17
527.466	7.21
527.814	7.22
528.161	7.34
528.508	7.42
528.854	7.19
529.201	7.15
529.548	7.08
529.895	6.92
530.242	6.95
530.588	7.01
530.935	7.15
531.282	7.16
531.628	7.21
531.975	7.31
532.321	7.34
532.667	7.43
533.014	7.41
533.36	7.41
533.706	7.43
534.052	7.38
534.399	7.37
534.745	7.2
535.091	7.27
535.437	7.33
535.783	7.45
536.129	7.54
536.474	7.56
536.82	7.65
537.166	7.54
537.512	7.58
537.857	7.51
538.203	7.52
538.549	7.44
538.894	7.53
539.239	7.63
539.585	7.76
539.93	7.83
540.276	7.83
540.621	7.89
540.966	7.77
541.311	7.69
541.656	7.72
542.001	7.65
542.346	7.65
542.691	7.47
543.036	7.47
543.381	7.55
543.726	7.67
544.071	7.67
544.415	7.72
544.76	7.78
545.105	7.81
545.449	7.89
545.794	7.93
546.138	7.98
546.483	8
546.827	7.9
547.171	8.06
547.516	7.95
547.86	8.09
548.204	8.06
548.548	8.02
548.892	8.04
549.236	8.13
549.58	8.25
549.924	8.42
550.268	8.39
550.612	8.27
550.956	8.39
551.3	8.59
551.643	8.56
551.987	8.63
552.33	8.63
552.674	8.43
553.017	8.55
553.361	8.42
553.704	8.59
554.048	8.5
554.391	8.59
554.734	8.31
555.077	8.53
555.42	8.49
555.764	8.55
556.107	8.77
556.45	8.58
556.793	8.71
557.135	8.76
557.478	8.61
557.821	8.78
558.164	8.87
558.507	8.67
558.849	9.04
559.192	8.9
559.534	8.84
559.877	8.79
560.219	8.8
560.562	8.83
560.904	8.94
561.246	9
561.589	8.95
561.931	8.9
562.273	8.84
562.615	8.86
562.957	8.97
563.299	9.13
563.641	9.09
563.983	8.88
564.325	9.09
564.667	9.05
565.008	9.1
565.35	8.9
565.692	9.04
566.033	9.23
566.375	8.93
566.716	8.95
567.058	9.09
567.399	9.12
567.741	9.15
568.082	9.03
568.423	9
568.764	9.14
569.105	9.29
569.447	9.1
569.788	9.31
570.129	9.29
570.47	9.3
570.811	9.33
571.151	9.23
571.492	9.3
571.833	9.42
572.174	9.34
572.514	9.41
572.855	9.59
573.195	9.29
573.536	9.56
573.876	9.34
574.217	9.29
574.557	9.51
574.898	9.57
575.238	9.43
575.578	9.69
575.918	9.49
576.258	9.67
576.598	9.37
576.938	9.32
577.278	9.76
577.618	9.79
577.958	9.8
578.298	9.75
578.638	9.7
578.977	9.76
579.317	9.85
579.657	9.77
579.996	9.89
580.336	9.89
580.675	9.88
581.014	10.08
581.354	9.94
581.693	10.13
582.032	10.24
582.372	10.18
582.711	10.38
583.05	10.22
583.389	10.37
583.728	10.3
584.067	10.19
584.406	10.26
584.745	10.2
585.083	10.34
585.422	10.61
585.761	10.38
586.1	10.41
586.438	10.3
586.777	10.51
587.115	10.46
587.454	10.55
587.792	10.72
588.13	10.77
588.469	10.35
588.807	10.78
589.145	10.64
589.483	10.36
589.821	10.6
590.159	10.81
590.497	10.59
590.835	10.59
591.173	10.88
591.511	10.92
591.849	10.79
592.187	10.65
592.524	10.98
592.862	10.87
593.2	11.04
593.537	10.89
593.875	11.1
594.212	10.97
594.55	10.88
594.887	11.13
595.224	11.24
595.561	11.03
595.899	11.2
596.236	11.19
596.573	10.92
596.91	11.02
597.247	11.26
597.584	11.2
597.921	11.29
598.258	11.24
598.594	11.11
598.931	10.95
599.268	10.96
599.604	11.23
599.941	11.3
600.277	11.44
600.614	11.4
600.95	11.19
601.287	11.36
601.623	11.27
601.959	11.76
602.296	11.64
602.632	11.65
602.968	11.72
603.304	11.59
603.64	11.62
603.976	11.63
604.312	11.63
604.648	11.61
604.984	11.58
605.319	11.63
605.655	11.54
605.991	11.75
606.326	11.57
606.662	11.61
606.998	11.81
607.333	11.68
607.668	11.6
608.004	12
608.339	11.85
608.674	11.97
609.01	12.29
609.345	12.09
609.68	12.06
610.015	11.96
610.35	12.29
610.685	11.67
611.02	11.99
611.355	11.94
611.689	12.08
612.024	12.28
612.359	12.21
612.694	12.43
613.028	12.2
613.363	12.24
613.697	12.41
614.032	12.28
614.366	12.41
614.7	12.28
615.035	12.21
615.369	12.72
615.703	12.55
616.037	12.48
616.371	12.5
616.705	12.66
617.039	12.53
617.373	12.87
617.707	12.55
618.041	12.28
618.375	12.48
618.709	12.84
619.042	12.67
619.376	12.86
619.71	12.71
620.043	12.96
620.377	12.89
620.71	12.88
621.043	12.92
621.377	13.03
621.71	13.04
622.043	12.95
622.376	13.29
622.709	13.33
623.043	13.05
623.376	13.15
623.709	13.41
624.041	12.97
624.374	13.24
624.707	13.14
625.04	13.25
625.373	13.23
625.705	13.45
626.038	13.34
626.37	13.05
626.703	14.03
627.035	13.52
627.368	13.66
627.7	13.27
628.032	13.3
628.365	13.51
628.697	13.71
629.029	13.41
629.361	13.7
629.693	13.61
630.025	13.38
630.357	13.7
630.689	13.69
631.021	13.78
631.353	13.77
631.684	13.53
632.016	13.31
632.348	13.69
632.679	13.79
633.011	13.85
633.342	13.99
633.674	13.89
634.005	13.92
634.336	14.06
634.668	14.01
634.999	13.58
635.33	13.99
635.661	14.01
635.992	13.84
636.323	14.12
636.654	13.99
636.985	14.07
637.316	13.91
637.647	14.41
637.977	14.25
638.308	14.61
638.639	14.36
638.969	14.3
639.3	14.52
639.63	14.1
639.961	14.15
640.291	14.45
640.622	14.74
640.952	14.62
641.282	14.42
641.612	14.48
641.943	14.69
642.273	14.28
642.603	14.99
642.933	14.88
643.263	15.15
643.592	14.55
643.922	14.79
644.252	14.66
644.582	15.17
644.911	15.54
645.241	14.57
645.571	15.08
645.9	15.51
646.23	15.25
646.559	14.82
646.888	15.44
647.218	14.9
647.547	15.14
647.876	15.3
648.205	14.91
648.534	14.83
648.863	15.3
649.192	15.89
649.521	15.17
649.85	15.47
650.179	15.47
650.508	15.24
650.837	15.69
651.165	15.68
651.494	15.57
651.822	15.48
652.151	15.58
652.479	15.5
652.808	15.66
653.136	14.91
653.465	15.61
653.793	15.78
654.121	15.47
654.449	15.67
654.777	15.56
655.105	15.42
655.433	16
655.761	15.57
656.089	15.85
656.417	16.46
656.745	16.47
657.073	15.36
657.4	15.89
657.728	15.36
658.056	16.03
658.383	15.58
658.711	16.27
659.038	16.5
659.365	16.24
659.693	16.18
660.02	16.26
660.347	15.92
660.674	15.79
661.001	16.19
661.329	16.12
661.656	15.91
661.982	16.01
662.309	16.21
662.636	16.53
662.963	16.3
663.29	16.42
663.616	16.7
663.943	16.51
664.27	16.37
664.596	16.29
664.923	16.41
665.249	16.97
665.576	16.38
665.902	16
666.228	16.62
666.554	16.68
666.881	16.16
667.207	16.95
667.533	16.65
667.859	16.8
668.185	17.08
668.511	17.05
668.837	16.78
669.162	16.99
669.488	16.55
669.814	16.67
670.139	16.41
670.465	17.27
670.791	16.98
671.116	16.52
671.442	16.18
671.767	17.44
672.092	17.06
672.418	17.11
672.743	16.69
673.068	16.91
673.393	18.06
673.718	16.9
674.043	17.61
674.368	17.53
674.693	17.15
675.018	17.7
675.343	17.3
675.667	17.81
675.992	17.28
676.317	16.61
676.641	17.9
676.966	18.18
677.29	17.68
677.615	17.65
677.939	17.36
678.264	17.36
678.588	17.55
678.912	17.55
679.236	17.77
679.56	17.08
679.885	17.79
680.209	17.86
680.532	18.04
680.856	17.89
681.18	18.3
681.504	17.9
681.828	18.08
682.152	17.72
682.475	18.18
682.799	17.84
683.122	18.31
683.446	17.45
683.769	18.35
684.093	18.45
684.416	18.27
684.739	17.92
685.062	18.44
685.386	18.27
685.709	18.22
686.032	18.7
686.355	18.15
686.678	19.13
687.001	18.72
687.324	18.47
687.646	17.97
687.969	18.28
688.292	18.05
688.614	18.65
688.937	18.48
689.26	19.28
689.582	18.65
689.904	18.54
690.227	18.38
690.549	19.33
690.871	18.86
691.194	18.46
691.516	18.7
691.838	19.14
692.16	18.92
692.482	18.91
692.804	17.88
693.126	18.68
693.448	19
693.769	18.41
694.091	18.81
694.413	19.04
694.735	19.19
695.056	19.34
695.378	19.24
695.699	19.36
696.021	19.05
696.342	19.65
696.663	19.2
696.984	18.56
697.306	19.4
697.627	20
697.948	19.42
698.269	19.78
698.59	19.02
698.911	19.09
699.232	19.24
699.553	19.4
699.873	18.94
700.194	19.33
700.515	19.17
700.835	18.64
701.156	19.38
701.477	18.95
701.797	18.93
702.117	18.91
702.438	19.82
702.758	19.57
703.078	19.5
703.398	19.67
703.719	19.86
704.039	20
704.359	19.52
704.679	19.67
704.999	20.58
705.319	19.44
705.638	19.59
705.958	19.24
706.278	20.24
706.597	20.1
706.917	19.68
707.237	20.07
707.556	20.11
707.876	20.46
708.195	21.12
708.514	19.87
708.834	19.47
709.153	20.19
709.472	21.71
709.791	19.66
710.11	19.97
710.429	21.07
710.748	20.71
711.067	19.68
711.386	19.99
711.705	19.93
712.023	20.31
712.342	19.73
712.661	20.61
712.979	20.27
713.298	20.16
713.616	20.82
713.935	19.93
714.253	20.62
714.572	20.48
714.89	20.55
715.208	19.78
715.526	20.49
715.844	21.08
716.162	20.04
716.48	20.13
716.798	20.6
717.116	20.7
717.434	20.23
717.752	20.58
718.069	20.14
718.387	21.23
718.705	20.84
719.022	21.13
719.34	20.85
719.657	22.08
719.975	20.76
720.292	19.86
720.609	20.34
720.927	20.43
721.244	20.54
721.561	19.75
721.878	23.23
722.195	20.96
722.512	21.47
722.829	20.21
723.146	20.85
723.463	20.4
723.779	20.15
724.096	19.95
724.413	22.14
724.729	21.6
725.046	20.96
725.362	21.7
725.679	20.74
725.995	20.45
726.311	20.56
726.628	21.6
726.944	21.5
727.26	21.93
727.576	22.17
727.892	21.37
728.208	21.49
728.524	20.45
728.84	22.1
729.156	20.14
729.472	21.41
729.787	21.45
730.103	22.02
730.419	20.9
730.734	21.24
731.05	21.12
731.365	21.87
731.681	22.3
731.996	22.52
732.311	20.79
732.626	22.61
732.942	21.44
733.257	23.57
733.572	21.81
733.887	21.15
734.202	21.98
734.517	22.54
734.832	21.32
735.146	22.19
735.461	21.86
735.776	22.82
736.091	23.92
736.405	21.73
736.72	22.18
737.034	22.08
737.349	22.5
737.663	23.78
737.977	23.58
738.292	20.88
738.606	22.98
738.92	23.62
739.234	21.94
739.548	22.4
739.862	22.58
740.176	21.47
740.49	21.57
740.804	23.09
741.117	21.8
741.431	22.53
741.745	22.49
742.058	21.31
742.372	21.6
742.685	23.51
742.999	20.95
743.312	23.12
743.626	24.36
743.939	21.07
744.252	20.48
744.565	22.22
744.878	22.01
745.191	23.02
745.505	21.93
745.817	24.03
746.13	22.88
746.443	21.32
746.756	22.47
747.069	23.67
747.381	23.81
747.694	22.31
748.007	22.1
748.319	24.15
748.632	22.89
748.944	22.87
749.256	24.01
749.569	21.87
749.881	23.04
750.193	23.28
750.505	24
750.817	24.81
751.129	23.63
751.441	23.36
751.753	23.85
752.065	23.32
752.377	24.3
752.689	22.98
753	23.77
753.312	24.38
753.624	22.84
753.935	21.92
754.247	22.82
754.558	23.3
754.869	23.42
755.181	22.56
755.492	23.54
755.803	24.04
756.114	24.05
756.425	21.89
756.736	23.57
757.047	24.12
757.358	24.41
757.669	22.62
757.98	22.74
758.291	23.94
758.601	21.87
758.912	24.35
759.223	24.55
759.533	23.22
759.844	23.43
760.154	22.65
760.464	25.7
760.775	24.38
761.085	23.68
761.395	21.87
761.705	23.98
762.016	23.59
762.326	23.64
762.636	24.15
762.945	21.79
763.255	22.48
763.565	26.42
763.875	24.65
764.185	23.75
764.494	23.12
764.804	23.26
765.113	23.81
765.423	23.55
765.732	24.18
766.042	25.64
766.351	24.23
766.66	24.96
766.97	24.31
767.279	23.37
767.588	22.59
767.897	22.83
768.206	23.65
768.515	24.52
768.824	25.4
769.133	21.99
769.441	22.63
769.75	22.55
770.059	23.06
770.367	23.67
770.676	23.06
770.984	23.6
771.293	25.21
771.601	24.34
771.91	24.89
772.218	25.25
772.526	23.01
772.834	24.27
773.142	24.27
773.45	24.71
773.758	24.6
774.066	22.65
774.374	25.64
774.682	24.84
774.99	22.65
775.298	26.51
775.605	23.39
775.913	22.78
776.22	24.25
776.528	22.22
776.835	27
777.143	26.79
777.45	21.73
777.757	25.28
778.065	24.68
778.372	25.35
778.679	27.79
778.986	24.57
779.293	22.8
779.6	25.69
779.907	24.34
780.214	24.7
780.52	26.17
780.827	25.22
781.134	23.77
781.44	26.9
781.747	23.87
782.053	24.51
782.36	25.36
782.666	26.92
782.973	24.86
783.279	24.62
783.585	26.1
783.891	26.38
784.197	25.31
784.503	24.85
784.809	26.6
785.115	30.72
785.421	27.31
785.727	31.36
786.033	24.52
786.339	29.44
786.644	19.69
786.95	23.42
787.255	23.68
787.561	24
787.866	23.16
788.172	24.47
788.477	27.73
788.782	23.98
789.088	24.76
789.393	24.88
789.698	22.65
790.003	24.66
790.308	22.94
790.613	25.94
790.918	25
791.223	29.16
791.527	26.66
791.832	25.66
792.137	26.49
792.441	23.42
792.746	25.57
793.05	25.56
793.355	26.24
793.659	23.91
793.963	26.33
794.268	23.47
794.572	26.14
794.876	24.44
795.18	24.97
795.484	28.12
795.788	25.51
796.092	22.18
796.396	17.94
796.7	21.85
797.004	24.84
797.307	24.98
797.611	30.45
797.915	23.59
798.218	22.78
798.522	19.16
798.825	26.29
799.128	27.88
799.432	25.58
799.735	26.67
800.038	27.79
800.341	25.11
800.644	26.7
800.947	24.6
801.25	26.83
801.553	26.22
801.856	27.2
802.159	24.64
802.462	26.18
802.764	23.39
803.067	31.18
803.37	27.09
803.672	26.26
803.975	21.97
804.277	24.87
804.579	27.71
804.882	29.12
805.184	26.92
805.486	28.96
805.788	30.15
806.09	23.63
806.392	28.98
806.694	24.61
806.996	25.76
807.298	22.48
807.6	31.46
807.902	26.02
808.203	23.18
808.505	23.01
808.807	31.8
809.108	28.31
809.409	27.88
809.711	23.65
810.012	26.85
810.313	24.36
810.615	31.84
810.916	29.68
811.217	27.12
811.518	23.64
811.819	22.7
812.12	26.92
812.421	19.63
812.722	23.71
813.023	28.06
813.323	26.74
813.624	30
813.925	25.31
814.225	24.89
814.526	22.7
814.826	28.33
815.126	20.17
815.427	25.67
815.727	26.95
816.027	33.24
816.327	27.82
816.627	24.93
816.927	21.48
817.227	25.15
817.527	29.62
817.827	22.74
818.127	27.5
818.427	18.03
818.727	27.43
819.026	26.47
819.326	25.36
819.625	25.35
819.925	34.19
820.224	31.62
820.524	28.51
820.823	27.22
821.122	26.83
821.421	22.52
821.72	25.84
822.019	24.15
822.318	26.71
822.617	29.94
822.916	26.17
823.215	26.48
823.514	25.98
823.813	26.28
824.111	25.68
824.41	26.18
824.709	27.22
825.007	26.33
825.306	27.36
825.604	26.7
825.902	27.7
826.201	27.71
826.499	27.74
826.797	26.5
827.095	27.68
827.393	30.05
827.691	29.05
827.989	28.44
828.287	29.12
828.585	25.85
828.882	28.19
829.18	26.45
829.478	27.45
829.775	26.88
830.073	28.52
830.37	25.69
830.668	27.32
830.965	28.42
831.263	27.23
831.56	29.74
831.857	27.15
832.154	27.85
832.451	30.67
832.748	27.47
833.045	27.87
833.342	25.92
833.639	25.99
833.936	26.23
834.232	26.93
834.529	27.62
834.826	30.99
835.122	25.87
835.419	34.08
835.715	24.38
836.012	26.59
836.308	30.96
836.604	26.68
836.901	28.43
837.197	27.4
837.493	29.13
837.789	29.9
838.085	24.09
838.381	27.73
838.677	26.71
838.972	27.29
839.268	26.6
839.564	28.36
839.86	24.22
840.155	35.68
840.451	31.76
840.746	30.29
841.042	31.02
841.337	30.48
841.632	27.68
841.928	32.2
842.223	16.79
842.518	27.56
842.813	25.68
843.108	29.57
843.403	29.32
843.698	28.96
843.993	31.56
844.287	35.54
844.582	29.97
844.877	32.58
845.171	29.7
845.466	26.12
845.761	25.68
846.055	27.39
846.349	33.87
846.644	39.95
846.938	32.24
847.232	29.17
847.526	24.16
847.82	25.36
848.114	17.21
848.408	60.05
848.702	22.32
848.996	16.96
849.29	29.01
849.584	32.13
849.877	29.43
850.171	30.54
850.465	27.2
850.758	22.73
851.052	20.89
851.345	25.75
851.638	34.21
851.932	25.71
852.225	24.13
852.518	25.81
852.811	25.14
853.104	29.14
853.397	31.32
853.69	32.75
853.983	19.76
854.276	39.49
854.569	36.75
854.861	22.17
855.154	32.6
855.447	52.83
855.739	-1.75
856.032	37.31
856.324	32.87
856.616	38.84
856.909	19.95
857.201	23.98
857.493	21.51
857.785	37.71
858.077	28.28
858.369	35.46
858.661	28.35
858.953	38.1
859.245	28.93
859.537	19.98
859.829	16.21
860.12	19.1
860.412	11.88
860.703	42.87
860.995	35.28
861.286	14.49
861.578	40.91
861.869	44.94
862.16	18.51
862.452	37.4
862.743	41.65
863.034	31.02
863.325	26.28
863.616	27.88
863.907	41.86
864.198	17.12
864.488	31.47
864.779	16.09
865.07	12.74
865.36	35.01
865.651	36.15
865.941	36.64
866.232	29.63
866.522	18.11
866.813	9.65
867.103	25.04
867.393	43.3
867.683	35.86
867.973	39.37
868.263	24
868.553	32.4
868.843	7.2
869.133	26.8
869.423	30.7
869.713	16.04
870.002	49.92
870.292	56.63
870.582	15.44
870.871	41.9
871.161	26.44
871.45	17.78
871.739	48.12
872.029	27.83
872.318	27.63
872.607	45.97
872.896	35.78
873.185	42.8
873.474	25.88
873.763	33.2
874.052	19.58
874.341	15.81
874.63	40.33
874.918	22.06
875.207	10.93
875.496	26.28
875.784	23.87
876.073	19.95
876.361	26.34
876.649	25.93
876.938	28.97
877.226	32.03
877.514	37.87
877.802	-3.48
878.09	25.79
878.378	17.93
878.666	45.27
878.954	42.88
879.242	35.92
879.53	28.03
879.817	38.98
880.105	27.18
880.392	7.97
880.68	16.98
880.967	11.94
881.255	47.08
881.542	20.9
881.83	32.63
882.117	28.18
882.404	18.58
882.691	30.86
882.978	28.2
883.265	59.24
883.552	33.39
883.839	37.56
884.126	26.66
884.413	31.44
884.699	30.93
884.986	33.69
885.273	32.07
885.559	32.07
885.846	32.07
