Data from 0191_chest_Reflection__5__413.txt Node

Date: Fri Dec 15 20:26:22 CST 2023
User: ToomeyLab
Spectrometer: FLMS14357
Trigger mode: 0
Integration Time (sec): 1.000000E-2
Scans to average: 100
Electric dark correction enabled: true
Nonlinearity correction enabled: false
Boxcar width: 0
XAxis mode: Wavelengths
Number of Pixels in Spectrum: 2048
>>>>>Begin Spectral Data<<<<<
189.047	-83.67
189.435	-83.67
189.823	-83.67
190.211	2598.2
190.599	113.48
190.987	101.26
191.375	90.96
191.763	-7.5
192.151	279.82
192.538	24.63
192.926	214.15
193.314	132.33
193.702	55.61
194.089	-269.72
194.477	120.42
194.864	446.64
195.252	101.67
195.639	80.2
196.027	1.21
196.414	11.77
196.801	125.04
197.189	50.81
197.576	238.11
197.963	132.87
198.351	-99.76
198.738	-79.16
199.125	39.72
199.512	-14.04
199.899	26.84
200.286	0.83
200.673	-68.66
201.06	-49.76
201.447	-22.07
201.833	-16.7
202.22	19.86
202.607	35.64
202.994	-26.27
203.38	-26.63
203.767	-3.9
204.154	-2.53
204.54	19.24
204.927	-103.89
205.313	-27.4
205.699	2.61
206.086	5.51
206.472	-15.03
206.858	-12.24
207.245	-66.48
207.631	15.69
208.017	-35
208.403	-24.2
208.789	21.67
209.175	14.87
209.561	-23.24
209.947	-10.33
210.333	-94.3
210.719	-7.03
211.105	19.14
211.491	-87.66
211.876	-9.58
212.262	-4.83
212.648	7.35
213.034	-1.17
213.419	-24.23
213.805	-46.53
214.19	-50.47
214.576	13.99
214.961	-46.53
215.346	-80.59
215.732	-26.95
216.117	9.5
216.502	-70.21
216.888	21.62
217.273	-29.33
217.658	-13.21
218.043	-2.12
218.428	-79.76
218.813	-9.07
219.198	-88.48
219.583	-18.37
219.968	-29.8
220.353	-16.62
220.738	-5.91
221.122	1.99
221.507	-42.13
221.892	-49.21
222.276	-34.71
222.661	4.63
223.046	6.64
223.43	9.03
223.815	-3.37
224.199	-20.4
224.583	-0.79
224.968	-4.48
225.352	2.76
225.736	-13.78
226.121	-26.11
226.505	-0.65
226.889	0.37
227.273	-2.4
227.657	5.46
228.041	-4.64
228.425	-1.74
228.809	4.23
229.193	1.88
229.577	0.17
229.961	3.22
230.344	1.58
230.728	2.69
231.112	3.21
231.495	2.88
231.879	1.86
232.263	3.6
232.646	2.27
233.03	2.02
233.413	0.74
233.797	3.88
234.18	4.49
234.563	2.85
234.946	-1.3
235.33	3.1
235.713	1.87
236.096	2.17
236.479	1.91
236.862	0.48
237.245	4.35
237.628	2.59
238.011	4.12
238.394	2.64
238.777	3.19
239.16	-0.05
239.543	3.68
239.925	3.2
240.308	0.73
240.691	3.34
241.073	4.21
241.456	2.78
241.838	2.29
242.221	1.65
242.603	4
242.986	3.4
243.368	3.15
243.75	2.68
244.133	3
244.515	3.35
244.897	3.46
245.279	3.2
245.661	2.85
246.043	1.97
246.425	1.15
246.807	3.39
247.189	3.34
247.571	3.17
247.953	3.76
248.335	3.33
248.717	3.43
249.098	3.17
249.48	3.55
249.862	3.12
250.243	3.49
250.625	3.24
251.006	3.42
251.388	1.91
251.769	2.33
252.151	2.78
252.532	2.59
252.913	2.29
253.295	2.37
253.676	2.95
254.057	3.38
254.438	2.79
254.819	2.77
255.2	2.98
255.581	2.98
255.962	3.15
256.343	2.75
256.724	2.66
257.105	2.65
257.486	2.47
257.867	4.03
258.247	3.54
258.628	2.51
259.009	2.45
259.389	3.05
259.77	2.72
260.15	2.49
260.531	2.4
260.911	3.35
261.292	3.37
261.672	3.25
262.052	3.31
262.432	3.49
262.813	3.38
263.193	2.79
263.573	2.66
263.953	2.82
264.333	3.44
264.713	2.88
265.093	2.29
265.473	2.44
265.853	1.82
266.233	3.39
266.612	0.34
266.992	3.04
267.372	3.51
267.752	2.44
268.131	3.37
268.511	3.61
268.89	2.76
269.27	3.07
269.649	3.07
270.029	2.41
270.408	4.28
270.787	3.32
271.167	3.32
271.546	3.46
271.925	2.4
272.304	2.85
272.683	3.33
273.062	2.83
273.441	3.01
273.82	2.51
274.199	3.2
274.578	3
274.957	2.54
275.336	3.09
275.715	2.31
276.093	2.29
276.472	2.28
276.851	2.29
277.229	2.8
277.608	1.75
277.986	2.77
278.365	3.61
278.743	2.8
279.122	2.76
279.5	2.57
279.878	3.17
280.257	2.73
280.635	1.86
281.013	2.14
281.391	3.49
281.769	2.46
282.147	2.97
282.525	3.84
282.903	2.07
283.281	3.09
283.659	3.53
284.037	2.95
284.415	3.1
284.792	3.14
285.17	2.42
285.548	2.66
285.925	3.14
286.303	3.24
286.68	2.87
287.058	2.76
287.435	2.66
287.813	2.49
288.19	2.94
288.567	2.56
288.945	3.24
289.322	2.91
289.699	2.95
290.076	2.76
290.453	2.69
290.83	2.81
291.207	2.63
291.584	3.1
291.961	3.6
292.338	2.97
292.715	3.42
293.092	3.27
293.469	2.83
293.845	2.74
294.222	2.8
294.599	3.42
294.975	2.35
295.352	3.16
295.728	2.31
296.105	3.3
296.481	3.59
296.858	3.73
297.234	2.78
297.61	3.21
297.986	3.03
298.363	3.57
298.739	3
299.115	3.09
299.491	2.71
299.867	3.14
300.243	3.33
300.619	2.96
300.995	2.81
301.371	3.24
301.746	2.7
302.122	3.57
302.498	3.12
302.874	3.28
303.249	3.21
303.625	2.71
304	3.51
304.376	3.41
304.751	2.59
305.127	3.28
305.502	3.11
305.878	2.92
306.253	2.91
306.628	3.41
307.003	3.56
307.378	3.71
307.754	3.33
308.129	2.28
308.504	2.98
308.879	3.17
309.254	3.49
309.629	3.82
310.003	3.21
310.378	3.56
310.753	3.61
311.128	3.46
311.502	3.41
311.877	3.65
312.252	2.95
312.626	3.52
313.001	3.17
313.375	3.65
313.75	3.3
314.124	3.51
314.498	3.37
314.873	4.03
315.247	3.25
315.621	3.51
315.995	2.97
316.369	3.07
316.743	2.85
317.117	3.43
317.491	3
317.865	2.99
318.239	2.85
318.613	3.54
318.987	4.1
319.361	3.3
319.734	3.63
320.108	3.05
320.482	3.42
320.855	3.71
321.229	3.47
321.602	2.96
321.976	3.28
322.349	2.57
322.723	3.39
323.096	4.25
323.469	2.7
323.843	3.54
324.216	3.23
324.589	3.37
324.962	3.76
325.335	3.58
325.708	3.45
326.081	3.35
326.454	3.47
326.827	3.08
327.2	3.08
327.573	3.7
327.945	3.76
328.318	2.79
328.691	2.82
329.063	3.52
329.436	3.39
329.809	3.28
330.181	3.6
330.553	3.05
330.926	3.23
331.298	3.85
331.671	2.76
332.043	3.78
332.415	3.27
332.787	3.56
333.159	4.19
333.532	3.16
333.904	3.4
334.276	3.09
334.648	3.69
335.02	3.19
335.391	3.04
335.763	3.25
336.135	3.71
336.507	3.55
336.879	3.11
337.25	2.81
337.622	3.72
337.993	3.28
338.365	3.39
338.736	3.74
339.108	3.65
339.479	3.34
339.851	3.55
340.222	3.81
340.593	3.45
340.964	3.44
341.336	3.95
341.707	3.27
342.078	4.01
342.449	4.16
342.82	4.02
343.191	3.74
343.562	3.61
343.933	3.79
344.303	4.07
344.674	3.66
345.045	3.96
345.416	3.68
345.786	3.19
346.157	3.78
346.527	3.52
346.898	2.78
347.268	3.71
347.639	4.03
348.009	3.5
348.38	3.47
348.75	3.79
349.12	3.39
349.49	3.79
349.861	3.73
350.231	3.68
350.601	3.9
350.971	3.78
351.341	3.65
351.711	3.45
352.081	4.1
352.45	3.04
352.82	3.58
353.19	3.12
353.56	3.39
353.929	3.61
354.299	3.15
354.669	2.9
355.038	3.86
355.408	3.52
355.777	3.6
356.147	3.3
356.516	3.5
356.885	3.34
357.254	3.42
357.624	3.97
357.993	3.6
358.362	3.38
358.731	3.03
359.1	3.69
359.469	3.63
359.838	3.75
360.207	3.48
360.576	3.44
360.945	3.91
361.314	4.07
361.682	3.3
362.051	3.74
362.42	3.91
362.788	3.4
363.157	4.19
363.525	3.99
363.894	4.01
364.262	4.12
364.631	3.82
364.999	3.98
365.367	3.52
365.735	4.53
366.104	3.79
366.472	4.22
366.84	3.38
367.208	3.52
367.576	3.62
367.944	3.97
368.312	3.45
368.68	3.33
369.048	4.04
369.416	3.59
369.783	3.64
370.151	3.77
370.519	4.07
370.886	3.99
371.254	3.45
371.621	4.36
371.989	3.96
372.356	3.44
372.724	3.95
373.091	3.72
373.458	3.87
373.826	3.66
374.193	3.73
374.56	3.97
374.927	3.74
375.294	3.24
375.661	3.62
376.028	4.2
376.395	3.56
376.762	3.82
377.129	3.82
377.496	3.78
377.863	3.91
378.229	3.56
378.596	3.78
378.963	3.77
379.329	3.56
379.696	4.09
380.062	3.92
380.429	3.69
380.795	3.75
381.161	3.67
381.528	4.42
381.894	3.95
382.26	3.72
382.626	4.03
382.993	3.76
383.359	4.24
383.725	3.67
384.091	3.84
384.457	4.05
384.823	3.65
385.188	3.96
385.554	3.85
385.92	3.94
386.286	4.08
386.651	4.19
387.017	3.87
387.383	3.74
387.748	3.67
388.114	4.2
388.479	4.03
388.845	3.96
389.21	3.96
389.575	4.23
389.94	4.17
390.306	4.18
390.671	4.16
391.036	3.77
391.401	3.78
391.766	3.85
392.131	3.81
392.496	4.3
392.861	4.05
393.226	4.01
393.591	3.68
393.956	3.93
394.32	3.93
394.685	3.89
395.05	3.75
395.414	4.14
395.779	4.03
396.143	3.84
396.508	4.06
396.872	4
397.236	4.08
397.601	3.81
397.965	3.86
398.329	4.1
398.694	4.4
399.058	4.21
399.422	3.76
399.786	4.16
400.15	4.2
400.514	4.21
400.878	4.13
401.242	4.19
401.605	4.18
401.969	3.8
402.333	3.97
402.697	4.1
403.06	3.81
403.424	4.13
403.787	3.96
404.151	4.03
404.514	3.92
404.878	4.16
405.241	4.08
405.604	3.96
405.968	3.89
406.331	4.14
406.694	4.35
407.057	4.23
407.42	4.12
407.783	4.09
408.146	4.2
408.509	4.06
408.872	4.06
409.235	4.14
409.598	4.21
409.961	3.99
410.323	4.24
410.686	4.09
411.049	4.03
411.411	3.95
411.774	3.99
412.136	4.2
412.499	4.02
412.861	4.02
413.223	4.03
413.586	4.06
413.948	4.03
414.31	4.11
414.672	3.98
415.035	4.08
415.397	4.24
415.759	3.85
416.121	4.41
416.483	3.74
416.845	4.2
417.206	4.03
417.568	4.17
417.93	3.95
418.292	3.95
418.653	4.05
419.015	4.08
419.377	3.95
419.738	4.11
420.1	4.05
420.461	4.12
420.822	4.18
421.184	4.06
421.545	4.07
421.906	4.03
422.267	4
422.629	4
422.99	4.05
423.351	3.99
423.712	4
424.073	4.1
424.434	4.02
424.795	3.97
425.155	4.04
425.516	4.02
425.877	4.06
426.238	4.02
426.598	4.17
426.959	4.12
427.32	4.02
427.68	4.03
428.041	3.95
428.401	4.19
428.761	4.22
429.122	4.17
429.482	3.88
429.842	4.23
430.202	3.98
430.563	4.12
430.923	4.39
431.283	4.3
431.643	4.06
432.003	4.03
432.363	4.12
432.722	4.17
433.082	4.2
433.442	4.21
433.802	4.12
434.161	4.06
434.521	4.34
434.881	4.33
435.24	3.99
435.6	4.08
435.959	4.24
436.319	4.11
436.678	3.98
437.037	4.1
437.396	4.22
437.756	4.29
438.115	3.98
438.474	4.44
438.833	4.03
439.192	4.09
439.551	4.18
439.91	4.33
440.269	4.24
440.628	4.15
440.987	4.14
441.345	4.01
441.704	4.08
442.063	4.22
442.421	3.98
442.78	4.15
443.138	4.13
443.497	4.33
443.855	4.12
444.214	4.15
444.572	4.11
444.93	4.18
445.288	4.18
445.647	4.29
446.005	4.02
446.363	4.24
446.721	4.24
447.079	3.97
447.437	4.17
447.795	4.29
448.153	4.01
448.51	4.1
448.868	4.13
449.226	4.16
449.584	4.12
449.941	4.27
450.299	4.24
450.656	4.16
451.014	4.21
451.371	4.21
451.729	4.26
452.086	4.47
452.443	4.28
452.801	4.42
453.158	4.23
453.515	4.25
453.872	4.36
454.229	4.06
454.586	4.21
454.943	4.11
455.3	4.37
455.657	4.07
456.014	4.2
456.371	4.1
456.727	4.2
457.084	4.46
457.441	4.26
457.797	4.36
458.154	4.4
458.51	4.46
458.867	4.2
459.223	4.31
459.58	4.28
459.936	4.38
460.292	4.28
460.648	4.29
461.005	4.11
461.361	4.25
461.717	4.11
462.073	4.06
462.429	4.25
462.785	4.3
463.141	4.25
463.496	4.37
463.852	4.36
464.208	4.25
464.564	4.38
464.919	4.26
465.275	4.22
465.631	4.29
465.986	4.37
466.342	4.4
466.697	4.08
467.052	4.47
467.408	4.33
467.763	4.31
468.118	4.36
468.473	4.4
468.829	4.31
469.184	4.34
469.539	4.29
469.894	4.25
470.249	4.54
470.603	4.54
470.958	4.44
471.313	4.52
471.668	4.55
472.023	4.4
472.377	4.09
472.732	4.23
473.086	4.34
473.441	4.27
473.795	4.6
474.15	4.43
474.504	4.42
474.859	4.43
475.213	4.32
475.567	4.09
475.921	4.31
476.275	4.35
476.63	4.45
476.984	4.39
477.338	4.55
477.692	4.25
478.045	4.33
478.399	4.42
478.753	4.39
479.107	4.3
479.461	4.35
479.814	4.27
480.168	4.31
480.521	4.33
480.875	4.41
481.228	4.39
481.582	4.47
481.935	4.35
482.289	4.35
482.642	4.41
482.995	4.38
483.348	4.15
483.701	4.35
484.055	4.45
484.408	4.41
484.761	4.26
485.114	4.19
485.466	4.08
485.819	4.02
486.172	4.07
486.525	4.14
486.878	4.2
487.23	4.27
487.583	4.36
487.936	4.32
488.288	4.28
488.641	4.23
488.993	4.2
489.345	4.14
489.698	4.17
490.05	4.14
490.402	4.24
490.754	4.25
491.107	4.41
491.459	4.37
491.811	4.35
492.163	4.48
492.515	4.33
492.866	4.43
493.218	4.37
493.57	4.2
493.922	4.24
494.274	4.37
494.625	4.4
494.977	4.4
495.328	4.49
495.68	4.43
496.031	4.58
496.383	4.4
496.734	4.72
497.086	4.63
497.437	4.39
497.788	4.42
498.139	4.43
498.49	4.51
498.842	4.37
499.193	4.44
499.544	4.46
499.894	4.36
500.245	4.4
500.596	4.4
500.947	4.53
501.298	4.31
501.648	4.63
501.999	4.59
502.35	4.44
502.7	4.51
503.051	4.36
503.401	4.5
503.752	4.62
504.102	4.49
504.452	4.59
504.803	4.51
505.153	4.46
505.503	4.65
505.853	4.57
506.203	4.55
506.553	4.5
506.903	4.47
507.253	4.47
507.603	4.5
507.953	4.53
508.303	4.72
508.652	4.46
509.002	4.67
509.352	4.64
509.701	4.44
510.051	4.53
510.4	4.49
510.75	4.62
511.099	4.63
511.449	4.55
511.798	4.56
512.147	4.57
512.496	4.54
512.846	4.65
513.195	4.58
513.544	4.5
513.893	4.57
514.242	4.56
514.591	4.68
514.939	4.61
515.288	4.38
515.637	4.66
515.986	4.73
516.334	4.57
516.683	4.78
517.032	4.66
517.38	4.69
517.729	4.67
518.077	4.65
518.426	4.64
518.774	4.74
519.122	4.58
519.47	4.7
519.819	4.45
520.167	4.62
520.515	4.54
520.863	4.56
521.211	4.64
521.559	4.69
521.907	4.68
522.255	4.64
522.602	4.64
522.95	4.62
523.298	4.68
523.645	4.71
523.993	4.67
524.341	4.68
524.688	4.8
525.036	4.66
525.383	4.71
525.73	4.87
526.078	4.71
526.425	4.56
526.772	4.72
527.119	4.76
527.466	4.61
527.814	4.77
528.161	4.66
528.508	4.76
528.854	4.71
529.201	4.59
529.548	4.65
529.895	4.64
530.242	4.5
530.588	4.49
530.935	4.57
531.282	4.62
531.628	4.66
531.975	4.72
532.321	4.73
532.667	4.8
533.014	4.85
533.36	4.77
533.706	4.77
534.052	4.73
534.399	4.72
534.745	4.69
535.091	4.72
535.437	4.66
535.783	4.75
536.129	4.79
536.474	4.86
536.82	4.83
537.166	4.93
537.512	4.88
537.857	4.85
538.203	4.79
538.549	4.78
538.894	4.82
539.239	4.86
539.585	4.9
539.93	4.8
540.276	4.95
540.621	4.98
540.966	4.98
541.311	4.96
541.656	4.91
542.001	4.74
542.346	4.89
542.691	4.76
543.036	4.78
543.381	4.67
543.726	4.8
544.071	4.9
544.415	4.93
544.76	4.91
545.105	4.97
545.449	5.03
545.794	5.06
546.138	5.03
546.483	5.11
546.827	5.06
547.171	5.07
547.516	5.15
547.86	4.93
548.204	5.03
548.548	4.99
548.892	5.16
549.236	5.09
549.58	5.06
549.924	5.15
550.268	5.26
550.612	5.24
550.956	5.45
551.3	5.25
551.643	5.19
551.987	5.43
552.33	5.34
552.674	5.31
553.017	5.25
553.361	5.05
553.704	5.39
554.048	5.12
554.391	5.19
554.734	5.12
555.077	5.22
555.42	5.05
555.764	5.15
556.107	5.06
556.45	5.24
556.793	5.33
557.135	5.34
557.478	5.63
557.821	5.25
558.164	5.34
558.507	5.48
558.849	5.32
559.192	5.37
559.534	5.42
559.877	5.46
560.219	5.26
560.562	5.77
560.904	5.38
561.246	5.27
561.589	5.4
561.931	5.48
562.273	5.37
562.615	5.41
562.957	5.53
563.299	5.24
563.641	5.38
563.983	5.49
564.325	5.36
564.667	5.42
565.008	5.65
565.35	5.58
565.692	5.39
566.033	5.47
566.375	5.78
566.716	5.81
567.058	5.59
567.399	5.55
567.741	5.58
568.082	5.63
568.423	5.57
568.764	5.61
569.105	5.7
569.447	5.68
569.788	5.74
570.129	5.8
570.47	5.7
570.811	5.83
571.151	5.73
571.492	5.82
571.833	5.63
572.174	5.59
572.514	5.81
572.855	5.72
573.195	5.73
573.536	5.88
573.876	5.6
574.217	5.73
574.557	5.78
574.898	5.99
575.238	6.03
575.578	5.86
575.918	5.97
576.258	5.94
576.598	5.97
576.938	5.94
577.278	5.93
577.618	5.79
577.958	5.81
578.298	5.82
578.638	5.98
578.977	5.85
579.317	5.91
579.657	6.14
579.996	5.99
580.336	6.12
580.675	5.89
581.014	6.34
581.354	6.28
581.693	6.15
582.032	6.01
582.372	6.26
582.711	6.18
583.05	6.07
583.389	6.09
583.728	5.99
584.067	6.24
584.406	6.2
584.745	6.42
585.083	6.4
585.422	6.51
585.761	6.63
586.1	6.55
586.438	6.32
586.777	6.59
587.115	6.31
587.454	6.45
587.792	6.25
588.13	6.33
588.469	6.38
588.807	6.21
589.145	6.46
589.483	6.36
589.821	6.25
590.159	6.27
590.497	6.49
590.835	6.65
591.173	6.73
591.511	6.84
591.849	6.62
592.187	6.56
592.524	6.6
592.862	6.56
593.2	6.72
593.537	6.63
593.875	6.48
594.212	6.42
594.55	6.43
594.887	6.72
595.224	6.68
595.561	6.76
595.899	6.57
596.236	6.74
596.573	7.03
596.91	6.56
597.247	6.48
597.584	7.06
597.921	6.7
598.258	6.44
598.594	6.54
598.931	6.73
599.268	6.8
599.604	6.65
599.941	6.84
600.277	6.8
600.614	6.7
600.95	6.53
601.287	6.9
601.623	6.92
601.959	6.7
602.296	7.15
602.632	7.09
602.968	6.86
603.304	6.94
603.64	6.84
603.976	6.79
604.312	6.78
604.648	6.95
604.984	6.98
605.319	7.21
605.655	7.15
605.991	7.2
606.326	7.11
606.662	7.11
606.998	6.88
607.333	7.2
607.668	7.19
608.004	7.32
608.339	7.3
608.674	7.09
609.01	7.17
609.345	7.18
609.68	7.59
610.015	7.03
610.35	7.14
610.685	7.35
611.02	7.13
611.355	7.49
611.689	7.41
612.024	7.3
612.359	7.3
612.694	7.22
613.028	7.39
613.363	7.56
613.697	7.41
614.032	7.75
614.366	7.47
614.7	7.8
615.035	7.64
615.369	7.61
615.703	7.44
616.037	7.64
616.371	6.97
616.705	7.2
617.039	7.85
617.373	7.68
617.707	7.47
618.041	7.81
618.375	7.84
618.709	7.68
619.042	7.64
619.376	8.18
619.71	8.17
620.043	7.79
620.377	7.86
620.71	8.14
621.043	7.53
621.377	7.81
621.71	7.86
622.043	7.97
622.376	7.52
622.709	7.82
623.043	8.15
623.376	8.22
623.709	7.96
624.041	8.33
624.374	8.14
624.707	8
625.04	8.31
625.373	7.68
625.705	8.01
626.038	8.28
626.37	8.18
626.703	8.33
627.035	8.1
627.368	8.5
627.7	8.2
628.032	8.39
628.365	8.57
628.697	8.25
629.029	8.21
629.361	8.02
629.693	8.4
630.025	8.33
630.357	8.62
630.689	8.46
631.021	8.54
631.353	8.27
631.684	8.28
632.016	8.34
632.348	8.57
632.679	8.64
633.011	8.34
633.342	9.05
633.674	8.56
634.005	8.77
634.336	8.09
634.668	9.17
634.999	8.72
635.33	8.95
635.661	8.79
635.992	8.69
636.323	9
636.654	8.71
636.985	8.97
637.316	8.5
637.647	8.48
637.977	9.11
638.308	8.99
638.639	8.41
638.969	8.79
639.3	8.85
639.63	8.69
639.961	9.14
640.291	8.9
640.622	9.64
640.952	8.79
641.282	9.09
641.612	9.14
641.943	9.01
642.273	9.42
642.603	9.63
642.933	9.08
643.263	9.06
643.592	9.15
643.922	9.15
644.252	9.17
644.582	9.18
644.911	9.24
645.241	9.66
645.571	8.85
645.9	8.83
646.23	9.1
646.559	9.14
646.888	8.67
647.218	9.1
647.547	9.67
647.876	9.2
648.205	9.39
648.534	9.11
648.863	9.25
649.192	9.99
649.521	9.2
649.85	9.36
650.179	9.67
650.508	9.52
650.837	9.34
651.165	9.54
651.494	9.53
651.822	9.34
652.151	9.17
652.479	9.56
652.808	9.55
653.136	10.08
653.465	9.54
653.793	9.72
654.121	9.72
654.449	9.81
654.777	10.23
655.105	9.41
655.433	9.64
655.761	9.63
656.089	10.15
656.417	9.92
656.745	9.09
657.073	9.41
657.4	10.75
657.728	10.03
658.056	10.1
658.383	10.13
658.711	9.92
659.038	10.5
659.365	10.04
659.693	10.37
660.02	9.89
660.347	10.28
660.674	10.46
661.001	10.31
661.329	9.78
661.656	9.87
661.982	10.85
662.309	10.14
662.636	10.47
662.963	10.19
663.29	10.59
663.616	10.62
663.943	10.55
664.27	10.69
664.596	10.89
664.923	10.44
665.249	10.71
665.576	10.87
665.902	11.47
666.228	10.25
666.554	10.15
666.881	10.93
667.207	11.11
667.533	10.83
667.859	10.75
668.185	10.73
668.511	10.4
668.837	9.82
669.162	10.86
669.488	10.38
669.814	11.32
670.139	10.54
670.465	10.95
670.791	11.19
671.116	11.17
671.442	11.03
671.767	10.95
672.092	11.06
672.418	11.51
672.743	11.8
673.068	11.12
673.393	11.57
673.718	11.12
674.043	10.96
674.368	11.02
674.693	12.23
675.018	10.25
675.343	11.47
675.667	10.92
675.992	10.96
676.317	11.03
676.641	11.28
676.966	11.37
677.29	11.19
677.615	11.3
677.939	11.33
678.264	12.08
678.588	11.44
678.912	11.37
679.236	11.98
679.56	10.82
679.885	11.97
680.209	11.66
680.532	11.82
680.856	12.03
681.18	11.64
681.504	11.82
681.828	11.8
682.152	11.34
682.475	11.72
682.799	11.79
683.122	11.95
683.446	11.55
683.769	12.76
684.093	11.67
684.416	11.99
684.739	12.13
685.062	11.72
685.386	12.26
685.709	11.78
686.032	11.94
686.355	12.29
686.678	12.21
687.001	11.85
687.324	12.42
687.646	11.6
687.969	12.02
688.292	11.78
688.614	11.71
688.937	12.95
689.26	12.29
689.582	12.97
689.904	12.99
690.227	12.42
690.549	12.31
690.871	12.45
691.194	12.21
691.516	12.11
691.838	12.66
692.16	12.55
692.482	12.9
692.804	11.96
693.126	11.89
693.448	12.96
693.769	12.83
694.091	12.73
694.413	13.14
694.735	12.12
695.056	12.58
695.378	12.64
695.699	11.76
696.021	12.16
696.342	12.37
696.663	13.1
696.984	13.36
697.306	12.12
697.627	12.49
697.948	13.35
698.269	12.16
698.59	13.14
698.911	12.47
699.232	12.48
699.553	13.28
699.873	13.31
700.194	13.77
700.515	13.79
700.835	13.2
701.156	13.02
701.477	13.57
701.797	13.21
702.117	13.33
702.438	13.53
702.758	13.75
703.078	12.65
703.398	13.56
703.719	13.71
704.039	12.61
704.359	14.46
704.679	13.48
704.999	12.99
705.319	13.03
705.638	13.17
705.958	13.48
706.278	13.92
706.597	13.38
706.917	12.46
707.237	13.7
707.556	14.6
707.876	13.81
708.195	14.13
708.514	12.91
708.834	13.56
709.153	14.19
709.472	15.03
709.791	14.48
710.11	13.15
710.429	13.33
710.748	14.44
711.067	14.05
711.386	14.67
711.705	13.77
712.023	14.33
712.342	13.24
712.661	14.18
712.979	13.56
713.298	14.16
713.616	14.61
713.935	14.76
714.253	13.2
714.572	14.02
714.89	14.88
715.208	15.77
715.526	13.77
715.844	13.93
716.162	14.09
716.48	14.95
716.798	13.83
717.116	14.72
717.434	13.33
717.752	13.51
718.069	14.09
718.387	13.82
718.705	13.78
719.022	13.68
719.34	13.43
719.657	12.87
719.975	14.36
720.292	14.9
720.609	15.03
720.927	15.17
721.244	16.32
721.561	14.59
721.878	15.77
722.195	12.43
722.512	14.76
722.829	15.91
723.146	14.34
723.463	15.32
723.779	15.27
724.096	15.14
724.413	14.33
724.729	14.46
725.046	13.31
725.362	15.34
725.679	14.81
725.995	15.35
726.311	14.45
726.628	15.16
726.944	15.06
727.26	15.83
727.576	14.98
727.892	15.66
728.208	15.06
728.524	15.08
728.84	14.82
729.156	15.79
729.472	14.26
729.787	14.67
730.103	14.04
730.419	14.25
730.734	15.13
731.05	14.05
731.365	14.27
731.681	15.41
731.996	15.69
732.311	15.45
732.626	16.51
732.942	15.36
733.257	15.22
733.572	15.5
733.887	15.68
734.202	15.79
734.517	16.22
734.832	16.67
735.146	15.11
735.461	16.98
735.776	15.88
736.091	16.88
736.405	16.79
736.72	15.62
737.034	15.91
737.349	17.52
737.663	15.49
737.977	15.8
738.292	15.73
738.606	17.05
738.92	14.63
739.234	16.78
739.548	16.68
739.862	14.97
740.176	16.39
740.49	17.5
740.804	19.08
741.117	15.15
741.431	14.83
741.745	15.86
742.058	16.21
742.372	16.07
742.685	15.24
742.999	16.06
743.312	15.15
743.626	18.07
743.939	15.47
744.252	18.88
744.565	16.39
744.878	17.52
745.191	14.72
745.505	14.24
745.817	15.87
746.13	17.42
746.443	17.55
746.756	17.17
747.069	16.67
747.381	17.57
747.694	15.14
748.007	18.08
748.319	16.78
748.632	15.28
748.944	16.68
749.256	17.85
749.569	17.41
749.881	19.28
750.193	17.05
750.505	15.7
750.817	14.65
751.129	17.16
751.441	17.57
751.753	18.2
752.065	17.06
752.377	17.39
752.689	17.3
753	16.33
753.312	18.08
753.624	17.24
753.935	18.9
754.247	18.35
754.558	17.69
754.869	16.75
755.181	16.84
755.492	17.63
755.803	17.6
756.114	17.62
756.425	16.21
756.736	16.57
757.047	19.3
757.358	18.96
757.669	16.51
757.98	18.45
758.291	17.33
758.601	17.53
758.912	16.97
759.223	19.52
759.533	17.46
759.844	18.2
760.154	16.6
760.464	20.34
760.775	19.15
761.085	16.15
761.395	19.53
761.705	18.14
762.016	17.99
762.326	17.02
762.636	19.52
762.945	17.86
763.255	19.54
763.565	17.97
763.875	18.53
764.185	18.31
764.494	19.02
764.804	20.07
765.113	18.74
765.423	17.76
765.732	19.39
766.042	17.66
766.351	18.92
766.66	18.5
766.97	19.58
767.279	19.64
767.588	19.99
767.897	19.99
768.206	18.05
768.515	17.69
768.824	17.21
769.133	18.43
769.441	20.32
769.75	17.55
770.059	17.64
770.367	18.32
770.676	18.11
770.984	19.51
771.293	16.74
771.601	21
771.91	17.24
772.218	22.13
772.526	18.71
772.834	19.43
773.142	18.47
773.45	18.1
773.758	15.29
774.066	18.09
774.374	17.63
774.682	18.47
774.99	24.27
775.298	18.09
775.605	18.94
775.913	14.65
776.22	18.68
776.528	17.14
776.835	19.23
777.143	16.88
777.45	17.85
777.757	19.62
778.065	17.4
778.372	15.48
778.679	21.14
778.986	17.84
779.293	19.19
779.6	20.6
779.907	19.05
780.214	23.87
780.52	18.66
780.827	19.49
781.134	16.71
781.44	20.26
781.747	16.15
782.053	19.76
782.36	18.66
782.666	18.97
782.973	22.77
783.279	20.04
783.585	19.01
783.891	20.64
784.197	21.08
784.503	23.69
784.809	20.36
785.115	20.11
785.421	25.25
785.727	12.69
786.033	20.32
786.339	16.94
786.644	19.43
786.95	19.01
787.255	22.93
787.561	21.86
787.866	17.5
788.172	17.69
788.477	18.18
788.782	18.34
789.088	17.45
789.393	15.82
789.698	16.24
790.003	18.05
790.308	16.31
790.613	17.88
790.918	20.71
791.223	19.17
791.527	16.87
791.832	20.59
792.137	17.85
792.441	19.5
792.746	20.15
793.05	18.29
793.355	23.25
793.659	20.65
793.963	19.66
794.268	23.62
794.572	18.49
794.876	22.57
795.18	23.11
795.484	16.62
795.788	17.12
796.092	14.87
796.396	21.44
796.7	22.64
797.004	20.49
797.307	15.28
797.611	25.06
797.915	21.95
798.218	18.83
798.522	18.96
798.825	16.37
799.128	19.06
799.432	17.73
799.735	23.45
800.038	22.82
800.341	22.91
800.644	22.68
800.947	25.47
801.25	18.95
801.553	16.79
801.856	15.15
802.159	16.76
802.462	19.31
802.764	17.38
803.067	20
803.37	16.77
803.672	16.58
803.975	17.03
804.277	14.29
804.579	16.28
804.882	22.93
805.184	19.5
805.486	16.93
805.788	23.01
806.09	22.65
806.392	17.9
806.694	22.25
806.996	24.29
807.298	26.51
807.6	23.57
807.902	23.28
808.203	15.61
808.505	22.42
808.807	22.56
809.108	18.82
809.409	27.43
809.711	22.64
810.012	20.9
810.313	20.54
810.615	19
810.916	19.04
811.217	19.71
811.518	25.9
811.819	20.51
812.12	24.53
812.421	17.18
812.722	30.05
813.023	26.39
813.323	25.22
813.624	14.7
813.925	35.29
814.225	18.21
814.526	26.29
814.826	32.88
815.126	17.42
815.427	21.7
815.727	21.36
816.027	14.15
816.327	25.03
816.627	10.04
816.927	22.81
817.227	16.26
817.527	17.65
817.827	27.99
818.127	24.93
818.427	19.03
818.727	26.64
819.026	19.45
819.326	23.88
819.625	19.69
819.925	12.99
820.224	24.05
820.524	19.55
820.823	25.13
821.122	23.56
821.421	20.25
821.72	19.21
822.019	18.31
822.318	17.39
822.617	25.47
822.916	23.64
823.215	21.03
823.514	28.85
823.813	23.83
824.111	21.4
824.41	27.44
824.709	26.38
825.007	25.94
825.306	25.55
825.604	26.66
825.902	26.27
826.201	27.19
826.499	25.26
826.797	26.36
827.095	25.73
827.393	25.52
827.691	26.28
827.989	22.05
828.287	24.59
828.585	25.81
828.882	25.66
829.18	24.03
829.478	28.3
829.775	26.76
830.073	27.04
830.37	26.45
830.668	26.23
830.965	25.38
831.263	24.29
831.56	26.18
831.857	24.33
832.154	25.3
832.451	27.34
832.748	23.58
833.045	25.27
833.342	26.64
833.639	18.52
833.936	25.56
834.232	20.81
834.529	21.44
834.826	18.69
835.122	21.11
835.419	25.03
835.715	26.95
836.012	28.4
836.308	23.38
836.604	22.13
836.901	25.28
837.197	24.44
837.493	24.6
837.789	23.85
838.085	28.26
838.381	25.14
838.677	20.85
838.972	21.94
839.268	30.7
839.564	24.63
839.86	25.06
840.155	23.39
840.451	18.43
840.746	22.44
841.042	25.93
841.337	42.02
841.632	23.47
841.928	21
842.223	8.61
842.518	17.51
842.813	27.52
843.108	22.98
843.403	27.08
843.698	19.65
843.993	29.02
844.287	24.65
844.582	24.95
844.877	32.17
845.171	21.3
845.466	15.11
845.761	15.79
846.055	35.28
846.349	16.45
846.644	31.23
846.938	7.6
847.232	7.35
847.526	7.7
847.82	38.48
848.114	26.25
848.408	27.73
848.702	11.29
848.996	5.95
849.29	23.12
849.584	24.21
849.877	10.42
850.171	38.49
850.465	21.7
850.758	20.85
851.052	17.72
851.345	29.79
851.638	10.91
851.932	4.57
852.225	11.33
852.518	34.24
852.811	16.34
853.104	-11.48
853.397	17.65
853.69	21.98
853.983	-8.37
854.276	10.56
854.569	32.6
854.861	27.57
855.154	39.36
855.447	-0.46
855.739	29.32
856.032	2.4
856.324	37.23
856.616	13.17
856.909	-12.63
857.201	36.42
857.493	13.57
857.785	-6.34
858.077	44.42
858.369	8.91
858.661	1.9
858.953	15
859.245	21.64
859.537	18.38
859.829	-18.96
860.12	53
860.412	-12.03
860.703	29
860.995	14.12
861.286	18.87
861.578	7.57
861.869	20.51
862.16	2.18
862.452	24.54
862.743	3.9
863.034	7.34
863.325	-6.24
863.616	12.46
863.907	-9.56
864.198	6.69
864.488	27.05
864.779	13.74
865.07	34.65
865.36	-19.16
865.651	11.04
865.941	19.47
866.232	12.5
866.522	-13.92
866.813	1.5
867.103	31.74
867.393	-6.66
867.683	19.27
867.973	-21.13
868.263	12.36
868.553	45.47
868.843	33.67
869.133	2.8
869.423	28.57
869.713	37.63
870.002	27.26
870.292	19.12
870.582	4.16
870.871	-15.61
871.161	13.7
871.45	-14.93
871.739	-3.37
872.029	-10.12
872.318	28.26
872.607	46.86
872.896	-10.1
873.185	28.86
873.474	12.16
873.763	19.15
874.052	-32.65
874.341	19.18
874.63	20.91
874.918	18.53
875.207	16.75
875.496	18.32
875.784	-252.36
876.073	-58.4
876.361	-105.77
876.649	-6.27
876.938	25.78
877.226	-0.24
877.514	25.55
877.802	-12.34
878.09	-9.72
878.378	51.54
878.666	8.91
878.954	-1.1
879.242	9.07
879.53	12.37
879.817	57.84
880.105	-8.83
880.392	26.98
880.68	-39.87
880.967	17.36
881.255	16.25
881.542	-9.47
881.83	-57.53
882.117	17.54
882.404	-7.2
882.691	40.08
882.978	10.4
883.265	0.9
883.552	31.22
883.839	18.44
884.126	10.22
884.413	42.23
884.699	29.75
884.986	25.87
885.273	25.93
885.559	25.93
885.846	25.93
