Data from 0191_crown_Reflection__3__417.txt Node

Date: Fri Dec 15 20:27:22 CST 2023
User: ToomeyLab
Spectrometer: FLMS14357
Trigger mode: 0
Integration Time (sec): 1.000000E-2
Scans to average: 100
Electric dark correction enabled: true
Nonlinearity correction enabled: false
Boxcar width: 0
XAxis mode: Wavelengths
Number of Pixels in Spectrum: 2048
>>>>>Begin Spectral Data<<<<<
189.047	-58.59
189.435	-58.59
189.823	-58.59
190.211	-672.97
190.599	-205.73
190.987	68.53
191.375	73.44
191.763	-21.22
192.151	160.78
192.538	107.51
192.926	324.65
193.314	23.04
193.702	529
194.089	152.65
194.477	158.82
194.864	-815.7
195.252	129.8
195.639	85.4
196.027	258.71
196.414	69
196.801	81.54
197.189	16.66
197.576	216.1
197.963	119.71
198.351	-94.99
198.738	-71.38
199.125	93.49
199.512	-0.1
199.899	-21.21
200.286	39.6
200.673	-6.49
201.06	4.75
201.447	-104.7
201.833	1.18
202.22	-11.81
202.607	21.02
202.994	14.49
203.38	23.43
203.767	19.67
204.154	13.57
204.54	29.83
204.927	-37.89
205.313	-25.01
205.699	28.09
206.086	18.05
206.472	22.17
206.858	9.42
207.245	-28.51
207.631	36.39
208.017	-4.79
208.403	-3.43
208.789	17.09
209.175	15.06
209.561	-18.52
209.947	-14.03
210.333	-36.45
210.719	3.46
211.105	4.76
211.491	34.62
211.876	45
212.262	34.13
212.648	-19.1
213.034	10.07
213.419	-8.51
213.805	-27.3
214.19	-45.53
214.576	13.17
214.961	-24.27
215.346	-68.75
215.732	-20.49
216.117	15.13
216.502	-51.09
216.888	-8.77
217.273	51
217.658	-8.55
218.043	48.98
218.428	-48.37
218.813	-58.51
219.198	-35.34
219.583	-4.12
219.968	-12.08
220.353	-8.59
220.738	5.66
221.122	-8.36
221.507	-48.12
221.892	-60.29
222.276	-28.69
222.661	13.26
223.046	11.3
223.43	9.71
223.815	3.34
224.199	-11.48
224.583	-8.27
224.968	6.62
225.352	8.47
225.736	-0.34
226.121	-17.37
226.505	-3.31
226.889	5.77
227.273	-10.19
227.657	2.07
228.041	-1.27
228.425	1.08
228.809	7.19
229.193	4.56
229.577	0.66
229.961	3.52
230.344	1.19
230.728	2.58
231.112	3.04
231.495	2.62
231.879	1.14
232.263	2.36
232.646	4.69
233.03	3.63
233.413	1.65
233.797	3.57
234.18	3.61
234.563	0.53
234.946	0.8
235.33	4.5
235.713	2.12
236.096	1.81
236.479	4.08
236.862	1.38
237.245	2.91
237.628	2.11
238.011	1.65
238.394	3.1
238.777	2.33
239.16	-0.75
239.543	3.56
239.925	4.12
240.308	1.66
240.691	3.64
241.073	3.58
241.456	2.9
241.838	1.89
242.221	1.24
242.603	3.2
242.986	2.32
243.368	2.92
243.75	3.15
244.133	2.55
244.515	2.99
244.897	3.34
245.279	2.72
245.661	2.5
246.043	1.08
246.425	0.47
246.807	3.61
247.189	2.77
247.571	3.17
247.953	2.9
248.335	2.53
248.717	3.11
249.098	2.86
249.48	2.88
249.862	2.99
250.243	2.86
250.625	3.16
251.006	2.62
251.388	1.68
251.769	3.06
252.151	2.22
252.532	2.23
252.913	1.79
253.295	1.87
253.676	2.17
254.057	2.57
254.438	2.98
254.819	2.91
255.2	2.29
255.581	2.81
255.962	1.81
256.343	1.8
256.724	2.88
257.105	2.1
257.486	1.22
257.867	1.97
258.247	2.84
258.628	2.77
259.009	2.93
259.389	2.61
259.77	2.32
260.15	2.52
260.531	1.95
260.911	3.14
261.292	2.76
261.672	2.77
262.052	2.72
262.432	2.86
262.813	3.02
263.193	2.74
263.573	2.52
263.953	2.46
264.333	2.86
264.713	3.09
265.093	1.92
265.473	2.88
265.853	1.98
266.233	3
266.612	1.31
266.992	0.97
267.372	2.46
267.752	2.44
268.131	2.59
268.511	2.52
268.89	3.04
269.27	2.53
269.649	1.98
270.029	2.14
270.408	3.91
270.787	2.74
271.167	2.45
271.546	3.1
271.925	1.87
272.304	2.37
272.683	2.54
273.062	1.91
273.441	2.82
273.82	2.1
274.199	2.62
274.578	2.47
274.957	2.97
275.336	2.56
275.715	1.76
276.093	2.23
276.472	2.54
276.851	2.8
277.229	2.28
277.608	2.41
277.986	2.2
278.365	2.66
278.743	2
279.122	2.4
279.5	2.5
279.878	2.39
280.257	2.67
280.635	2.08
281.013	1.8
281.391	2.75
281.769	2.07
282.147	2.1
282.525	3.17
282.903	2.36
283.281	2.89
283.659	2.7
284.037	2.51
284.415	2.46
284.792	2.55
285.17	2.16
285.548	2.12
285.925	2.77
286.303	2.84
286.68	2.21
287.058	2.55
287.435	2.48
287.813	2.17
288.19	2.08
288.567	2.62
288.945	2.49
289.322	2.98
289.699	2.33
290.076	2.58
290.453	2.18
290.83	2.2
291.207	2.21
291.584	2.79
291.961	2.63
292.338	2.64
292.715	2.88
293.092	2.12
293.469	2.2
293.845	2.67
294.222	2.01
294.599	2.01
294.975	2.2
295.352	2.84
295.728	2.3
296.105	2.39
296.481	3.04
296.858	2.65
297.234	2.55
297.61	2.21
297.986	2.19
298.363	2.59
298.739	2.72
299.115	2.18
299.491	2.17
299.867	2.26
300.243	2.55
300.619	2.11
300.995	2.18
301.371	2.97
301.746	2.21
302.122	2.52
302.498	2.54
302.874	2.85
303.249	2.21
303.625	2.49
304	2.62
304.376	2.32
304.751	2.38
305.127	3.28
305.502	1.97
305.878	1.94
306.253	3.04
306.628	2.74
307.003	1.7
307.378	2.14
307.754	2.3
308.129	1.73
308.504	2.45
308.879	1.67
309.254	3.26
309.629	3.36
310.003	2.41
310.378	2.68
310.753	3.03
311.128	2.67
311.502	2.21
311.877	2.73
312.252	1.76
312.626	2.97
313.001	2.49
313.375	2.58
313.75	1.86
314.124	2.47
314.498	2.53
314.873	2.17
315.247	1.98
315.621	2.43
315.995	1.17
316.369	1.98
316.743	2.16
317.117	2.65
317.491	2.02
317.865	2.61
318.239	2.45
318.613	2.34
318.987	2.36
319.361	2.44
319.734	3.33
320.108	2.85
320.482	2.4
320.855	2.29
321.229	2.68
321.602	1.82
321.976	2.93
322.349	2.36
322.723	2.3
323.096	3.15
323.469	1.3
323.843	2.43
324.216	2.84
324.589	2.36
324.962	2.07
325.335	2.16
325.708	2.05
326.081	2.2
326.454	2.71
326.827	2.56
327.2	2.08
327.573	2.49
327.945	2.74
328.318	2.22
328.691	2.15
329.063	2.74
329.436	2.71
329.809	2.92
330.181	2.39
330.553	2.82
330.926	2.54
331.298	2.42
331.671	2.32
332.043	2.84
332.415	2.78
332.787	2.41
333.159	3.11
333.532	3.03
333.904	2.71
334.276	3
334.648	2.83
335.02	2.74
335.391	1.9
335.763	1.92
336.135	2.12
336.507	2.86
336.879	2.55
337.25	2.16
337.622	2.5
337.993	2.11
338.365	3.01
338.736	2.27
339.108	2.47
339.479	2.26
339.851	2.51
340.222	2.59
340.593	2.46
340.964	2.02
341.336	3.36
341.707	2.12
342.078	2.94
342.449	2.81
342.82	2.1
343.191	2.61
343.562	2.59
343.933	2.83
344.303	2.68
344.674	2.88
345.045	2.58
345.416	2.93
345.786	2.2
346.157	2.31
346.527	2.5
346.898	1.87
347.268	2.8
347.639	2.78
348.009	2.66
348.38	2.44
348.75	2.44
349.12	2.23
349.49	2.98
349.861	2.14
350.231	2.58
350.601	2.67
350.971	2.84
351.341	2.46
351.711	2.74
352.081	2.33
352.45	2.37
352.82	2.78
353.19	2.26
353.56	2.14
353.929	2.4
354.299	2.34
354.669	2.36
355.038	3.23
355.408	2.62
355.777	2.6
356.147	2.49
356.516	2.72
356.885	2.8
357.254	2.56
357.624	3.08
357.993	2.4
358.362	2.35
358.731	2.47
359.1	2.85
359.469	2.62
359.838	3.23
360.207	2.68
360.576	2.5
360.945	2.9
361.314	2.77
361.682	2.56
362.051	2.49
362.42	2.89
362.788	2.38
363.157	2.96
363.525	2.97
363.894	2.77
364.262	2.92
364.631	2.54
364.999	2.96
365.367	2.34
365.735	3.3
366.104	2.66
366.472	2.37
366.84	2.36
367.208	2.62
367.576	2.8
367.944	2.76
368.312	2.22
368.68	2.21
369.048	2.93
369.416	2.88
369.783	2.1
370.151	2.78
370.519	3.05
370.886	2.61
371.254	2.66
371.621	2.45
371.989	2.74
372.356	2.33
372.724	2.41
373.091	2.49
373.458	2.49
373.826	2.5
374.193	2.82
374.56	2.7
374.927	2.91
375.294	2.64
375.661	2.5
376.028	2.46
376.395	2.19
376.762	2.66
377.129	2.72
377.496	2.52
377.863	2.48
378.229	2.21
378.596	2.93
378.963	2.35
379.329	2.54
379.696	3.02
380.062	2.62
380.429	2.66
380.795	2.58
381.161	2.7
381.528	2.88
381.894	2.67
382.26	2.39
382.626	2.87
382.993	2.58
383.359	2.96
383.725	2.4
384.091	2.62
384.457	2.96
384.823	2.58
385.188	3.16
385.554	2.91
385.92	2.69
386.286	2.78
386.651	3.07
387.017	3.09
387.383	2.75
387.748	2.75
388.114	3.26
388.479	2.89
388.845	3.03
389.21	2.94
389.575	2.7
389.94	2.78
390.306	2.65
390.671	2.93
391.036	2.53
391.401	2.38
391.766	2.86
392.131	2.75
392.496	2.72
392.861	2.79
393.226	3.03
393.591	2.9
393.956	2.78
394.32	3.09
394.685	2.72
395.05	2.61
395.414	2.74
395.779	2.55
396.143	2.84
396.508	2.92
396.872	3.15
397.236	2.85
397.601	2.61
397.965	3.13
398.329	2.74
398.694	2.65
399.058	2.86
399.422	2.68
399.786	3.04
400.15	3.02
400.514	2.9
400.878	3
401.242	3.26
401.605	2.94
401.969	3.12
402.333	2.81
402.697	2.76
403.06	2.91
403.424	2.64
403.787	2.72
404.151	3.06
404.514	2.87
404.878	2.8
405.241	3.06
405.604	2.63
405.968	2.9
406.331	3.04
406.694	3
407.057	2.85
407.42	3.08
407.783	2.77
408.146	2.97
408.509	2.83
408.872	2.89
409.235	2.91
409.598	2.94
409.961	2.67
410.323	2.99
410.686	2.83
411.049	2.94
411.411	2.88
411.774	2.9
412.136	3.02
412.499	2.96
412.861	2.81
413.223	2.9
413.586	3.09
413.948	2.85
414.31	3.11
414.672	2.69
415.035	2.88
415.397	3.27
415.759	2.74
416.121	3.14
416.483	2.82
416.845	2.9
417.206	2.77
417.568	3.09
417.93	2.88
418.292	2.81
418.653	3.1
419.015	2.81
419.377	3.04
419.738	2.96
420.1	2.95
420.461	3.03
420.822	2.98
421.184	3
421.545	3.04
421.906	2.81
422.267	2.93
422.629	2.91
422.99	2.99
423.351	2.96
423.712	2.85
424.073	2.97
424.434	2.95
424.795	2.9
425.155	2.95
425.516	2.87
425.877	2.89
426.238	2.93
426.598	3.02
426.959	2.94
427.32	2.98
427.68	2.89
428.041	2.96
428.401	3.07
428.761	3
429.122	2.97
429.482	2.89
429.842	3.16
430.202	3.07
430.563	3.11
430.923	2.89
431.283	3.04
431.643	2.92
432.003	2.95
432.363	3.06
432.722	2.84
433.082	3
433.442	2.92
433.802	2.88
434.161	2.99
434.521	3.24
434.881	3.07
435.24	2.88
435.6	3.03
435.959	3.03
436.319	3.11
436.678	3.07
437.037	2.98
437.396	3.13
437.756	3.06
438.115	2.96
438.474	3.22
438.833	3.03
439.192	2.82
439.551	3.27
439.91	3.02
440.269	3.01
440.628	2.96
440.987	3.22
441.345	2.93
441.704	3.09
442.063	2.99
442.421	3.05
442.78	2.91
443.138	2.97
443.497	3.06
443.855	3.12
444.214	3.15
444.572	3.12
444.93	3.2
445.288	3.12
445.647	3.22
446.005	3.03
446.363	3.15
446.721	3.08
447.079	2.89
447.437	2.89
447.795	3.03
448.153	3.01
448.51	2.96
448.868	3.01
449.226	3.14
449.584	3.01
449.941	3.14
450.299	3.08
450.656	3.22
451.014	3.11
451.371	3.13
451.729	3.01
452.086	3.31
452.443	3.11
452.801	3.25
453.158	2.94
453.515	2.95
453.872	3.17
454.229	3.09
454.586	2.96
454.943	3.12
455.3	3.12
455.657	3.02
456.014	3.06
456.371	3.12
456.727	3.14
457.084	3.28
457.441	3.09
457.797	3.1
458.154	3.26
458.51	3.46
458.867	3.45
459.223	3.23
459.58	3.19
459.936	3.13
460.292	3.06
460.648	3.15
461.005	2.98
461.361	3.24
461.717	3.09
462.073	3.03
462.429	3.16
462.785	3.21
463.141	3.02
463.496	3.13
463.852	3.25
464.208	3.22
464.564	3.11
464.919	2.99
465.275	3.3
465.631	3.31
465.986	3.16
466.342	2.96
466.697	3.09
467.052	3.16
467.408	3.4
467.763	3.04
468.118	3.22
468.473	2.99
468.829	3.25
469.184	3.13
469.539	3.12
469.894	2.99
470.249	3.43
470.603	3.23
470.958	3.37
471.313	3.12
471.668	3.4
472.023	3.19
472.377	3.21
472.732	3.22
473.086	3.08
473.441	3.14
473.795	3.2
474.15	3.3
474.504	3.31
474.859	3.22
475.213	2.99
475.567	3.13
475.921	2.94
476.275	3.27
476.63	3.29
476.984	3.21
477.338	3.36
477.692	3.16
478.045	3.03
478.399	3.2
478.753	3.18
479.107	3.11
479.461	3.29
479.814	3.24
480.168	3.23
480.521	3.17
480.875	3.19
481.228	3.29
481.582	3.13
481.935	3.25
482.289	3.19
482.642	3.18
482.995	3.04
483.348	3.1
483.701	3.21
484.055	3.21
484.408	3.35
484.761	3.12
485.114	3.06
485.466	2.94
485.819	2.95
486.172	2.98
486.525	3.07
486.878	3.09
487.23	3.12
487.583	3.14
487.936	3.17
488.288	3.13
488.641	3.2
488.993	3
489.345	3.07
489.698	3.07
490.05	3.03
490.402	3.14
490.754	3.15
491.107	3.19
491.459	3.18
491.811	3.2
492.163	3.2
492.515	3.19
492.866	3.28
493.218	3.13
493.57	3.04
493.922	3.05
494.274	3.18
494.625	3.19
494.977	3.31
495.328	3.28
495.68	3.21
496.031	3.29
496.383	3.25
496.734	3.47
497.086	3.25
497.437	3.38
497.788	3.22
498.139	3.18
498.49	3.33
498.842	3.07
499.193	3.15
499.544	3.17
499.894	3.05
500.245	3.21
500.596	3.29
500.947	3.3
501.298	3.31
501.648	3.28
501.999	3.45
502.35	3.24
502.7	3.17
503.051	3.03
503.401	3.25
503.752	3.46
504.102	3.32
504.452	3.32
504.803	3.24
505.153	3.23
505.503	3.23
505.853	3.3
506.203	3.27
506.553	3.25
506.903	3.22
507.253	3.36
507.603	3.24
507.953	3.36
508.303	3.45
508.652	3.19
509.002	3.49
509.352	3.44
509.701	3.21
510.051	3.34
510.4	3.19
510.75	3.31
511.099	3.27
511.449	3.23
511.798	3.32
512.147	3.28
512.496	3.21
512.846	3.35
513.195	3.31
513.544	3.22
513.893	3.3
514.242	3.15
514.591	3.38
514.939	3.16
515.288	3.23
515.637	3.4
515.986	3.26
516.334	3.46
516.683	3.33
517.032	3.3
517.38	3.44
517.729	3.32
518.077	3.3
518.426	3.25
518.774	3.37
519.122	3.26
519.47	3.25
519.819	3.23
520.167	3.26
520.515	3.21
520.863	3.19
521.211	3.28
521.559	3.38
521.907	3.24
522.255	3.27
522.602	3.27
522.95	3.37
523.298	3.26
523.645	3.4
523.993	3.2
524.341	3.41
524.688	3.38
525.036	3.31
525.383	3.43
525.73	3.56
526.078	3.34
526.425	3.22
526.772	3.33
527.119	3.27
527.466	3.27
527.814	3.2
528.161	3.17
528.508	3.34
528.854	3.25
529.201	3.25
529.548	3.16
529.895	3.17
530.242	3.03
530.588	3.08
530.935	3.1
531.282	3.16
531.628	3.22
531.975	3.26
532.321	3.28
532.667	3.3
533.014	3.35
533.36	3.39
533.706	3.31
534.052	3.29
534.399	3.16
534.745	3.22
535.091	3.17
535.437	3.24
535.783	3.23
536.129	3.33
536.474	3.31
536.82	3.33
537.166	3.36
537.512	3.43
537.857	3.38
538.203	3.3
538.549	3.23
538.894	3.3
539.239	3.37
539.585	3.31
539.93	3.29
540.276	3.44
540.621	3.54
540.966	3.36
541.311	3.24
541.656	3.36
542.001	3.37
542.346	3.37
542.691	3.24
543.036	3.19
543.381	3.1
543.726	3.2
544.071	3.35
544.415	3.37
544.76	3.36
545.105	3.38
545.449	3.33
545.794	3.43
546.138	3.43
546.483	3.47
546.827	3.45
547.171	3.42
547.516	3.5
547.86	3.31
548.204	3.28
548.548	3.26
548.892	3.34
549.236	3.21
549.58	3.34
549.924	3.38
550.268	3.47
550.612	3.52
550.956	3.52
551.3	3.4
551.643	3.57
551.987	3.65
552.33	3.51
552.674	3.41
553.017	3.41
553.361	3.34
553.704	3.71
554.048	3.54
554.391	3.22
554.734	3.32
555.077	3.6
555.42	3.35
555.764	3.5
556.107	3.26
556.45	3.27
556.793	3.48
557.135	3.54
557.478	3.53
557.821	3.53
558.164	3.31
558.507	3.35
558.849	3.47
559.192	3.57
559.534	3.37
559.877	3.53
560.219	3.5
560.562	3.63
560.904	3.52
561.246	3.39
561.589	3.53
561.931	3.43
562.273	3.32
562.615	3.44
562.957	3.46
563.299	3.28
563.641	3.36
563.983	3.56
564.325	3.25
564.667	3.44
565.008	3.38
565.35	3.48
565.692	3.22
566.033	3.5
566.375	3.72
566.716	3.69
567.058	3.35
567.399	3.43
567.741	3.31
568.082	3.55
568.423	3.3
568.764	3.36
569.105	3.51
569.447	3.46
569.788	3.56
570.129	3.47
570.47	3.5
570.811	3.53
571.151	3.62
571.492	3.48
571.833	3.45
572.174	3.44
572.514	3.5
572.855	3.44
573.195	3.44
573.536	3.37
573.876	3.23
574.217	3.25
574.557	3.56
574.898	3.55
575.238	3.4
575.578	3.32
575.918	3.6
576.258	3.66
576.598	3.67
576.938	3.48
577.278	3.47
577.618	3.48
577.958	3.39
578.298	3.33
578.638	3.44
578.977	3.22
579.317	3.28
579.657	3.48
579.996	3.52
580.336	3.49
580.675	3.47
581.014	3.71
581.354	3.53
581.693	3.5
582.032	3.35
582.372	3.43
582.711	3.58
583.05	3.3
583.389	3.36
583.728	3.32
584.067	3.68
584.406	3.51
584.745	3.72
585.083	3.6
585.422	3.71
585.761	3.45
586.1	3.84
586.438	3.55
586.777	3.66
587.115	3.67
587.454	3.52
587.792	3.36
588.13	3.52
588.469	3.34
588.807	3.76
589.145	3.31
589.483	3.3
589.821	3.55
590.159	3.44
590.497	3.76
590.835	3.87
591.173	3.41
591.511	3.85
591.849	3.5
592.187	3.54
592.524	3.47
592.862	3.71
593.2	3.52
593.537	3.43
593.875	3.23
594.212	3.31
594.55	3.56
594.887	3.67
595.224	3.41
595.561	3.39
595.899	3.35
596.236	3.37
596.573	3.62
596.91	3.09
597.247	3.22
597.584	3.71
597.921	3.43
598.258	3.41
598.594	3.45
598.931	3.4
599.268	3.58
599.604	3.35
599.941	3.58
600.277	3.61
600.614	3.54
600.95	3.3
601.287	3.45
601.623	3.5
601.959	3.28
602.296	3.32
602.632	3.44
602.968	3.83
603.304	3.57
603.64	3.27
603.976	3.64
604.312	3.29
604.648	3.54
604.984	3.74
605.319	3.42
605.655	3.51
605.991	3.36
606.326	3.56
606.662	3.57
606.998	3.17
607.333	3.43
607.668	3.47
608.004	3.61
608.339	3.75
608.674	3.59
609.01	3.42
609.345	3.38
609.68	3.64
610.015	3.36
610.35	3.4
610.685	3.42
611.02	3.47
611.355	3.45
611.689	3.4
612.024	3.46
612.359	3.24
612.694	3.61
613.028	3.36
613.363	3.8
613.697	3.64
614.032	3.75
614.366	3.86
614.7	3.85
615.035	3.74
615.369	3.76
615.703	3.56
616.037	3.42
616.371	3.15
616.705	3.17
617.039	3.7
617.373	3.46
617.707	3.41
618.041	3.34
618.375	3.38
618.709	3.47
619.042	3.39
619.376	3.68
619.71	3.95
620.043	3.63
620.377	3.51
620.71	3.56
621.043	3.43
621.377	3.56
621.71	3.68
622.043	3.47
622.376	3.03
622.709	3.59
623.043	3.32
623.376	3.77
623.709	3.51
624.041	4.08
624.374	3.46
624.707	3.39
625.04	3.79
625.373	3.13
625.705	3.34
626.038	3.72
626.37	3.41
626.703	3.28
627.035	3.7
627.368	3.82
627.7	3.46
628.032	3.56
628.365	4.04
628.697	3.42
629.029	3.13
629.361	3.49
629.693	3.77
630.025	3.34
630.357	3.53
630.689	3.67
631.021	3.86
631.353	3.63
631.684	3.33
632.016	3.42
632.348	3.87
632.679	3.63
633.011	3.76
633.342	3.74
633.674	3.58
634.005	3.76
634.336	3.76
634.668	4.05
634.999	3.43
635.33	3.89
635.661	3.67
635.992	3.36
636.323	3.77
636.654	3.89
636.985	3.58
637.316	3.6
637.647	3.18
637.977	3.7
638.308	3.9
638.639	3.38
638.969	3.53
639.3	3.59
639.63	3.19
639.961	3.24
640.291	3.94
640.622	4.03
640.952	3.28
641.282	3.97
641.612	3.87
641.943	3.67
642.273	3.62
642.603	3.9
642.933	3.88
643.263	4.04
643.592	3.65
643.922	3.37
644.252	3.39
644.582	3.78
644.911	3.49
645.241	3.85
645.571	3.63
645.9	3.24
646.23	3.65
646.559	4.09
646.888	3.49
647.218	3.29
647.547	4.04
647.876	3.44
648.205	3.59
648.534	3.63
648.863	3.2
649.192	4.15
649.521	3.68
649.85	3.43
650.179	3.85
650.508	3.47
650.837	3.11
651.165	3.4
651.494	4.18
651.822	3.82
652.151	3.44
652.479	3.93
652.808	3.43
653.136	3.93
653.465	3.07
653.793	3.12
654.121	3.29
654.449	3.86
654.777	3.9
655.105	4.13
655.433	3.4
655.761	3.35
656.089	4.02
656.417	3.8
656.745	3.54
657.073	3.42
657.4	4.55
657.728	3.47
658.056	3.62
658.383	3.62
658.711	4.3
659.038	3.44
659.365	4.17
659.693	3.88
660.02	3.86
660.347	3.43
660.674	3.54
661.001	4
661.329	3.23
661.656	3.84
661.982	3.72
662.309	4.06
662.636	3.61
662.963	3.87
663.29	4.14
663.616	3.75
663.943	3.3
664.27	3.53
664.596	4.41
664.923	4.09
665.249	3.55
665.576	4.04
665.902	4.48
666.228	3.76
666.554	4.31
666.881	3.28
667.207	3.79
667.533	3.78
667.859	3.79
668.185	4.16
668.511	3.7
668.837	3.28
669.162	3.62
669.488	3.46
669.814	3.55
670.139	3.85
670.465	3.81
670.791	3.72
671.116	4.43
671.442	3.4
671.767	3.84
672.092	3.85
672.418	3.74
672.743	3.88
673.068	3.26
673.393	4.04
673.718	3.77
674.043	4.02
674.368	3.08
674.693	4.71
675.018	3.7
675.343	3.94
675.667	3.82
675.992	4.02
676.317	3.63
676.641	3.9
676.966	4.04
677.29	3.18
677.615	4.55
677.939	3.58
678.264	4.73
678.588	3.67
678.912	4.34
679.236	4.7
679.56	3.42
679.885	3.98
680.209	3.34
680.532	3.87
680.856	4.4
681.18	3.49
681.504	4.07
681.828	4.78
682.152	3.44
682.475	4.3
682.799	3.75
683.122	3.9
683.446	3.71
683.769	4.68
684.093	3.84
684.416	4.37
684.739	3.75
685.062	3.61
685.386	4.37
685.709	3.04
686.032	3.62
686.355	4.16
686.678	4.58
687.001	3.82
687.324	3.62
687.646	3.76
687.969	3.68
688.292	4.1
688.614	4.13
688.937	4.52
689.26	3.59
689.582	4.71
689.904	3.58
690.227	4.25
690.549	4.03
690.871	4.24
691.194	3.44
691.516	2.84
691.838	3.62
692.16	3.82
692.482	3.64
692.804	4.24
693.126	4.46
693.448	3.96
693.769	4.5
694.091	4.29
694.413	4.48
694.735	3.58
695.056	3.7
695.378	3.94
695.699	3.48
696.021	3.2
696.342	4.05
696.663	3.9
696.984	4.53
697.306	2.25
697.627	4.51
697.948	4.77
698.269	3.5
698.59	4.47
698.911	3.32
699.232	4.42
699.553	4.67
699.873	4.44
700.194	4.79
700.515	4.5
700.835	3.74
701.156	4.04
701.477	3.85
701.797	3.46
702.117	4.2
702.438	4.84
702.758	3.9
703.078	4.05
703.398	3.93
703.719	4.36
704.039	3.09
704.359	4.17
704.679	3.64
704.999	2.7
705.319	3.45
705.638	3.32
705.958	3.5
706.278	2.23
706.597	4.25
706.917	4.02
707.237	4.25
707.556	3.72
707.876	5.23
708.195	4.65
708.514	3.68
708.834	4.3
709.153	4.49
709.472	4.76
709.791	4.13
710.11	3.92
710.429	3.79
710.748	4.78
711.067	4.17
711.386	4.26
711.705	4.28
712.023	4.16
712.342	3.37
712.661	3.38
712.979	4.49
713.298	4.21
713.616	4.82
713.935	3.91
714.253	3.8
714.572	4.09
714.89	4.36
715.208	5.28
715.526	4.62
715.844	3.83
716.162	5.56
716.48	4.67
716.798	4.76
717.116	3.2
717.434	4.7
717.752	2.35
718.069	4.87
718.387	3.11
718.705	4.05
719.022	2.85
719.34	3.92
719.657	3
719.975	4.28
720.292	4.4
720.609	4.25
720.927	4.05
721.244	5.15
721.561	4.26
721.878	4.7
722.195	3.38
722.512	4.23
722.829	4.91
723.146	5.28
723.463	4.94
723.779	4.12
724.096	4.56
724.413	4.01
724.729	4.8
725.046	4.01
725.362	4.83
725.679	4.71
725.995	3.23
726.311	4.24
726.628	5.12
726.944	4.5
727.26	5.92
727.576	5.36
727.892	4.69
728.208	5.07
728.524	2.37
728.84	3.18
729.156	2.98
729.472	3.12
729.787	2.73
730.103	3.96
730.419	5.58
730.734	3.73
731.05	3.8
731.365	3.46
731.681	4.24
731.996	4.64
732.311	4.49
732.626	3.44
732.942	3.83
733.257	4.5
733.572	3.25
733.887	4.19
734.202	4.27
734.517	4.75
734.832	4.66
735.146	3.35
735.461	3.77
735.776	4.44
736.091	4.92
736.405	4.15
736.72	2.82
737.034	4.76
737.349	6.37
737.663	2.93
737.977	5.17
738.292	4.53
738.606	5.07
738.92	5.66
739.234	5.25
739.548	4.22
739.862	5.98
740.176	3.92
740.49	3.63
740.804	5.6
741.117	4.44
741.431	4.66
741.745	3.64
742.058	5.61
742.372	2.79
742.685	3.49
742.999	4.33
743.312	4.99
743.626	4.09
743.939	2.75
744.252	3.18
744.565	2.26
744.878	6.37
745.191	1.69
745.505	3.04
745.817	5.01
746.13	3.53
746.443	5.93
746.756	6.99
747.069	3.27
747.381	4.3
747.694	2.53
748.007	4.89
748.319	3.7
748.632	5.7
748.944	3.58
749.256	5.54
749.569	3.76
749.881	6.17
750.193	5.76
750.505	2.97
750.817	5.15
751.129	3.19
751.441	6.56
751.753	5.64
752.065	4.37
752.377	3.39
752.689	3.77
753	4.8
753.312	4.75
753.624	3.84
753.935	6
754.247	7.86
754.558	5.06
754.869	4.62
755.181	4.95
755.492	4.86
755.803	4.03
756.114	5.47
756.425	2.78
756.736	4.1
757.047	5.15
757.358	4.76
757.669	2.82
757.98	4.66
758.291	5.24
758.601	3.94
758.912	3.43
759.223	5.1
759.533	4
759.844	2.49
760.154	4.74
760.464	6.69
760.775	4.21
761.085	4.97
761.395	6.35
761.705	2.18
762.016	4
762.326	3.02
762.636	4.51
762.945	2.93
763.255	4.81
763.565	3.81
763.875	4.69
764.185	3.06
764.494	3.89
764.804	4.65
765.113	5.69
765.423	3.42
765.732	4.74
766.042	3.36
766.351	5.13
766.66	6.07
766.97	6.46
767.279	3.24
767.588	5.4
767.897	5.98
768.206	2.89
768.515	3.18
768.824	4.99
769.133	5.44
769.441	5.6
769.75	4.78
770.059	6.84
770.367	5.07
770.676	4.04
770.984	6.74
771.293	2.72
771.601	8.93
771.91	1.5
772.218	6.26
772.526	7.61
772.834	5.65
773.142	2.09
773.45	1.57
773.758	3.79
774.066	2.62
774.374	4.67
774.682	6.04
774.99	6.25
775.298	2.75
775.605	2.99
775.913	1.9
776.22	6.2
776.528	3.24
776.835	6.9
777.143	4.67
777.45	3.25
777.757	7.43
778.065	6.66
778.372	3.02
778.679	4.36
778.986	3.28
779.293	1.83
779.6	4.99
779.907	3.89
780.214	4.98
780.52	5.34
780.827	6.35
781.134	5.07
781.44	1.35
781.747	2.18
782.053	5.52
782.36	0.89
782.666	6.67
782.973	1.4
783.279	7.72
783.585	4.46
783.891	7.28
784.197	4.52
784.503	7.4
784.809	1.64
785.115	6
785.421	5.89
785.727	5.97
786.033	1.94
786.339	2.72
786.644	5.56
786.95	4.44
787.255	5.45
787.561	9.43
787.866	0.96
788.172	2.1
788.477	-1.13
788.782	3.8
789.088	5.06
789.393	3.87
789.698	2.75
790.003	6.89
790.308	5.6
790.613	3.97
790.918	8.37
791.223	4.17
791.527	0.09
791.832	6.08
792.137	1.42
792.441	4.61
792.746	3.88
793.05	2.46
793.355	4.42
793.659	5.74
793.963	4.48
794.268	4.54
794.572	4.32
794.876	3.99
795.18	10.1
795.484	0.7
795.788	7.38
796.092	4.43
796.396	2.58
796.7	1.85
797.004	5.01
797.307	2.06
797.611	5.11
797.915	4.81
798.218	1.05
798.522	6.8
798.825	4.22
799.128	3.12
799.432	2.29
799.735	3.5
800.038	5.75
800.341	2.94
800.644	4.86
800.947	6.92
801.25	7.05
801.553	-0.53
801.856	2.32
802.159	0.97
802.462	1.27
802.764	5.41
803.067	3.95
803.37	1.87
803.672	-0.72
803.975	0.04
804.277	4.06
804.579	3.57
804.882	4.11
805.184	2.48
805.486	-1.87
805.788	8.55
806.09	9.04
806.392	2.18
806.694	6.01
806.996	6.27
807.298	7.05
807.6	5.85
807.902	3.09
808.203	0.65
808.505	2.11
808.807	7.33
809.108	0.61
809.409	8.92
809.711	-1.63
810.012	6.96
810.313	8.25
810.615	6.27
810.916	0.2
811.217	3.46
811.518	14.61
811.819	2.74
812.12	0.25
812.421	-1.49
812.722	1.64
813.023	6.78
813.323	7.8
813.624	3.91
813.925	16.1
814.225	3.75
814.526	7.91
814.826	4.42
815.126	6.26
815.427	1
815.727	7.62
816.027	4.48
816.327	5.37
816.627	-1.57
816.927	8.37
817.227	2.41
817.527	2.52
817.827	6.47
818.127	-3.64
818.427	3.82
818.727	4.21
819.026	4.86
819.326	14.17
819.625	3.92
819.925	4.36
820.224	9.86
820.524	0.6
820.823	9.15
821.122	5.7
821.421	0.9
821.72	2.02
822.019	9.3
822.318	7.02
822.617	1.7
822.916	3.4
823.215	5.54
823.514	8.52
823.813	2.95
824.111	6.6
824.41	9.97
824.709	7.27
825.007	5.22
825.306	6.28
825.604	6.82
825.902	6.35
826.201	6.76
826.499	6.02
826.797	5.89
827.095	6.97
827.393	6.6
827.691	7.93
827.989	4.2
828.287	5.92
828.585	3.92
828.882	6.68
829.18	5.97
829.478	8.32
829.775	8.15
830.073	7.62
830.37	6.45
830.668	4.41
830.965	8.3
831.263	6.18
831.56	8.26
831.857	4.92
832.154	6.66
832.451	7.94
832.748	10.37
833.045	7.17
833.342	9.01
833.639	6.82
833.936	4.27
834.232	-2.09
834.529	0.06
834.826	5.66
835.122	10.64
835.419	0.76
835.715	5.27
836.012	7.65
836.308	5.1
836.604	2.31
836.901	6.2
837.197	1.65
837.493	6.04
837.789	2
838.085	5.12
838.381	8.37
838.677	3.21
838.972	6.04
839.268	7.39
839.564	9.14
839.86	2.1
840.155	-2.52
840.451	-5
840.746	8.16
841.042	9.92
841.337	10.99
841.632	1.32
841.928	8.02
842.223	0.96
842.518	-6.19
842.813	10.47
843.108	1.61
843.403	14.54
843.698	1.1
843.993	9.71
844.287	-4.56
844.582	-4.07
844.877	2.41
845.171	5.77
845.466	-3.38
845.761	-10.99
846.055	8.2
846.349	6.49
846.644	-2.32
846.938	-22.14
847.232	-2.24
847.526	0.1
847.82	33.7
848.114	-1.26
848.408	1.3
848.702	23
848.996	-11.69
849.29	-10.81
849.584	25.64
849.877	1.86
850.171	14.44
850.465	4.72
850.758	9.48
851.052	-13.71
851.345	-8.52
851.638	26.44
851.932	-39.22
852.225	6.9
852.518	-11.28
852.811	-22.38
853.104	-33.65
853.397	1.07
853.69	-11.08
853.983	-31.06
854.276	18.58
854.569	1.01
854.861	9.74
855.154	4.49
855.447	-46.73
855.739	-6.77
856.032	12.89
856.324	8.82
856.616	13.57
856.909	10.96
857.201	9.6
857.493	-6.34
857.785	-20.58
858.077	0.63
858.369	-3.91
858.661	-4.01
858.953	-19.24
859.245	-8.6
859.537	4.27
859.829	14.93
860.12	27.52
860.412	-44.6
860.703	6.74
860.995	-13.16
861.286	-9.43
861.578	7.96
861.869	-1.1
862.16	3.7
862.452	-1.6
862.743	-29.18
863.034	0.36
863.325	-24.36
863.616	-34.47
863.907	-7.64
864.198	-2.26
864.488	6.7
864.779	-24.73
865.07	-9.8
865.36	-15.57
865.651	10.41
865.941	-1.85
866.232	-15.16
866.522	-23.6
866.813	-1.29
867.103	15.41
867.393	-19.81
867.683	11.07
867.973	-35.35
868.263	-1.81
868.553	45.37
868.843	8.64
869.133	-67.19
869.423	2.36
869.713	-9.59
870.002	12.7
870.292	7.26
870.582	12.93
870.871	-52.81
871.161	-9.07
871.45	7.29
871.739	-25.24
872.029	-41.35
872.318	10.86
872.607	43.17
872.896	-15.89
873.185	3.01
873.474	-77.74
873.763	-16.27
874.052	-8.31
874.341	10.09
874.63	12.51
874.918	-4.72
875.207	19.04
875.496	-51.25
875.784	-82.53
876.073	-63.23
876.361	-110.13
876.649	-21.71
876.938	-7.33
877.226	-22.6
877.514	4.49
877.802	8.67
878.09	-32.42
878.378	4.83
878.666	-19.82
878.954	-26.14
879.242	-18.11
879.53	-31.96
879.817	24.59
880.105	-6.64
880.392	-17.03
880.68	-52.6
880.967	1.62
881.255	-2.2
881.542	-13.27
881.83	-50.76
882.117	13.05
882.404	-44.66
882.691	17.67
882.978	-16.19
883.265	-6.09
883.552	15.13
883.839	-8
884.126	-5.85
884.413	25.54
884.699	3.12
884.986	11.38
885.273	-3.25
885.559	-3.25
885.846	-3.25
