Data from 0191_forehead_Reflection__1__420.txt Node

Date: Fri Dec 15 20:28:11 CST 2023
User: ToomeyLab
Spectrometer: FLMS14357
Trigger mode: 0
Integration Time (sec): 1.000000E-2
Scans to average: 100
Electric dark correction enabled: true
Nonlinearity correction enabled: false
Boxcar width: 0
XAxis mode: Wavelengths
Number of Pixels in Spectrum: 2048
>>>>>Begin Spectral Data<<<<<
189.047	-33.32
189.435	-33.32
189.823	-33.32
190.211	1066.67
190.599	137.01
190.987	175.65
191.375	-41.72
191.763	11.48
192.151	61.08
192.538	123.4
192.926	-137.22
193.314	85.09
193.702	-36.88
194.089	-269.41
194.477	570.24
194.864	-394.62
195.252	39.56
195.639	51.91
196.027	306.98
196.414	63.97
196.801	48.72
197.189	238.07
197.576	219.79
197.963	-69.47
198.351	14.67
198.738	-7.8
199.125	1.89
199.512	48.24
199.899	37.37
200.286	23.88
200.673	41.96
201.06	-117.25
201.447	67.72
201.833	24.77
202.22	1.22
202.607	32.77
202.994	32.52
203.38	27.27
203.767	35.44
204.154	-12.22
204.54	45.24
204.927	-64.1
205.313	-37.41
205.699	20.31
206.086	35.87
206.472	18.49
206.858	36.27
207.245	-54.54
207.631	26.08
208.017	62.41
208.403	-44.15
208.789	14.4
209.175	19.96
209.561	-14.33
209.947	-22.89
210.333	-4.54
210.719	14.12
211.105	16.01
211.491	-135.79
211.876	27.54
212.262	44.24
212.648	27.78
213.034	41.87
213.419	38.17
213.805	-2.82
214.19	-4.07
214.576	-4.35
214.961	-98.08
215.346	-47.03
215.732	17.66
216.117	17.48
216.502	-48.72
216.888	20.66
217.273	3.62
217.658	-15
218.043	22.75
218.428	-31.81
218.813	-20.76
219.198	-95.85
219.583	-6.28
219.968	-0.11
220.353	-21.67
220.738	7.17
221.122	-11.43
221.507	-32.41
221.892	-7.8
222.276	-18.57
222.661	-3.13
223.046	20.37
223.43	11.57
223.815	1.31
224.199	-2.45
224.583	-6.85
224.968	5.24
225.352	14.13
225.736	-3.43
226.121	-10.8
226.505	-2.16
226.889	0.97
227.273	3.25
227.657	6.79
228.041	1.7
228.425	-1.54
228.809	7.02
229.193	2.41
229.577	6.05
229.961	2.26
230.344	3.39
230.728	4.01
231.112	4.06
231.495	3.57
231.879	2.84
232.263	4.12
232.646	3.61
233.03	2.4
233.413	1.64
233.797	3.61
234.18	3.71
234.563	5.87
234.946	5.57
235.33	2.58
235.713	5
236.096	4.71
236.479	3.78
236.862	3.01
237.245	7.28
237.628	1.7
238.011	5.33
238.394	5.36
238.777	4.06
239.16	2.48
239.543	6.25
239.925	5.63
240.308	6.66
240.691	5.53
241.073	4.92
241.456	1.8
241.838	4.26
242.221	2.99
242.603	6.03
242.986	4.13
243.368	4.07
243.75	4.67
244.133	4.17
244.515	4.46
244.897	4.61
245.279	5.04
245.661	3.99
246.043	3.09
246.425	3.05
246.807	3.81
247.189	4.71
247.571	4.19
247.953	4.32
248.335	4.64
248.717	4.37
249.098	4.16
249.48	4.51
249.862	4.63
250.243	4.39
250.625	4.59
251.006	4.72
251.388	3.61
251.769	4.11
252.151	5.9
252.532	3.14
252.913	3.85
253.295	3.64
253.676	4.3
254.057	4.97
254.438	4.66
254.819	5.08
255.2	4.44
255.581	3.83
255.962	2.82
256.343	4.68
256.724	3.51
257.105	4.5
257.486	5.58
257.867	4.44
258.247	4.49
258.628	3.92
259.009	5.11
259.389	4.21
259.77	3.52
260.15	3.83
260.531	3.69
260.911	4.59
261.292	4.55
261.672	4.54
262.052	4.36
262.432	4.59
262.813	4.47
263.193	3.83
263.573	3.59
263.953	4.57
264.333	5.09
264.713	4.44
265.093	3.2
265.473	4.65
265.853	3.93
266.233	5.54
266.612	2.91
266.992	3.8
267.372	4.16
267.752	4.43
268.131	4.25
268.511	5.24
268.89	4.54
269.27	4.06
269.649	3.43
270.029	4.1
270.408	5.44
270.787	3.93
271.167	4.59
271.546	4.5
271.925	3.61
272.304	4.04
272.683	4.47
273.062	3.94
273.441	4.16
273.82	3.34
274.199	4.54
274.578	4.29
274.957	4.31
275.336	4.17
275.715	3.76
276.093	4
276.472	4.1
276.851	3.95
277.229	4.11
277.608	3.23
277.986	4.6
278.365	3.96
278.743	4.03
279.122	4.13
279.5	4.1
279.878	4.25
280.257	4.53
280.635	4.19
281.013	4.19
281.391	4.35
281.769	4.65
282.147	4.62
282.525	5.08
282.903	4.2
283.281	4.52
283.659	4.85
284.037	4.13
284.415	4.48
284.792	4.85
285.17	3.51
285.548	3.79
285.925	3.58
286.303	4.43
286.68	4.12
287.058	4.19
287.435	3.95
287.813	4.46
288.19	4.26
288.567	4.18
288.945	4.81
289.322	4.24
289.699	4.54
290.076	5.01
290.453	4.36
290.83	4.02
291.207	4.13
291.584	4.73
291.961	4.62
292.338	4.37
292.715	4.81
293.092	4.63
293.469	4.56
293.845	4.63
294.222	3.97
294.599	4.46
294.975	4.97
295.352	5.15
295.728	4.16
296.105	4.76
296.481	5.47
296.858	4.99
297.234	5.16
297.61	4.9
297.986	4.75
298.363	5
298.739	5.04
299.115	5.15
299.491	4.85
299.867	5.06
300.243	5.24
300.619	5.45
300.995	5.34
301.371	5.29
301.746	5.27
302.122	5.45
302.498	5.83
302.874	5.14
303.249	5.1
303.625	5.37
304	5.76
304.376	5.4
304.751	5
305.127	6.17
305.502	5.18
305.878	5.37
306.253	5.33
306.628	6.3
307.003	5.22
307.378	6.3
307.754	6
308.129	5.35
308.504	6.08
308.879	5.71
309.254	6.54
309.629	6.72
310.003	6.23
310.378	6.55
310.753	6.59
311.128	6.65
311.502	6.45
311.877	6.86
312.252	6.16
312.626	6.52
313.001	6.25
313.375	6.56
313.75	5.9
314.124	6.77
314.498	6.62
314.873	6.67
315.247	6.22
315.621	6.71
315.995	5.92
316.369	6.55
316.743	6.43
317.117	7.64
317.491	6.89
317.865	6.79
318.239	6.74
318.613	7.5
318.987	7.87
319.361	6.33
319.734	8.03
320.108	7.16
320.482	7.4
320.855	7.95
321.229	7.3
321.602	7.29
321.976	7.78
322.349	7.32
322.723	7.65
323.096	8.19
323.469	6.85
323.843	8.1
324.216	8.2
324.589	7.73
324.962	8.2
325.335	7.53
325.708	8.17
326.081	7.81
326.454	8.02
326.827	8.09
327.2	7.82
327.573	8.01
327.945	8.42
328.318	7.35
328.691	7.32
329.063	7.97
329.436	7.65
329.809	8.65
330.181	8.09
330.553	8.35
330.926	8.5
331.298	8.31
331.671	8.21
332.043	9.11
332.415	9.21
332.787	8.55
333.159	8.82
333.532	8.49
333.904	8.57
334.276	8.86
334.648	8.8
335.02	9.29
335.391	8.85
335.763	8.12
336.135	8.81
336.507	9.23
336.879	8.92
337.25	8.64
337.622	8.23
337.993	8.67
338.365	9.08
338.736	9.45
339.108	8.81
339.479	8.75
339.851	9.24
340.222	8.8
340.593	8.87
340.964	8.69
341.336	9.66
341.707	8.77
342.078	9.11
342.449	9.5
342.82	9.47
343.191	9.43
343.562	9.24
343.933	9.23
344.303	9.32
344.674	9.47
345.045	9.23
345.416	9.8
345.786	8.93
346.157	9.66
346.527	9.33
346.898	9.29
347.268	9.55
347.639	9.32
348.009	9.62
348.38	9.38
348.75	9.79
349.12	9.55
349.49	10.36
349.861	9.46
350.231	9.38
350.601	10.04
350.971	9.86
351.341	10.37
351.711	9.89
352.081	10.13
352.45	9.91
352.82	10.43
353.19	10.64
353.56	10.13
353.929	10.27
354.299	10.81
354.669	10.08
355.038	10.75
355.408	10.62
355.777	10.32
356.147	10.64
356.516	10.66
356.885	10.2
357.254	10.41
357.624	10.37
357.993	10.66
358.362	10.48
358.731	10.52
359.1	10.6
359.469	10.74
359.838	10.63
360.207	10.82
360.576	10.62
360.945	10.98
361.314	11.14
361.682	10.78
362.051	10.76
362.42	11.44
362.788	11.28
363.157	11.16
363.525	11.32
363.894	10.91
364.262	11.44
364.631	11.16
364.999	11.17
365.367	11.04
365.735	11.88
366.104	11.57
366.472	11.65
366.84	11.04
367.208	11.18
367.576	11.93
367.944	11.99
368.312	11.87
368.68	11.46
369.048	11.65
369.416	11.84
369.783	11.7
370.151	11.92
370.519	11.94
370.886	11.91
371.254	11.8
371.621	12.65
371.989	12.11
372.356	11.67
372.724	12.07
373.091	11.53
373.458	11.89
373.826	11.85
374.193	12.15
374.56	12.48
374.927	12.6
375.294	12.25
375.661	12.22
376.028	11.66
376.395	12.1
376.762	12.47
377.129	12.53
377.496	12.46
377.863	12.44
378.229	12.12
378.596	12.56
378.963	12.31
379.329	12.39
379.696	12.55
380.062	12.62
380.429	12.61
380.795	12.61
381.161	12.74
381.528	13.18
381.894	12.42
382.26	12.87
382.626	13.24
382.993	12.38
383.359	13.16
383.725	12.72
384.091	12.95
384.457	13.24
384.823	13.31
385.188	13.24
385.554	12.92
385.92	13.1
386.286	13.41
386.651	13.3
387.017	13.81
387.383	13.48
387.748	12.93
388.114	13.59
388.479	13.19
388.845	13.59
389.21	13.65
389.575	13.7
389.94	13.52
390.306	13.78
390.671	14.14
391.036	13.47
391.401	13.28
391.766	13.55
392.131	13.75
392.496	13.95
392.861	13.99
393.226	13.95
393.591	14.03
393.956	13.68
394.32	13.8
394.685	13.93
395.05	14.09
395.414	14.19
395.779	13.91
396.143	13.99
396.508	14.18
396.872	14.36
397.236	14.32
397.601	14.34
397.965	14.72
398.329	14.27
398.694	14.5
399.058	14.63
399.422	14.21
399.786	14.42
400.15	14.54
400.514	14.66
400.878	14.36
401.242	14.81
401.605	14.82
401.969	14.91
402.333	14.9
402.697	14.9
403.06	14.99
403.424	14.93
403.787	14.75
404.151	15.04
404.514	15.03
404.878	14.85
405.241	15.32
405.604	15.17
405.968	15.05
406.331	15.15
406.694	15.23
407.057	14.95
407.42	15.14
407.783	15.05
408.146	15.46
408.509	15.28
408.872	15.31
409.235	15.27
409.598	15.65
409.961	15.19
410.323	15.74
410.686	15.51
411.049	15.19
411.411	15.21
411.774	15.41
412.136	15.76
412.499	15.37
412.861	15.23
413.223	15.75
413.586	15.75
413.948	16.04
414.31	16.2
414.672	15.68
415.035	15.63
415.397	16
415.759	15.68
416.121	16.23
416.483	15.71
416.845	15.86
417.206	15.84
417.568	16.13
417.93	15.95
418.292	15.95
418.653	16.13
419.015	16.17
419.377	15.88
419.738	16.22
420.1	16.06
420.461	16.26
420.822	16.26
421.184	16.02
421.545	16.13
421.906	15.94
422.267	16.12
422.629	16.16
422.99	16.08
423.351	16.21
423.712	16.31
424.073	16.39
424.434	16.37
424.795	16.16
425.155	16.31
425.516	16.47
425.877	16.42
426.238	16.36
426.598	16.54
426.959	16.36
427.32	16.47
427.68	16.59
428.041	16.6
428.401	16.86
428.761	16.91
429.122	16.88
429.482	16.9
429.842	17.06
430.202	17.15
430.563	17.11
430.923	17.21
431.283	17.35
431.643	16.99
432.003	17.24
432.363	17.37
432.722	17.51
433.082	17.34
433.442	17.41
433.802	17.47
434.161	17.29
434.521	17.76
434.881	17.48
435.24	17.34
435.6	17.29
435.959	17.43
436.319	17.52
436.678	17.77
437.037	17.69
437.396	17.74
437.756	18.02
438.115	17.71
438.474	17.93
438.833	17.77
439.192	17.74
439.551	18.06
439.91	17.96
440.269	18.07
440.628	17.75
440.987	18.06
441.345	17.91
441.704	18.23
442.063	18.04
442.421	17.95
442.78	17.93
443.138	18.02
443.497	18.18
443.855	18.18
444.214	18.32
444.572	18.42
444.93	18.54
445.288	18.51
445.647	18.64
446.005	18.42
446.363	18.44
446.721	18.59
447.079	18.21
447.437	18.52
447.795	18.52
448.153	18.48
448.51	18.41
448.868	18.45
449.226	18.41
449.584	18.56
449.941	18.85
450.299	18.82
450.656	18.81
451.014	18.9
451.371	18.97
451.729	18.88
452.086	19.32
452.443	19.07
452.801	19.17
453.158	19.05
453.515	19.07
453.872	19.42
454.229	19.29
454.586	19.31
454.943	19.41
455.3	19.52
455.657	19.2
456.014	19.47
456.371	19.43
456.727	19.5
457.084	19.73
457.441	19.79
457.797	19.7
458.154	20
458.51	19.74
458.867	19.85
459.223	19.88
459.58	19.91
459.936	19.75
460.292	19.86
460.648	19.74
461.005	19.71
461.361	19.82
461.717	19.68
462.073	19.62
462.429	19.8
462.785	19.83
463.141	19.83
463.496	20.02
463.852	20.31
464.208	20.07
464.564	20.52
464.919	20.53
465.275	20.6
465.631	20.55
465.986	20.56
466.342	20.58
466.697	20.45
467.052	20.69
467.408	20.63
467.763	20.77
468.118	20.58
468.473	20.63
468.829	20.83
469.184	20.8
469.539	20.95
469.894	20.86
470.249	21.03
470.603	21.24
470.958	20.91
471.313	21.24
471.668	21.33
472.023	21.33
472.377	20.92
472.732	21.07
473.086	21.11
473.441	21.04
473.795	21.44
474.15	21.32
474.504	21.62
474.859	21.53
475.213	21.3
475.567	21.39
475.921	21.42
476.275	21.55
476.63	21.61
476.984	21.5
477.338	21.84
477.692	21.77
478.045	21.69
478.399	21.57
478.753	22.01
479.107	21.65
479.461	21.82
479.814	21.76
480.168	21.84
480.521	22.02
480.875	21.9
481.228	21.88
481.582	21.86
481.935	21.94
482.289	22.03
482.642	22.14
482.995	22.07
483.348	21.98
483.701	21.97
484.055	22.06
484.408	22.14
484.761	21.82
485.114	21.61
485.466	21.36
485.819	21.29
486.172	21.3
486.525	21.31
486.878	21.29
487.23	21.55
487.583	21.7
487.936	21.95
488.288	22.15
488.641	22.11
488.993	21.93
489.345	21.79
489.698	21.83
490.05	21.83
490.402	21.78
490.754	21.98
491.107	22.13
491.459	22.51
491.811	22.57
492.163	22.76
492.515	22.74
492.866	22.71
493.218	22.56
493.57	22.39
493.922	22.42
494.274	22.51
494.625	22.59
494.977	22.77
495.328	23.02
495.68	23.25
496.031	23.52
496.383	23.52
496.734	23.74
497.086	23.83
497.437	23.63
497.788	23.8
498.139	23.55
498.49	23.71
498.842	23.61
499.193	23.58
499.544	23.73
499.894	23.57
500.245	23.6
500.596	23.93
500.947	24.04
501.298	23.95
501.648	24.14
501.999	24.15
502.35	24.23
502.7	24.17
503.051	24.31
503.401	24.2
503.752	24.62
504.102	24.41
504.452	24.4
504.803	24.52
505.153	24.5
505.503	24.86
505.853	24.5
506.203	24.6
506.553	24.8
506.903	24.61
507.253	24.87
507.603	24.72
507.953	24.92
508.303	24.87
508.652	24.96
509.002	24.99
509.352	24.97
509.701	24.88
510.051	24.84
510.4	25.09
510.75	24.95
511.099	25.06
511.449	24.92
511.798	25.06
512.147	25.09
512.496	24.94
512.846	25.12
513.195	25.12
513.544	25.21
513.893	25.38
514.242	25.2
514.591	25.28
514.939	25.36
515.288	25.36
515.637	25.66
515.986	25.8
516.334	25.81
516.683	25.83
517.032	25.87
517.38	25.88
517.729	25.72
518.077	25.9
518.426	25.94
518.774	26.07
519.122	25.9
519.47	25.67
519.819	25.7
520.167	25.86
520.515	25.62
520.863	25.66
521.211	25.64
521.559	25.97
521.907	25.89
522.255	26
522.602	26.12
522.95	26.48
523.298	26.38
523.645	26.46
523.993	26.55
524.341	26.64
524.688	26.47
525.036	26.55
525.383	26.52
525.73	26.84
526.078	26.64
526.425	26.66
526.772	26.84
527.119	26.53
527.466	26.65
527.814	26.48
528.161	26.38
528.508	26.49
528.854	26.66
529.201	26.55
529.548	26.66
529.895	26.55
530.242	26.24
530.588	26.25
530.935	26.12
531.282	26.06
531.628	26.17
531.975	26.31
532.321	26.5
532.667	26.86
533.014	27
533.36	27.16
533.706	27.24
534.052	27.33
534.399	27.26
534.745	27.16
535.091	27.1
535.437	27.09
535.783	26.99
536.129	27.04
536.474	27.1
536.82	27.37
537.166	27.64
537.512	27.83
537.857	27.71
538.203	27.94
538.549	27.83
538.894	27.67
539.239	27.72
539.585	27.83
539.93	28.1
540.276	28.16
540.621	28.28
540.966	28.35
541.311	28.24
541.656	28.47
542.001	28.39
542.346	28.35
542.691	28.33
543.036	28.05
543.381	27.7
543.726	27.77
544.071	27.97
544.415	27.85
544.76	28.05
545.105	28.19
545.449	28.5
545.794	28.58
546.138	28.73
546.483	28.8
546.827	28.91
547.171	28.77
547.516	29.13
547.86	28.93
548.204	29
548.548	28.95
548.892	29.06
549.236	29.14
549.58	29.17
549.924	29.51
550.268	29.42
550.612	29.6
550.956	29.74
551.3	29.74
551.643	29.8
551.987	29.89
552.33	30
552.674	30.32
553.017	30.04
553.361	30.04
553.704	30.38
554.048	30.02
554.391	30.19
554.734	30.13
555.077	30.3
555.42	29.98
555.764	30.1
556.107	30.44
556.45	30.14
556.793	30.15
557.135	30.63
557.478	30.65
557.821	31.04
558.164	30.87
558.507	30.98
558.849	30.78
559.192	30.95
559.534	30.83
559.877	31.19
560.219	31.05
560.562	31.3
560.904	31.05
561.246	31.35
561.589	31.22
561.931	31.43
562.273	31.36
562.615	31.31
562.957	31.45
563.299	31.27
563.641	31.29
563.983	31.43
564.325	31.42
564.667	31.45
565.008	31.78
565.35	31.53
565.692	31.65
566.033	31.76
566.375	31.85
566.716	31.72
567.058	31.69
567.399	31.69
567.741	31.85
568.082	32.01
568.423	31.8
568.764	31.77
569.105	31.66
569.447	31.93
569.788	31.93
570.129	32.22
570.47	32.12
570.811	32.19
571.151	32.39
571.492	32.38
571.833	32.39
572.174	32.37
572.514	32.33
572.855	32.54
573.195	32.5
573.536	32.59
573.876	32.13
574.217	32.51
574.557	32.28
574.898	32.59
575.238	32.39
575.578	32.41
575.918	32.63
576.258	32.72
576.598	32.96
576.938	32.8
577.278	32.98
577.618	32.79
577.958	32.9
578.298	32.8
578.638	33.1
578.977	33.2
579.317	33.44
579.657	33.51
579.996	33.16
580.336	33.31
580.675	33.55
581.014	33.84
581.354	33.64
581.693	33.72
582.032	33.44
582.372	33.91
582.711	33.88
583.05	33.34
583.389	33.73
583.728	33.75
584.067	34.14
584.406	33.99
584.745	34.01
585.083	34.3
585.422	34.25
585.761	34.08
586.1	34.43
586.438	34.27
586.777	34.27
587.115	34.5
587.454	34.64
587.792	34.56
588.13	34.33
588.469	34.32
588.807	34.29
589.145	34.46
589.483	34.15
589.821	34.72
590.159	34.77
590.497	34.75
590.835	34.98
591.173	34.95
591.511	34.97
591.849	34.8
592.187	34.87
592.524	35.08
592.862	34.91
593.2	35.03
593.537	34.9
593.875	35.07
594.212	35.25
594.55	35.26
594.887	35.48
595.224	34.96
595.561	35.02
595.899	35.73
596.236	35.43
596.573	35.53
596.91	35.22
597.247	35.62
597.584	35.48
597.921	35.66
598.258	35.65
598.594	36.01
598.931	35.75
599.268	35.86
599.604	35.54
599.941	35.59
600.277	35.47
600.614	35.17
600.95	35.71
601.287	36.2
601.623	36
601.959	35.95
602.296	36.13
602.632	36.48
602.968	36.14
603.304	36.37
603.64	36.19
603.976	36.53
604.312	36.05
604.648	36.2
604.984	36.19
605.319	36.25
605.655	36.5
605.991	36.32
606.326	36.18
606.662	36.18
606.998	36.27
607.333	36.29
607.668	36.52
608.004	36.59
608.339	36.93
608.674	36.51
609.01	36.8
609.345	36.49
609.68	36.76
610.015	36.88
610.35	36.81
610.685	37.36
611.02	37.07
611.355	37.16
611.689	37.28
612.024	37.14
612.359	36.85
612.694	37.26
613.028	37.37
613.363	37.34
613.697	37.21
614.032	37.35
614.366	37.57
614.7	37.79
615.035	37.42
615.369	37.53
615.703	37.56
616.037	37.72
616.371	37.44
616.705	37.83
617.039	37.91
617.373	37.82
617.707	37.88
618.041	38.4
618.375	38.04
618.709	38.09
619.042	38.11
619.376	38.33
619.71	38.47
620.043	38.64
620.377	38.23
620.71	38.06
621.043	38.03
621.377	38.18
621.71	38.42
622.043	38.35
622.376	37.99
622.709	38.3
623.043	38.59
623.376	38.49
623.709	38.5
624.041	39.13
624.374	39.17
624.707	38.88
625.04	38.62
625.373	38.76
625.705	39.1
626.038	38.69
626.37	38.71
626.703	39.42
627.035	38.83
627.368	39.63
627.7	38.98
628.032	38.85
628.365	39.29
628.697	39.32
629.029	39.24
629.361	39.28
629.693	39.03
630.025	38.94
630.357	39.04
630.689	39.51
631.021	39.72
631.353	39.57
631.684	39.51
632.016	39.44
632.348	39.85
632.679	39.83
633.011	39.64
633.342	39.73
633.674	39.42
634.005	39.93
634.336	40.15
634.668	40.2
634.999	40.07
635.33	40.1
635.661	40.09
635.992	39.81
636.323	40.78
636.654	40.19
636.985	40.54
637.316	40.54
637.647	40.23
637.977	40.37
638.308	40.44
638.639	40.26
638.969	40.4
639.3	40.1
639.63	40.19
639.961	40.28
640.291	40.43
640.622	40.57
640.952	40.23
641.282	40.92
641.612	40.86
641.943	41.12
642.273	41.07
642.603	41.65
642.933	41.16
643.263	41.21
643.592	40.93
643.922	40.88
644.252	41.31
644.582	41.38
644.911	40.96
645.241	41.19
645.571	41.39
645.9	40.81
646.23	41.56
646.559	41.85
646.888	41.66
647.218	41.47
647.547	41.65
647.876	41.66
648.205	42.42
648.534	41.34
648.863	41.59
649.192	42.26
649.521	41.23
649.85	41.84
650.179	41.76
650.508	41.73
650.837	41.82
651.165	40.94
651.494	41.65
651.822	42.1
652.151	41.44
652.479	41.88
652.808	41.48
653.136	42.27
653.465	41.47
653.793	41.87
654.121	41.6
654.449	42.92
654.777	41.47
655.105	42.13
655.433	41.94
655.761	42.42
656.089	42.44
656.417	42.24
656.745	41.95
657.073	41.9
657.4	42.46
657.728	42.56
658.056	42.59
658.383	42.58
658.711	42.58
659.038	42.73
659.365	42.95
659.693	43.38
660.02	42.66
660.347	42.69
660.674	43.21
661.001	42.55
661.329	43.03
661.656	42.71
661.982	43.37
662.309	42.45
662.636	42.71
662.963	43.27
663.29	43.1
663.616	43.64
663.943	42.91
664.27	43.26
664.596	42.64
664.923	43.28
665.249	43.59
665.576	43.52
665.902	43.49
666.228	43.59
666.554	43.35
666.881	43.46
667.207	43.42
667.533	43.91
667.859	43.89
668.185	43.53
668.511	43.33
668.837	42.95
669.162	44.28
669.488	43.14
669.814	43.46
670.139	44.46
670.465	43.98
670.791	44.52
671.116	43.59
671.442	44.36
671.767	45.19
672.092	44.37
672.418	44.19
672.743	44.06
673.068	43.65
673.393	44.43
673.718	44.11
674.043	44.22
674.368	44.28
674.693	44.29
675.018	44.03
675.343	44.2
675.667	44.65
675.992	44.03
676.317	45.36
676.641	44.3
676.966	44.39
677.29	44.78
677.615	44.47
677.939	44.69
678.264	45.01
678.588	45.17
678.912	44.38
679.236	45.25
679.56	44.53
679.885	45.21
680.209	45.37
680.532	44.72
680.856	46.08
681.18	45.61
681.504	45.61
681.828	45.82
682.152	45.17
682.475	45.6
682.799	45.71
683.122	45.14
683.446	44.71
683.769	45.51
684.093	45.98
684.416	45.37
684.739	45.19
685.062	45.14
685.386	45.86
685.709	45.29
686.032	45.37
686.355	45.02
686.678	45.02
687.001	45.86
687.324	45.93
687.646	45.64
687.969	44.89
688.292	45.89
688.614	46.3
688.937	45.98
689.26	46.49
689.582	46.33
689.904	45.71
690.227	47.07
690.549	46.17
690.871	46.34
691.194	46.34
691.516	45.97
691.838	46.06
692.16	46.13
692.482	46.47
692.804	46.62
693.126	46.56
693.448	46.27
693.769	46.67
694.091	47.38
694.413	46.82
694.735	45.39
695.056	46.13
695.378	46.39
695.699	46.5
696.021	44.96
696.342	47.04
696.663	46.22
696.984	47.51
697.306	45.24
697.627	46.59
697.948	47.19
698.269	47.1
698.59	47.17
698.911	47.18
699.232	46.45
699.553	47.72
699.873	46.54
700.194	47.52
700.515	47.59
700.835	47.18
701.156	47.45
701.477	46.76
701.797	47
702.117	46.8
702.438	47.17
702.758	46.8
703.078	45.85
703.398	47.1
703.719	47.09
704.039	46.32
704.359	47.31
704.679	47.21
704.999	47.33
705.319	47.97
705.638	47.48
705.958	47.77
706.278	47.42
706.597	47.83
706.917	46.98
707.237	48.1
707.556	47.4
707.876	47.83
708.195	48.08
708.514	46.77
708.834	48.01
709.153	47.55
709.472	47.95
709.791	48.65
710.11	48.28
710.429	48.58
710.748	48.54
711.067	48.06
711.386	48.78
711.705	48.51
712.023	48.86
712.342	47.68
712.661	47.59
712.979	47.86
713.298	48.67
713.616	48.99
713.935	48.18
714.253	47.5
714.572	48.31
714.89	48.66
715.208	48.37
715.526	48.68
715.844	49.48
716.162	48.4
716.48	48.26
716.798	48.92
717.116	49.27
717.434	48.77
717.752	47.28
718.069	48.45
718.387	48.15
718.705	48.24
719.022	48.48
719.34	49.33
719.657	48.99
719.975	48.29
720.292	48.95
720.609	49.72
720.927	48.56
721.244	48.78
721.561	49.83
721.878	49.27
722.195	48.16
722.512	49.08
722.829	48.73
723.146	49.69
723.463	49.42
723.779	48.43
724.096	48.43
724.413	48.99
724.729	48.66
725.046	49.8
725.362	49.95
725.679	49.67
725.995	50.18
726.311	49.75
726.628	49.39
726.944	49.89
727.26	49.86
727.576	49.88
727.892	49.82
728.208	48.55
728.524	47.78
728.84	49.16
729.156	49.67
729.472	48.5
729.787	49.35
730.103	48.41
730.419	49.93
730.734	49.15
731.05	49.82
731.365	48.9
731.681	50.42
731.996	50.01
732.311	49.57
732.626	50.69
732.942	48.86
733.257	49.95
733.572	48.98
733.887	50.7
734.202	49.04
734.517	51.31
734.832	50.47
735.146	50.25
735.461	50.8
735.776	50.87
736.091	49.69
736.405	50.47
736.72	48.94
737.034	50.69
737.349	50.93
737.663	50.46
737.977	49.14
738.292	49.62
738.606	51.73
738.92	50.6
739.234	49.39
739.548	50.38
739.862	50.04
740.176	50.42
740.49	51.52
740.804	52.81
741.117	49.24
741.431	51.49
741.745	49.89
742.058	48.96
742.372	48.92
742.685	50.98
742.999	50.9
743.312	49.66
743.626	51.81
743.939	49.57
744.252	52.48
744.565	50.81
744.878	49.75
745.191	50.12
745.505	51.75
745.817	50.77
746.13	52.53
746.443	51.66
746.756	50.17
747.069	53.33
747.381	50.38
747.694	52.85
748.007	52.31
748.319	50.54
748.632	49.97
748.944	52.09
749.256	52.11
749.569	50.9
749.881	50.96
750.193	51.42
750.505	51.72
750.817	51.84
751.129	50.9
751.441	50.65
751.753	50.92
752.065	52.24
752.377	50.01
752.689	50.55
753	53.41
753.312	51.68
753.624	51.21
753.935	51.81
754.247	52.71
754.558	54.29
754.869	51.93
755.181	52.16
755.492	51.59
755.803	51.83
756.114	50.93
756.425	51.09
756.736	51.46
757.047	51.9
757.358	52.76
757.669	49.53
757.98	52.93
758.291	52.94
758.601	50.85
758.912	52.29
759.223	53.7
759.533	51.26
759.844	52.57
760.154	51.24
760.464	51.95
760.775	52.46
761.085	51.74
761.395	51.13
761.705	52.11
762.016	52.58
762.326	50.81
762.636	52.48
762.945	51.76
763.255	53.24
763.565	52.28
763.875	52.58
764.185	49.66
764.494	52.71
764.804	53.08
765.113	52.19
765.423	51.23
765.732	54.32
766.042	53.23
766.351	53.25
766.66	53.84
766.97	53.42
767.279	52.27
767.588	52.32
767.897	53.8
768.206	52.64
768.515	52.28
768.824	52.68
769.133	51.77
769.441	51.99
769.75	51.98
770.059	54.45
770.367	52.16
770.676	51.52
770.984	52.26
771.293	50.01
771.601	54.44
771.91	51.82
772.218	52.17
772.526	53.93
772.834	53.75
773.142	52.73
773.45	52.06
773.758	50.39
774.066	53.16
774.374	51.42
774.682	50.4
774.99	55.24
775.298	53.08
775.605	53.61
775.913	50.91
776.22	53.33
776.528	53.8
776.835	50.61
777.143	53.36
777.45	50.39
777.757	58
778.065	51.85
778.372	50.14
778.679	53.95
778.986	51.15
779.293	52.89
779.6	54.45
779.907	50.14
780.214	55.31
780.52	55.52
780.827	54.52
781.134	53.83
781.44	51.76
781.747	55.64
782.053	56.65
782.36	49.12
782.666	53.94
782.973	54.52
783.279	53.22
783.585	55.76
783.891	53.52
784.197	57.17
784.503	55.84
784.809	51.72
785.115	51.86
785.421	48.31
785.727	51.2
786.033	53.36
786.339	49.69
786.644	56.94
786.95	52.71
787.255	52.04
787.561	52.17
787.866	50.35
788.172	53.29
788.477	52.7
788.782	51.19
789.088	54.38
789.393	53
789.698	51.46
790.003	56
790.308	54.27
790.613	52.26
790.918	56.12
791.223	54.76
791.527	50.21
791.832	53.94
792.137	52.67
792.441	54.85
792.746	52.92
793.05	54.49
793.355	54.87
793.659	59.72
793.963	53.63
794.268	56.33
794.572	49.75
794.876	53.95
795.18	54.75
795.484	53.58
795.788	55.91
796.092	52.73
796.396	52.95
796.7	52.85
797.004	50.95
797.307	51.23
797.611	54.45
797.915	51.47
798.218	49.16
798.522	50.63
798.825	57.65
799.128	54.55
799.432	53.89
799.735	54.83
800.038	58.31
800.341	52.13
800.644	51.24
800.947	58.73
801.25	57.05
801.553	52.16
801.856	49.45
802.159	53.56
802.462	56.33
802.764	48.5
803.067	49.08
803.37	53.19
803.672	52.81
803.975	52.27
804.277	51.28
804.579	52.51
804.882	53.64
805.184	50.48
805.486	52.05
805.788	57.81
806.09	52.21
806.392	48.68
806.694	55.98
806.996	53.9
807.298	52.05
807.6	54.41
807.902	54.21
808.203	50.93
808.505	54.22
808.807	53.2
809.108	52.62
809.409	52.11
809.711	53.78
810.012	47.6
810.313	50.69
810.615	59.32
810.916	50
811.217	51.54
811.518	51.93
811.819	56
812.12	49.25
812.421	55.61
812.722	54.99
813.023	52.78
813.323	55.41
813.624	53.34
813.925	63.47
814.225	53.46
814.526	55.6
814.826	53.73
815.126	47.62
815.427	60.82
815.727	54.72
816.027	51.97
816.327	44.24
816.627	48.24
816.927	57.55
817.227	50.1
817.527	52.04
817.827	56.29
818.127	56.85
818.427	54.98
818.727	60.38
819.026	53.98
819.326	54.67
819.625	52.76
819.925	54.57
820.224	55.3
820.524	52.12
820.823	50.66
821.122	52.58
821.421	52.49
821.72	53.4
822.019	51.79
822.318	48.68
822.617	52.94
822.916	54.82
823.215	56.06
823.514	56.33
823.813	57.96
824.111	56.31
824.41	55.7
824.709	55.85
825.007	58.77
825.306	57.05
825.604	57.49
825.902	55.12
826.201	56.74
826.499	54.12
826.797	56.05
827.095	56.44
827.393	55.79
827.691	53.26
827.989	52.4
828.287	54.54
828.585	53.84
828.882	57.23
829.18	55.86
829.478	54.87
829.775	56.86
830.073	56.43
830.37	57.1
830.668	56.63
830.965	56.63
831.263	53.13
831.56	57.84
831.857	55.7
832.154	55.03
832.451	52.92
832.748	52.8
833.045	53.99
833.342	61.72
833.639	54.07
833.936	48.39
834.232	48.32
834.529	43.45
834.826	54.63
835.122	57.47
835.419	55.97
835.715	52.98
836.012	54.22
836.308	55.68
836.604	50.42
836.901	54.1
837.197	56.69
837.493	57.4
837.789	53.46
838.085	58.25
838.381	54.36
838.677	59.58
838.972	54.76
839.268	53.32
839.564	58.33
839.86	53.66
840.155	53.57
840.451	52.34
840.746	45.35
841.042	55.3
841.337	55.78
841.632	61.14
841.928	58.69
842.223	52.68
842.518	61.22
842.813	61
843.108	61.53
843.403	60.34
843.698	52.02
843.993	54.55
844.287	41.43
844.582	41.43
844.877	51.93
845.171	56.22
845.466	45.81
845.761	64.38
846.055	52.9
846.349	45.72
846.644	38.07
846.938	45.49
847.232	33.87
847.526	57.17
847.82	54.39
848.114	38.63
848.408	62.4
848.702	55.88
848.996	53.94
849.29	50.18
849.584	52.09
849.877	28.38
850.171	53.85
850.465	36.17
850.758	29.89
851.052	45.55
851.345	51.24
851.638	59.95
851.932	40.36
852.225	49.81
852.518	38.44
852.811	53.21
853.104	21.49
853.397	65.51
853.69	47.23
853.983	29.42
854.276	52.15
854.569	35.63
854.861	57.47
855.154	39.63
855.447	28.12
855.739	36.71
856.032	49.49
856.324	47.54
856.616	61.38
856.909	40.29
857.201	48.42
857.493	36.18
857.785	45.55
858.077	36.34
858.369	31.44
858.661	25.96
858.953	47.79
859.245	32.16
859.537	60.63
859.829	40.16
860.12	72.35
860.412	36.23
860.703	57.96
860.995	14.93
861.286	50.94
861.578	44.94
861.869	80.53
862.16	51.56
862.452	37.02
862.743	34.08
863.034	29.84
863.325	30.19
863.616	65.03
863.907	51.44
864.198	43.11
864.488	60.17
864.779	47.21
865.07	115.89
865.36	90.68
865.651	45.27
865.941	48.04
866.232	36.34
866.522	42.03
866.813	47.55
867.103	64.69
867.393	59.05
867.683	49.24
867.973	19.26
868.263	47.37
868.553	97.72
868.843	72.78
869.133	31.44
869.423	71.81
869.713	42.78
870.002	47.07
870.292	46.81
870.582	56.44
870.871	0.6
871.161	43.25
871.45	50.18
871.739	33.33
872.029	43.31
872.318	40.58
872.607	59.17
872.896	44.09
873.185	75.38
873.474	15.79
873.763	64.97
874.052	59.81
874.341	21.3
874.63	22.26
874.918	47.19
875.207	60.64
875.496	72.78
875.784	97.66
876.073	3.52
876.361	27.66
876.649	38.82
876.938	56.56
877.226	70.21
877.514	45
877.802	29.61
878.09	14.3
878.378	87.89
878.666	69.24
878.954	16.24
879.242	-4.03
879.53	23.42
879.817	41.69
880.105	-8.57
880.392	43.3
880.68	64.59
880.967	27.38
881.255	76.72
881.542	29.29
881.83	11.5
882.117	62.81
882.404	34.66
882.691	64.7
882.978	39
883.265	35.86
883.552	60.01
883.839	32.66
884.126	47.05
884.413	79.31
884.699	58.26
884.986	54.87
885.273	59.19
885.559	59.19
885.846	59.19
