Data from 0191_crown_Reflection__1__415.txt Node

Date: Fri Dec 15 20:27:03 CST 2023
User: ToomeyLab
Spectrometer: FLMS14357
Trigger mode: 0
Integration Time (sec): 1.000000E-2
Scans to average: 100
Electric dark correction enabled: true
Nonlinearity correction enabled: false
Boxcar width: 0
XAxis mode: Wavelengths
Number of Pixels in Spectrum: 2048
>>>>>Begin Spectral Data<<<<<
189.047	-20.74
189.435	-20.74
189.823	-20.74
190.211	-3445.95
190.599	-175.2
190.987	125.69
191.375	183.44
191.763	77.04
192.151	98.41
192.538	69.2
192.926	-87.84
193.314	52.27
193.702	211.82
194.089	-165.61
194.477	404.5
194.864	-21.97
195.252	91.16
195.639	58.62
196.027	93.2
196.414	18.46
196.801	208.33
197.189	235.5
197.576	280.4
197.963	164.61
198.351	-134.69
198.738	-75.46
199.125	42.43
199.512	-89.8
199.899	40.05
200.286	0.88
200.673	-74.84
201.06	36.98
201.447	-35.08
201.833	-33.78
202.22	-17.99
202.607	48.44
202.994	-73.76
203.38	-7.59
203.767	-11.59
204.154	-16.38
204.54	11.91
204.927	44.67
205.313	-33.9
205.699	-37.61
206.086	-10.68
206.472	-11.39
206.858	13.97
207.245	-79.23
207.631	-21.48
208.017	-6.53
208.403	-48.1
208.789	-2.62
209.175	3.58
209.561	-33.23
209.947	-1.04
210.333	-53.91
210.719	-22.01
211.105	5.45
211.491	-91.98
211.876	3.43
212.262	26.37
212.648	2.02
213.034	-10.93
213.419	-33.86
213.805	-14.07
214.19	-49.04
214.576	-1.76
214.961	-97.25
215.346	-52.76
215.732	-17.17
216.117	18.36
216.502	-88.75
216.888	-20.65
217.273	-4.48
217.658	-10.16
218.043	36.54
218.428	-86.26
218.813	-11.43
219.198	-97.21
219.583	-15.05
219.968	-11.47
220.353	4.76
220.738	22
221.122	8.2
221.507	-44.53
221.892	-67.16
222.276	-25.89
222.661	-27.57
223.046	4.83
223.43	1.84
223.815	3.7
224.199	-18.86
224.583	-11.07
224.968	-17.78
225.352	6.19
225.736	4.08
226.121	-10.97
226.505	5.29
226.889	0.41
227.273	3.57
227.657	8.27
228.041	1.78
228.425	-0.12
228.809	6.36
229.193	3.64
229.577	3.48
229.961	7
230.344	4.73
230.728	4.8
231.112	5.23
231.495	4.4
231.879	4.44
232.263	6.37
232.646	5.45
233.03	3.35
233.413	3.34
233.797	4.51
234.18	1.74
234.563	3.29
234.946	2.81
235.33	5.74
235.713	3.5
236.096	3.19
236.479	5.76
236.862	3.15
237.245	6.17
237.628	2.65
238.011	3.76
238.394	4.04
238.777	3.6
239.16	2.19
239.543	3.9
239.925	3.93
240.308	6.37
240.691	4.44
241.073	4.15
241.456	4.44
241.838	3.78
242.221	3.96
242.603	6.61
242.986	6.07
243.368	4.88
243.75	5.09
244.133	4.98
244.515	5.47
244.897	5.44
245.279	5.04
245.661	4.49
246.043	3.97
246.425	2.6
246.807	5.33
247.189	4
247.571	4.29
247.953	4.69
248.335	4.73
248.717	5.46
249.098	4.68
249.48	5.04
249.862	4.57
250.243	4.53
250.625	4.96
251.006	4.49
251.388	3.69
251.769	3.75
252.151	4.25
252.532	3.26
252.913	4.47
253.295	4.23
253.676	5.1
254.057	4.55
254.438	5.17
254.819	5.1
255.2	5.05
255.581	4.35
255.962	2.29
256.343	4.81
256.724	5.11
257.105	5.52
257.486	4.12
257.867	4.49
258.247	5.35
258.628	3.78
259.009	4.25
259.389	4.5
259.77	3.76
260.15	3.59
260.531	3.52
260.911	4.54
261.292	4.65
261.672	4.79
262.052	4.42
262.432	4.62
262.813	4.38
263.193	4.21
263.573	4.2
263.953	3.67
264.333	4.1
264.713	4.66
265.093	3.71
265.473	3.59
265.853	3.51
266.233	4.8
266.612	3.13
266.992	2.12
267.372	4.26
267.752	4.41
268.131	4.11
268.511	4.7
268.89	4.53
269.27	4.02
269.649	2.86
270.029	4.19
270.408	4.3
270.787	3.88
271.167	4.6
271.546	4.55
271.925	4.47
272.304	3.47
272.683	4.08
273.062	4.15
273.441	4.25
273.82	3.93
274.199	4.33
274.578	4.55
274.957	4.23
275.336	3.98
275.715	3.52
276.093	3.97
276.472	4.51
276.851	4.56
277.229	3.47
277.608	3.27
277.986	3.62
278.365	4.39
278.743	4.05
279.122	3.41
279.5	4.19
279.878	4.17
280.257	4.15
280.635	3.2
281.013	4.09
281.391	4.25
281.769	3.93
282.147	4.4
282.525	4.82
282.903	3.62
283.281	4.29
283.659	4.6
284.037	4.13
284.415	4.23
284.792	4.31
285.17	3.8
285.548	3.92
285.925	4.05
286.303	4.47
286.68	3.81
287.058	3.81
287.435	3.9
287.813	3.91
288.19	4.1
288.567	3.75
288.945	4.34
289.322	4.35
289.699	3.6
290.076	4.06
290.453	4.07
290.83	4
291.207	3.95
291.584	3.72
291.961	3.99
292.338	3.89
292.715	4.38
293.092	4.35
293.469	3.99
293.845	4.5
294.222	3.62
294.599	4.16
294.975	3.99
295.352	3.92
295.728	3.77
296.105	4.04
296.481	3.96
296.858	3.95
297.234	3.38
297.61	4.17
297.986	3.87
298.363	4.09
298.739	4.11
299.115	3.97
299.491	3.77
299.867	3.8
300.243	4.52
300.619	3.51
300.995	3.69
301.371	3.73
301.746	3.91
302.122	4.55
302.498	3.96
302.874	4
303.249	4.37
303.625	4.15
304	4.57
304.376	3.65
304.751	3.65
305.127	5.13
305.502	2.88
305.878	3.35
306.253	3.64
306.628	4.55
307.003	3.8
307.378	4.04
307.754	3.78
308.129	2.72
308.504	4.6
308.879	3.37
309.254	4.22
309.629	4.5
310.003	3.41
310.378	4.36
310.753	4.23
311.128	4.26
311.502	3.99
311.877	4.29
312.252	3.66
312.626	3.91
313.001	3.62
313.375	4.29
313.75	3.59
314.124	4.01
314.498	3.55
314.873	4.12
315.247	3.52
315.621	3.37
315.995	3.03
316.369	2.96
316.743	3.73
317.117	3.75
317.491	3.48
317.865	3.8
318.239	3.81
318.613	4.19
318.987	3.94
319.361	2.8
319.734	3.48
320.108	3.66
320.482	3.78
320.855	4.45
321.229	4.32
321.602	3.76
321.976	3.49
322.349	3.5
322.723	4.13
323.096	4.41
323.469	3.06
323.843	3.86
324.216	4.21
324.589	3.77
324.962	4.27
325.335	3.68
325.708	3.84
326.081	3.94
326.454	4.47
326.827	3.77
327.2	3.83
327.573	4.13
327.945	3.78
328.318	3.86
328.691	3.48
329.063	3.6
329.436	3.37
329.809	3.87
330.181	3.98
330.553	3.96
330.926	4.1
331.298	4.33
331.671	3.1
332.043	4.35
332.415	4.58
332.787	4.03
333.159	4.02
333.532	4.26
333.904	3.99
334.276	4.12
334.648	3.57
335.02	3.82
335.391	3.45
335.763	3.42
336.135	3.71
336.507	4.56
336.879	3.99
337.25	4.17
337.622	3.42
337.993	3.87
338.365	4.02
338.736	4.01
339.108	3.88
339.479	3.57
339.851	3.38
340.222	3.31
340.593	3.79
340.964	3.69
341.336	4.82
341.707	3.72
342.078	4.42
342.449	4.63
342.82	4.21
343.191	3.86
343.562	4.1
343.933	4.4
344.303	3.94
344.674	3.97
345.045	3.92
345.416	4.51
345.786	3.93
346.157	3.88
346.527	3.78
346.898	3.84
347.268	4.09
347.639	3.57
348.009	3.99
348.38	3.87
348.75	3.52
349.12	3.99
349.49	4.46
349.861	4.09
350.231	3.9
350.601	4.42
350.971	4.49
351.341	4.09
351.711	4.21
352.081	4.33
352.45	3.94
352.82	4.56
353.19	3.45
353.56	3.77
353.929	4.45
354.299	4.27
354.669	3.53
355.038	4.4
355.408	3.81
355.777	3.62
356.147	3.87
356.516	4.48
356.885	3.98
357.254	3.84
357.624	4.54
357.993	4.55
358.362	3.75
358.731	4.05
359.1	3.99
359.469	4.28
359.838	4.09
360.207	4.1
360.576	4.04
360.945	4.13
361.314	4.38
361.682	3.81
362.051	3.9
362.42	4.36
362.788	4.35
363.157	4.43
363.525	4.36
363.894	4.44
364.262	4.3
364.631	4.42
364.999	4.37
365.367	3.94
365.735	4.51
366.104	4.28
366.472	4.68
366.84	4.03
367.208	3.94
367.576	4.55
367.944	4.36
368.312	4.17
368.68	3.74
369.048	4.48
369.416	4.26
369.783	3.8
370.151	4.26
370.519	4.47
370.886	4.62
371.254	4.14
371.621	4.32
371.989	4.8
372.356	3.77
372.724	4.36
373.091	4.23
373.458	4.29
373.826	4.05
374.193	4.43
374.56	4.71
374.927	4.54
375.294	4.41
375.661	4.2
376.028	4.38
376.395	3.79
376.762	4.52
377.129	4.42
377.496	4.09
377.863	4.07
378.229	3.81
378.596	4.52
378.963	4.53
379.329	4.08
379.696	4.28
380.062	4.46
380.429	4.28
380.795	4.34
381.161	4.47
381.528	4.67
381.894	4.16
382.26	4.37
382.626	4.65
382.993	3.97
383.359	4.59
383.725	4.2
384.091	4.44
384.457	4.51
384.823	4.12
385.188	4.49
385.554	4.37
385.92	5
386.286	4.41
386.651	4.32
387.017	4.66
387.383	4.43
387.748	4.33
388.114	4.58
388.479	4.38
388.845	4.86
389.21	4.58
389.575	4.42
389.94	4.21
390.306	4.49
390.671	4.6
391.036	4.3
391.401	4.17
391.766	4.52
392.131	4.3
392.496	4.66
392.861	4.64
393.226	4.42
393.591	4.67
393.956	4.19
394.32	4.7
394.685	4.28
395.05	4.55
395.414	4.76
395.779	4.47
396.143	4.53
396.508	4.53
396.872	4.7
397.236	4.71
397.601	4.44
397.965	4.37
398.329	4.68
398.694	4.45
399.058	4.76
399.422	4.37
399.786	4.56
400.15	4.4
400.514	4.69
400.878	4.64
401.242	4.95
401.605	4.82
401.969	4.71
402.333	4.61
402.697	4.61
403.06	4.49
403.424	4.51
403.787	4.73
404.151	4.85
404.514	4.77
404.878	4.48
405.241	4.53
405.604	4.49
405.968	4.61
406.331	4.57
406.694	4.7
407.057	4.45
407.42	4.71
407.783	4.45
408.146	4.58
408.509	4.61
408.872	4.69
409.235	4.66
409.598	4.93
409.961	4.46
410.323	4.8
410.686	4.42
411.049	4.38
411.411	4.56
411.774	4.85
412.136	4.57
412.499	4.74
412.861	4.69
413.223	4.7
413.586	4.49
413.948	4.62
414.31	4.73
414.672	4.61
415.035	4.62
415.397	4.68
415.759	4.5
416.121	5.04
416.483	4.59
416.845	4.32
417.206	4.59
417.568	4.9
417.93	4.45
418.292	4.85
418.653	4.79
419.015	4.81
419.377	4.57
419.738	4.74
420.1	4.62
420.461	4.74
420.822	4.63
421.184	4.59
421.545	4.65
421.906	4.62
422.267	4.77
422.629	4.71
422.99	4.68
423.351	4.65
423.712	4.53
424.073	4.68
424.434	4.53
424.795	4.64
425.155	4.64
425.516	4.59
425.877	4.73
426.238	4.7
426.598	4.74
426.959	4.67
427.32	4.61
427.68	4.67
428.041	4.63
428.401	4.81
428.761	4.51
429.122	4.87
429.482	4.58
429.842	4.91
430.202	4.8
430.563	4.67
430.923	4.66
431.283	4.87
431.643	4.82
432.003	4.56
432.363	4.62
432.722	4.78
433.082	4.87
433.442	4.77
433.802	4.53
434.161	4.63
434.521	4.93
434.881	4.85
435.24	4.57
435.6	4.67
435.959	4.72
436.319	4.74
436.678	4.72
437.037	4.84
437.396	5.06
437.756	5.02
438.115	4.71
438.474	5
438.833	4.74
439.192	4.82
439.551	4.97
439.91	4.8
440.269	4.93
440.628	4.67
440.987	4.81
441.345	4.76
441.704	4.87
442.063	4.65
442.421	4.69
442.78	4.81
443.138	4.78
443.497	4.87
443.855	4.78
444.214	4.76
444.572	4.78
444.93	4.73
445.288	4.73
445.647	4.92
446.005	4.64
446.363	4.92
446.721	5.08
447.079	4.67
447.437	4.78
447.795	4.89
448.153	4.82
448.51	4.73
448.868	4.83
449.226	4.89
449.584	4.86
449.941	5
450.299	4.97
450.656	4.83
451.014	4.83
451.371	4.85
451.729	4.8
452.086	5
452.443	4.79
452.801	4.96
453.158	5.02
453.515	4.85
453.872	4.98
454.229	4.89
454.586	4.77
454.943	4.96
455.3	4.87
455.657	4.8
456.014	4.72
456.371	5.03
456.727	4.86
457.084	4.92
457.441	4.97
457.797	4.92
458.154	5.14
458.51	5.06
458.867	5.14
459.223	5.01
459.58	5.05
459.936	5.13
460.292	4.91
460.648	4.95
461.005	5.01
461.361	5
461.717	4.98
462.073	4.84
462.429	4.99
462.785	4.82
463.141	4.94
463.496	4.89
463.852	5.12
464.208	4.97
464.564	5.07
464.919	5.04
465.275	4.82
465.631	4.96
465.986	4.82
466.342	4.99
466.697	4.97
467.052	4.98
467.408	5.08
467.763	5.1
468.118	5.06
468.473	4.97
468.829	5.05
469.184	4.91
469.539	5.06
469.894	4.88
470.249	5.18
470.603	5
470.958	5.05
471.313	5.27
471.668	5.2
472.023	5.06
472.377	5.01
472.732	5.09
473.086	4.9
473.441	4.97
473.795	5.23
474.15	5.21
474.504	5.15
474.859	5.17
475.213	4.93
475.567	4.96
475.921	5.03
476.275	4.95
476.63	5.24
476.984	5.1
477.338	5.08
477.692	5.05
478.045	5.04
478.399	5.12
478.753	5.19
479.107	5.08
479.461	4.97
479.814	5.13
480.168	5.1
480.521	4.96
480.875	4.99
481.228	5.06
481.582	5.12
481.935	5.12
482.289	5.1
482.642	5.07
482.995	5.07
483.348	4.95
483.701	5.1
484.055	5.16
484.408	5.19
484.761	5.08
485.114	5.03
485.466	4.92
485.819	4.92
486.172	4.86
486.525	4.83
486.878	4.82
487.23	4.9
487.583	4.97
487.936	5.03
488.288	5.11
488.641	5.03
488.993	4.99
489.345	4.97
489.698	4.94
490.05	4.86
490.402	4.94
490.754	4.96
491.107	5.01
491.459	5.06
491.811	5.15
492.163	5.13
492.515	5.04
492.866	5.15
493.218	5.09
493.57	5.02
493.922	4.95
494.274	5.03
494.625	5.12
494.977	5.09
495.328	5.11
495.68	5.16
496.031	5.32
496.383	5.11
496.734	5.37
497.086	5.36
497.437	5.31
497.788	5.3
498.139	5.13
498.49	5.23
498.842	5.04
499.193	5.2
499.544	5.15
499.894	5.16
500.245	5.27
500.596	5.25
500.947	5.24
501.298	5.18
501.648	5.28
501.999	5.23
502.35	5.32
502.7	5.2
503.051	5.13
503.401	5.14
503.752	5.4
504.102	5.19
504.452	5.16
504.803	5.14
505.153	5.27
505.503	5.32
505.853	5.27
506.203	5.22
506.553	5.13
506.903	5.17
507.253	5.32
507.603	5.12
507.953	5.34
508.303	5.36
508.652	4.97
509.002	5.17
509.352	5.32
509.701	5.19
510.051	5.11
510.4	5.3
510.75	5.18
511.099	5.24
511.449	5.23
511.798	5.28
512.147	5.19
512.496	5.19
512.846	5.22
513.195	5.09
513.544	5.31
513.893	5.29
514.242	5.24
514.591	5.36
514.939	5.27
515.288	5.08
515.637	5.15
515.986	5.25
516.334	5.16
516.683	5.43
517.032	5.38
517.38	5.34
517.729	5.42
518.077	5.25
518.426	5.37
518.774	5.32
519.122	5.24
519.47	5.32
519.819	5.19
520.167	5.32
520.515	5.3
520.863	5.26
521.211	5.34
521.559	5.32
521.907	5.27
522.255	5.29
522.602	5.3
522.95	5.24
523.298	5.2
523.645	5.43
523.993	5.4
524.341	5.32
524.688	5.4
525.036	5.22
525.383	5.3
525.73	5.49
526.078	5.28
526.425	5.19
526.772	5.37
527.119	5.3
527.466	5.26
527.814	5.22
528.161	5.21
528.508	5.31
528.854	5.19
529.201	5.21
529.548	5.19
529.895	5.24
530.242	5.16
530.588	5.15
530.935	5.13
531.282	5.13
531.628	5.15
531.975	5.13
532.321	5.15
532.667	5.22
533.014	5.24
533.36	5.2
533.706	5.26
534.052	5.28
534.399	5.19
534.745	5.22
535.091	5.27
535.437	5.33
535.783	5.24
536.129	5.26
536.474	5.22
536.82	5.24
537.166	5.35
537.512	5.39
537.857	5.24
538.203	5.41
538.549	5.34
538.894	5.3
539.239	5.41
539.585	5.25
539.93	5.2
540.276	5.4
540.621	5.5
540.966	5.44
541.311	5.33
541.656	5.23
542.001	5.33
542.346	5.45
542.691	5.29
543.036	5.32
543.381	5.18
543.726	5.26
544.071	5.3
544.415	5.25
544.76	5.22
545.105	5.31
545.449	5.28
545.794	5.39
546.138	5.32
546.483	5.42
546.827	5.42
547.171	5.31
547.516	5.47
547.86	5.36
548.204	5.38
548.548	5.36
548.892	5.44
549.236	5.25
549.58	5.36
549.924	5.39
550.268	5.53
550.612	5.44
550.956	5.68
551.3	5.6
551.643	5.64
551.987	5.72
552.33	5.33
552.674	5.49
553.017	5.55
553.361	5.43
553.704	5.77
554.048	5.34
554.391	5.31
554.734	5.36
555.077	5.52
555.42	5.35
555.764	5.43
556.107	5.45
556.45	5.25
556.793	5.38
557.135	5.36
557.478	5.52
557.821	5.6
558.164	5.41
558.507	5.48
558.849	5.41
559.192	5.77
559.534	5.43
559.877	5.64
560.219	5.53
560.562	5.71
560.904	5.57
561.246	5.5
561.589	5.45
561.931	5.51
562.273	5.48
562.615	5.57
562.957	5.62
563.299	5.28
563.641	5.54
563.983	5.47
564.325	5.37
564.667	5.34
565.008	5.28
565.35	5.28
565.692	5.28
566.033	5.35
566.375	5.68
566.716	5.75
567.058	5.33
567.399	5.45
567.741	5.42
568.082	5.5
568.423	5.4
568.764	5.29
569.105	5.66
569.447	5.69
569.788	5.43
570.129	5.54
570.47	5.41
570.811	5.71
571.151	5.63
571.492	5.43
571.833	5.46
572.174	5.49
572.514	5.37
572.855	5.51
573.195	5.61
573.536	5.44
573.876	5.42
574.217	5.4
574.557	5.54
574.898	5.54
575.238	5.41
575.578	5.47
575.918	5.64
576.258	5.63
576.598	5.63
576.938	5.55
577.278	5.67
577.618	5.6
577.958	5.47
578.298	5.4
578.638	5.41
578.977	5.58
579.317	5.59
579.657	5.41
579.996	5.63
580.336	5.55
580.675	5.36
581.014	5.66
581.354	5.42
581.693	5.6
582.032	5.36
582.372	5.27
582.711	5.69
583.05	5.3
583.389	5.41
583.728	5.34
584.067	5.54
584.406	5.63
584.745	5.37
585.083	5.45
585.422	5.6
585.761	5.6
586.1	5.72
586.438	5.7
586.777	5.66
587.115	5.77
587.454	5.78
587.792	5.26
588.13	5.57
588.469	5.57
588.807	5.53
589.145	5.63
589.483	5.56
589.821	5.36
590.159	5.45
590.497	5.96
590.835	5.86
591.173	5.6
591.511	5.73
591.849	5.63
592.187	5.64
592.524	5.58
592.862	5.66
593.2	5.45
593.537	5.35
593.875	5.58
594.212	5.64
594.55	5.54
594.887	5.82
595.224	5.44
595.561	5.68
595.899	5.47
596.236	5.57
596.573	5.68
596.91	5.07
597.247	5.36
597.584	5.78
597.921	5.85
598.258	5.41
598.594	5.59
598.931	5.58
599.268	5.76
599.604	5.46
599.941	5.71
600.277	5.28
600.614	5.49
600.95	5.36
601.287	5.7
601.623	5.44
601.959	5.27
602.296	5.57
602.632	5.68
602.968	5.76
603.304	5.74
603.64	5.71
603.976	5.56
604.312	5.33
604.648	5.67
604.984	5.83
605.319	5.75
605.655	5.63
605.991	5.69
606.326	5.52
606.662	5.56
606.998	5.41
607.333	5.49
607.668	5.68
608.004	5.55
608.339	6.04
608.674	5.55
609.01	5.34
609.345	5.55
609.68	5.8
610.015	5.53
610.35	5.64
610.685	5.64
611.02	5.55
611.355	5.79
611.689	5.52
612.024	5.72
612.359	5.6
612.694	5.54
613.028	5.73
613.363	5.86
613.697	5.76
614.032	5.85
614.366	5.5
614.7	5.7
615.035	6.01
615.369	5.72
615.703	5.69
616.037	5.39
616.371	5.43
616.705	5.61
617.039	5.88
617.373	5.68
617.707	5.46
618.041	5.76
618.375	5.68
618.709	5.84
619.042	5.56
619.376	6.18
619.71	5.59
620.043	5.78
620.377	5.7
620.71	5.94
621.043	5.56
621.377	5.58
621.71	5.67
622.043	5.55
622.376	5.12
622.709	5.72
623.043	5.57
623.376	5.78
623.709	5.67
624.041	6.07
624.374	5.92
624.707	5.62
625.04	5.7
625.373	5.33
625.705	5.36
626.038	5.62
626.37	5.56
626.703	5.44
627.035	5.86
627.368	6.05
627.7	5.64
628.032	5.52
628.365	6.09
628.697	5.95
629.029	5.3
629.361	5.53
629.693	5.68
630.025	5.52
630.357	5.94
630.689	5.75
631.021	5.67
631.353	5.66
631.684	5.69
632.016	5.54
632.348	5.68
632.679	5.77
633.011	5.86
633.342	6.26
633.674	5.56
634.005	5.88
634.336	5.99
634.668	6.2
634.999	5.76
635.33	6.17
635.661	5.98
635.992	5.92
636.323	5.72
636.654	6.03
636.985	5.57
637.316	5.87
637.647	5.82
637.977	5.78
638.308	5.96
638.639	5.3
638.969	5.53
639.3	5.91
639.63	5.42
639.961	5.77
640.291	5.93
640.622	6.13
640.952	5.65
641.282	6.22
641.612	5.7
641.943	5.91
642.273	5.78
642.603	5.85
642.933	6.05
643.263	5.89
643.592	5.72
643.922	5.86
644.252	5.91
644.582	5.88
644.911	5.67
645.241	5.66
645.571	5.94
645.9	5.48
646.23	5.87
646.559	6.03
646.888	5.61
647.218	5.7
647.547	6.13
647.876	5.17
648.205	5.87
648.534	5.68
648.863	5.56
649.192	5.63
649.521	5.57
649.85	5.41
650.179	6.12
650.508	5.69
650.837	5.68
651.165	5.56
651.494	5.77
651.822	5.77
652.151	5.66
652.479	5.76
652.808	5.17
653.136	5.67
653.465	5.07
653.793	5.5
654.121	5.33
654.449	5.6
654.777	5.85
655.105	6.1
655.433	5.85
655.761	5.57
656.089	5.93
656.417	6.08
656.745	5.32
657.073	5.48
657.4	6.17
657.728	6.13
658.056	5.79
658.383	6.1
658.711	5.69
659.038	6.26
659.365	6.08
659.693	5.82
660.02	5.41
660.347	5.81
660.674	5.83
661.001	5.97
661.329	5.59
661.656	6.14
661.982	5.98
662.309	5.75
662.636	6.15
662.963	6.37
663.29	5.91
663.616	5.68
663.943	5.22
664.27	5.65
664.596	6.13
664.923	6.08
665.249	6.17
665.576	6.32
665.902	6.6
666.228	6.3
666.554	6.28
666.881	5.98
667.207	5.91
667.533	6.08
667.859	5.99
668.185	5.95
668.511	5.38
668.837	4.62
669.162	6.15
669.488	5.47
669.814	6.12
670.139	5.96
670.465	5.96
670.791	6.38
671.116	6.42
671.442	5.62
671.767	6.34
672.092	5.77
672.418	5.81
672.743	6.62
673.068	5.87
673.393	6.23
673.718	6.26
674.043	5.51
674.368	5.86
674.693	6.39
675.018	5.94
675.343	5.87
675.667	6.16
675.992	6.21
676.317	5.64
676.641	5.84
676.966	6.51
677.29	5.57
677.615	6.24
677.939	6.38
678.264	6.13
678.588	5.99
678.912	5.85
679.236	6.24
679.56	5.59
679.885	6.99
680.209	5.55
680.532	5.98
680.856	6.65
681.18	6.25
681.504	6.72
681.828	6.55
682.152	6.17
682.475	6.11
682.799	6.34
683.122	6.56
683.446	5.91
683.769	6.67
684.093	5.82
684.416	6.68
684.739	5.72
685.062	5.36
685.386	6.56
685.709	6.35
686.032	5.55
686.355	6.99
686.678	5.59
687.001	5.74
687.324	6.48
687.646	5.66
687.969	5.75
688.292	5.54
688.614	6
688.937	6.67
689.26	5.69
689.582	5.9
689.904	6.03
690.227	5.94
690.549	6.04
690.871	6.78
691.194	5.52
691.516	6.41
691.838	7.19
692.16	5.85
692.482	5.53
692.804	6.03
693.126	5.89
693.448	6.23
693.769	6.85
694.091	6.87
694.413	5.66
694.735	5.56
695.056	6.07
695.378	5.27
695.699	6.18
696.021	5.41
696.342	5.31
696.663	6.35
696.984	6.8
697.306	5.17
697.627	6.83
697.948	7.28
698.269	7.14
698.59	6.27
698.911	5.53
699.232	5.83
699.553	6.21
699.873	6.07
700.194	7.03
700.515	6.33
700.835	6.2
701.156	6.48
701.477	6.67
701.797	6.42
702.117	6.58
702.438	7.06
702.758	6.05
703.078	5.49
703.398	5.25
703.719	6.42
704.039	4.74
704.359	6.88
704.679	6.42
704.999	6.09
705.319	5.94
705.638	5.66
705.958	6.56
706.278	5.98
706.597	6.12
706.917	5.64
707.237	5.45
707.556	7.04
707.876	6.84
708.195	6.36
708.514	5.01
708.834	5.99
709.153	6.61
709.472	5.97
709.791	6.69
710.11	5.63
710.429	6.81
710.748	7.15
711.067	5.74
711.386	7.06
711.705	6.61
712.023	6.66
712.342	5.33
712.661	5.43
712.979	5.62
713.298	5.96
713.616	7
713.935	5.81
714.253	6.02
714.572	6.53
714.89	6.43
715.208	7.58
715.526	6.19
715.844	7.36
716.162	7.54
716.48	6.59
716.798	7.3
717.116	5.84
717.434	6.7
717.752	5.89
718.069	5.99
718.387	6.27
718.705	6.19
719.022	5.83
719.34	6.67
719.657	5.08
719.975	7.23
720.292	7.27
720.609	7.47
720.927	6.58
721.244	7.87
721.561	6.31
721.878	6.93
722.195	5.52
722.512	6.36
722.829	7.13
723.146	6.88
723.463	7.24
723.779	5.27
724.096	7.12
724.413	4.62
724.729	7.17
725.046	5.16
725.362	6.55
725.679	5.59
725.995	6.27
726.311	5.91
726.628	6.64
726.944	5.98
727.26	7.76
727.576	7.04
727.892	6.58
728.208	5.65
728.524	5.86
728.84	6.75
729.156	5.29
729.472	5.18
729.787	5.53
730.103	7
730.419	6.55
730.734	6.48
731.05	4.89
731.365	5.96
731.681	6.04
731.996	6.74
732.311	7.14
732.626	6.08
732.942	6.16
733.257	7.79
733.572	6.82
733.887	6.66
734.202	7.21
734.517	6.21
734.832	6.35
735.146	7.13
735.461	6.5
735.776	6.3
736.091	6.39
736.405	7.15
736.72	6.03
737.034	6.7
737.349	7.92
737.663	7.7
737.977	6.49
738.292	5.11
738.606	8.6
738.92	8.06
739.234	5.15
739.548	7
739.862	7.07
740.176	5.66
740.49	6.84
740.804	9.68
741.117	5.75
741.431	5.68
741.745	6.51
742.058	5.63
742.372	5.89
742.685	7.09
742.999	6.8
743.312	7.23
743.626	7.49
743.939	6.26
744.252	6.55
744.565	6.03
744.878	6.28
745.191	6.14
745.505	6.12
745.817	7.84
746.13	6.54
746.443	7.8
746.756	7.5
747.069	5.31
747.381	7.41
747.694	6.22
748.007	7.52
748.319	7.55
748.632	6.53
748.944	6.17
749.256	7.06
749.569	6.55
749.881	7.05
750.193	7.61
750.505	6.01
750.817	5.7
751.129	8.28
751.441	6.21
751.753	7.77
752.065	7.56
752.377	7.37
752.689	10.33
753	7.18
753.312	7.36
753.624	5.05
753.935	8.19
754.247	8.98
754.558	6.28
754.869	6.3
755.181	5.34
755.492	4.89
755.803	5.66
756.114	7.35
756.425	5.78
756.736	5.73
757.047	7.86
757.358	7.83
757.669	5.15
757.98	5.61
758.291	7.51
758.601	5.96
758.912	5.91
759.223	7.46
759.533	3.65
759.844	6.7
760.154	6
760.464	7.34
760.775	8.13
761.085	5.92
761.395	8.9
761.705	5.58
762.016	7.74
762.326	7.38
762.636	7.58
762.945	6.68
763.255	9.35
763.565	7.22
763.875	9.61
764.185	6.72
764.494	7.42
764.804	6.76
765.113	7.94
765.423	6.66
765.732	6.96
766.042	6.39
766.351	7.85
766.66	7.61
766.97	7.54
767.279	5.75
767.588	7.44
767.897	8.02
768.206	6.98
768.515	5.47
768.824	7.27
769.133	7.11
769.441	6.58
769.75	6.49
770.059	8.09
770.367	8.46
770.676	5.46
770.984	7.6
771.293	5.6
771.601	10.38
771.91	6.03
772.218	7.39
772.526	7.34
772.834	7.84
773.142	7.56
773.45	5.05
773.758	6.91
774.066	9.06
774.374	5.13
774.682	5.86
774.99	7.4
775.298	3.94
775.605	5.88
775.913	6.66
776.22	8.39
776.528	6.75
776.835	8.86
777.143	7.06
777.45	5.59
777.757	9.85
778.065	6.68
778.372	4.42
778.679	6.41
778.986	6.21
779.293	5.29
779.6	8.32
779.907	3.43
780.214	9.92
780.52	7.96
780.827	9.09
781.134	6.13
781.44	2.36
781.747	4.8
782.053	3.99
782.36	5.87
782.666	3.77
782.973	6.68
783.279	9.04
783.585	6.08
783.891	6.49
784.197	5.54
784.503	7.65
784.809	4.17
785.115	10.23
785.421	12.19
785.727	6.12
786.033	7.85
786.339	6.55
786.644	10.81
786.95	4.02
787.255	5.44
787.561	7.33
787.866	3.91
788.172	0.44
788.477	1.96
788.782	7.14
789.088	3.58
789.393	5.21
789.698	4.94
790.003	6.08
790.308	5.88
790.613	2.33
790.918	5.15
791.223	4.26
791.527	4.77
791.832	7.66
792.137	3.69
792.441	5.67
792.746	5.8
793.05	6.86
793.355	4.84
793.659	8.16
793.963	5.18
794.268	3.63
794.572	6.63
794.876	8.23
795.18	5.63
795.484	1.02
795.788	8.25
796.092	4.3
796.396	5.36
796.7	2.4
797.004	8.54
797.307	6.62
797.611	7.25
797.915	3.26
798.218	1.04
798.522	9.2
798.825	3.91
799.128	6.44
799.432	0.72
799.735	5.46
800.038	13.72
800.341	5.29
800.644	5.08
800.947	6.26
801.25	2.29
801.553	3.65
801.856	0.32
802.159	6.76
802.462	2.82
802.764	8.97
803.067	2.45
803.37	7.69
803.672	0.26
803.975	7.24
804.277	4.68
804.579	1.33
804.882	8.7
805.184	5.83
805.486	-1.28
805.788	11.17
806.09	11.9
806.392	5.39
806.694	5.06
806.996	9.18
807.298	4.6
807.6	5.23
807.902	8.85
808.203	6.76
808.505	2.19
808.807	1.76
809.108	2.27
809.409	7.21
809.711	4.28
810.012	5.69
810.313	4.15
810.615	9.28
810.916	-0.97
811.217	9.66
811.518	4.6
811.819	3.09
812.12	-0.44
812.421	2.53
812.722	7.69
813.023	10.4
813.323	3.9
813.624	2.68
813.925	16.06
814.225	0.02
814.526	6.93
814.826	7.81
815.126	-0.41
815.427	1.5
815.727	4.38
816.027	5.67
816.327	1.65
816.627	4.33
816.927	11.57
817.227	2.13
817.527	8.35
817.827	14.22
818.127	8.66
818.427	4.66
818.727	5.21
819.026	11.13
819.326	4.69
819.625	3.73
819.925	4.87
820.224	6.12
820.524	7.32
820.823	7.44
821.122	1.59
821.421	13.01
821.72	6.17
822.019	5.46
822.318	5.1
822.617	-1.46
822.916	7.81
823.215	6.54
823.514	15.26
823.813	5.1
824.111	7.97
824.41	11.34
824.709	8.96
825.007	9.94
825.306	10.01
825.604	9.57
825.902	9.95
826.201	9.82
826.499	9.97
826.797	9.67
827.095	9.29
827.393	9.38
827.691	9.29
827.989	6.22
828.287	8.85
828.585	7.12
828.882	6.24
829.18	9.29
829.478	6.63
829.775	12.64
830.073	11.27
830.37	9.57
830.668	9.3
830.965	13.33
831.263	7.32
831.56	12.07
831.857	5.02
832.154	9.09
832.451	9.04
832.748	10.57
833.045	12.04
833.342	12.61
833.639	5.2
833.936	5.48
834.232	13.14
834.529	8.86
834.826	-1.8
835.122	4.98
835.419	6.15
835.715	3.49
836.012	9.4
836.308	3.93
836.604	6.71
836.901	8.16
837.197	7.16
837.493	7.76
837.789	6.77
838.085	9.88
838.381	9.82
838.677	7.28
838.972	7.23
839.268	10.75
839.564	8.16
839.86	6.77
840.155	-3.28
840.451	1.81
840.746	4.74
841.042	5.08
841.337	9.7
841.632	18.03
841.928	18.2
842.223	6.75
842.518	2.6
842.813	20.25
843.108	6.14
843.403	2.09
843.698	-6.09
843.993	2.04
844.287	0.43
844.582	-2.46
844.877	6.9
845.171	4.21
845.466	-4.08
845.761	-1.89
846.055	9.47
846.349	-4.13
846.644	-0.28
846.938	-21.45
847.232	1.6
847.526	-4.82
847.82	25.06
848.114	-14.71
848.408	-4.62
848.702	-2.95
848.996	-31.02
849.29	6.15
849.584	-0.68
849.877	2.99
850.171	9.03
850.465	-11.15
850.758	4.73
851.052	-13.62
851.345	1.64
851.638	10.56
851.932	-27.83
852.225	-23.65
852.518	-13.53
852.811	-19.07
853.104	-59.55
853.397	-0.12
853.69	-24.58
853.983	-0.72
854.276	-0.43
854.569	10.88
854.861	-2.36
855.154	-24.83
855.447	-27.86
855.739	1.04
856.032	-6.99
856.324	30.17
856.616	14.89
856.909	11.37
857.201	16.02
857.493	-10.58
857.785	-35.94
858.077	23.27
858.369	1.71
858.661	-7.12
858.953	-31.97
859.245	-17.51
859.537	13.5
859.829	8.87
860.12	2.99
860.412	-1.94
860.703	-18.2
860.995	-18.71
861.286	-25.42
861.578	5.67
861.869	32.86
862.16	-26.24
862.452	19.17
862.743	1.69
863.034	-1.78
863.325	-3.84
863.616	-21.22
863.907	-27.35
864.198	-9.83
864.488	15.58
864.779	-13.22
865.07	-7.51
865.36	-3.26
865.651	-16.91
865.941	-10.18
866.232	-27.64
866.522	-37.57
866.813	-12.05
867.103	21.2
867.393	-25.25
867.683	11.94
867.973	-25.45
868.263	-20.71
868.553	42.94
868.843	1.5
869.133	-93.76
869.423	2.56
869.713	-8.25
870.002	21.98
870.292	29.79
870.582	-3.92
870.871	-0.23
871.161	0.25
871.45	-9.36
871.739	-42.04
872.029	-10.32
872.318	-1.14
872.607	21.17
872.896	-14.81
873.185	-14.52
873.474	-66.29
873.763	-36.39
874.052	-34.74
874.341	2.34
874.63	19.27
874.918	-16.51
875.207	18.83
875.496	-13.84
875.784	-319.32
876.073	-144.5
876.361	-111.24
876.649	-19.6
876.938	-27.26
877.226	-46.49
877.514	23.56
877.802	-36.58
878.09	-16.66
878.378	26.49
878.666	7.87
878.954	-0.39
879.242	-13.38
879.53	15.76
879.817	17.44
880.105	-25.14
880.392	-24.9
880.68	-32.91
880.967	-43.41
881.255	29.49
881.542	-71.68
881.83	-36.67
882.117	27.87
882.404	-52.31
882.691	-19.78
882.978	-14.38
883.265	-27.35
883.552	28.11
883.839	-5.34
884.126	3.6
884.413	38.9
884.699	9.44
884.986	12.89
885.273	4.8
885.559	4.8
885.846	4.8
