Data from 0191_chest_Reflection__4__412.txt Node

Date: Fri Dec 15 20:26:13 CST 2023
User: ToomeyLab
Spectrometer: FLMS14357
Trigger mode: 0
Integration Time (sec): 1.000000E-2
Scans to average: 100
Electric dark correction enabled: true
Nonlinearity correction enabled: false
Boxcar width: 0
XAxis mode: Wavelengths
Number of Pixels in Spectrum: 2048
>>>>>Begin Spectral Data<<<<<
189.047	99.06
189.435	99.06
189.823	99.06
190.211	2765.77
190.599	-40.66
190.987	169.17
191.375	13.71
191.763	-12.17
192.151	-41.94
192.538	70.06
192.926	49.46
193.314	34.15
193.702	443.87
194.089	1.42
194.477	692.73
194.864	-3114.8
195.252	126.5
195.639	81.97
196.027	53.31
196.414	28.13
196.801	209.85
197.189	273.45
197.576	194.49
197.963	88.15
198.351	-78.99
198.738	-66.25
199.125	13.09
199.512	10.51
199.899	37.6
200.286	20.86
200.673	-29.84
201.06	-41.47
201.447	-15.91
201.833	-8.54
202.22	40.07
202.607	49.5
202.994	24.78
203.38	35.29
203.767	22.18
204.154	12.1
204.54	17.33
204.927	-59.13
205.313	-13.76
205.699	26.7
206.086	24.18
206.472	-18.24
206.858	31
207.245	-57.77
207.631	22.69
208.017	40.87
208.403	-23.34
208.789	25.89
209.175	11.53
209.561	-5.86
209.947	-76.27
210.333	-65.71
210.719	18.41
211.105	-1.18
211.491	-21.72
211.876	19.72
212.262	-17.23
212.648	8.07
213.034	-18.84
213.419	-40.17
213.805	-56.07
214.19	-14.85
214.576	-50.3
214.961	-113.26
215.346	-47.01
215.732	0.59
216.117	-7.64
216.502	-47.92
216.888	6.53
217.273	11.91
217.658	-35.81
218.043	54.82
218.428	-74.12
218.813	-47.15
219.198	-83.15
219.583	-20.92
219.968	27.17
220.353	-30.43
220.738	13.63
221.122	-3.59
221.507	-29.19
221.892	-61.11
222.276	11.08
222.661	-10.73
223.046	1.29
223.43	6.06
223.815	2.54
224.199	-3
224.583	-10.73
224.968	-5.37
225.352	12.45
225.736	2.79
226.121	-4.78
226.505	-0.07
226.889	7.13
227.273	5.88
227.657	8.03
228.041	9.03
228.425	6.29
228.809	2.79
229.193	1.71
229.577	2.06
229.961	4.19
230.344	3.8
230.728	3.72
231.112	4.16
231.495	4.42
231.879	3.67
232.263	3.82
232.646	5.03
233.03	2.15
233.413	2.03
233.797	4.09
234.18	3.15
234.563	3.34
234.946	4.9
235.33	5.06
235.713	5.19
236.096	4.2
236.479	4.2
236.862	1.26
237.245	5.54
237.628	4.06
238.011	3.28
238.394	5.11
238.777	5.45
239.16	2.66
239.543	4.49
239.925	5.11
240.308	3.02
240.691	4.82
241.073	5.1
241.456	2.78
241.838	2.02
242.221	3.7
242.603	4.65
242.986	4.74
243.368	4.01
243.75	4.24
244.133	4.29
244.515	4.18
244.897	4.46
245.279	4.87
245.661	4.14
246.043	3.97
246.425	3.07
246.807	5.79
247.189	4.41
247.571	4.32
247.953	4.72
248.335	4.13
248.717	4.18
249.098	4.18
249.48	4.12
249.862	4.39
250.243	4.32
250.625	4.29
251.006	4.35
251.388	2.82
251.769	4.04
252.151	4.27
252.532	3.29
252.913	3.77
253.295	3.3
253.676	3.95
254.057	3.73
254.438	3.94
254.819	3.83
255.2	2.73
255.581	4.41
255.962	2.12
256.343	4.6
256.724	4.3
257.105	3.04
257.486	2.36
257.867	4.45
258.247	3.62
258.628	2.65
259.009	3.85
259.389	4.43
259.77	3.3
260.15	3.4
260.531	2.59
260.911	4.02
261.292	3.92
261.672	4.05
262.052	4.05
262.432	4.13
262.813	3.88
263.193	3.99
263.573	3.83
263.953	3.55
264.333	4.32
264.713	3.7
265.093	2.51
265.473	3.58
265.853	2.91
266.233	3.65
266.612	2.06
266.992	3.04
267.372	4.01
267.752	3.63
268.131	3.74
268.511	3.55
268.89	3.94
269.27	3.96
269.649	3.18
270.029	3.82
270.408	4.26
270.787	4.1
271.167	4.18
271.546	4.07
271.925	3.5
272.304	3.62
272.683	4.07
273.062	3.6
273.441	3.96
273.82	2.8
274.199	4.06
274.578	3.82
274.957	3.48
275.336	4.49
275.715	3.27
276.093	3.79
276.472	4.2
276.851	3.32
277.229	3.3
277.608	2.83
277.986	3.79
278.365	3.42
278.743	3.44
279.122	3.11
279.5	3.96
279.878	4.12
280.257	3.74
280.635	3.72
281.013	2.95
281.391	3.19
281.769	4.01
282.147	3.92
282.525	4.44
282.903	3.5
283.281	4.05
283.659	3.36
284.037	3.56
284.415	3.9
284.792	3.62
285.17	3.17
285.548	3.13
285.925	4.18
286.303	3.61
286.68	3.56
287.058	3.67
287.435	3.52
287.813	3.94
288.19	3.93
288.567	3.59
288.945	4.22
289.322	3.71
289.699	3.61
290.076	3.68
290.453	3.85
290.83	3.86
291.207	3.37
291.584	3.69
291.961	3.77
292.338	3.8
292.715	4.43
293.092	3.51
293.469	3.72
293.845	4.2
294.222	3.31
294.599	3.44
294.975	3.39
295.352	4.13
295.728	3.38
296.105	3.97
296.481	3.57
296.858	3.91
297.234	3.82
297.61	3.64
297.986	4.33
298.363	3.99
298.739	4.14
299.115	3.82
299.491	3.47
299.867	3.64
300.243	4.14
300.619	4
300.995	3.34
301.371	3.93
301.746	4.2
302.122	4.06
302.498	4.24
302.874	4.05
303.249	3.63
303.625	3.83
304	3.64
304.376	4.36
304.751	3.75
305.127	4.54
305.502	3.11
305.878	3.18
306.253	3.62
306.628	4.11
307.003	3.52
307.378	4.7
307.754	4.03
308.129	3.72
308.504	4.01
308.879	3.5
309.254	4.87
309.629	4.2
310.003	4.13
310.378	3.96
310.753	4.3
311.128	3.7
311.502	4.66
311.877	4.22
312.252	3.25
312.626	4.15
313.001	4.2
313.375	4.18
313.75	3.67
314.124	4.08
314.498	3.7
314.873	3.85
315.247	3.14
315.621	3.98
315.995	2.76
316.369	4.16
316.743	3.78
317.117	4.36
317.491	3.66
317.865	3.36
318.239	3.78
318.613	4.54
318.987	4.27
319.361	3.8
319.734	4.23
320.108	4.37
320.482	4.14
320.855	4.31
321.229	3.78
321.602	2.81
321.976	4.15
322.349	3.93
322.723	3.73
323.096	4.18
323.469	2.95
323.843	4.01
324.216	4.01
324.589	3.32
324.962	4.16
325.335	4.44
325.708	4.04
326.081	4.28
326.454	3.89
326.827	3.52
327.2	4.1
327.573	4.1
327.945	4.39
328.318	3.67
328.691	2.94
329.063	3.84
329.436	3.47
329.809	4.36
330.181	4.07
330.553	3.72
330.926	4.52
331.298	4.34
331.671	3.7
332.043	4.5
332.415	4.01
332.787	3.71
333.159	4.55
333.532	4.37
333.904	4.22
334.276	3.8
334.648	4.1
335.02	4.33
335.391	4.37
335.763	3.98
336.135	4.52
336.507	4.1
336.879	4.17
337.25	4.18
337.622	3.94
337.993	4.41
338.365	4.6
338.736	4.48
339.108	3.85
339.479	3.99
339.851	3.91
340.222	4.39
340.593	3.85
340.964	4.51
341.336	4.3
341.707	4.14
342.078	4.46
342.449	4.29
342.82	4.02
343.191	3.87
343.562	3.87
343.933	4.69
344.303	4.17
344.674	4.11
345.045	4.16
345.416	4.28
345.786	3.63
346.157	4.44
346.527	3.56
346.898	3.63
347.268	4.39
347.639	4.2
348.009	4.56
348.38	4.21
348.75	3.97
349.12	3.93
349.49	4.42
349.861	4.09
350.231	3.25
350.601	4.34
350.971	4.3
351.341	4.42
351.711	3.96
352.081	3.88
352.45	4.28
352.82	4.5
353.19	4.13
353.56	3.69
353.929	3.93
354.299	3.93
354.669	4.04
355.038	4.3
355.408	4.06
355.777	4.18
356.147	3.96
356.516	4.33
356.885	4.06
357.254	3.9
357.624	4.56
357.993	4.48
358.362	3.69
358.731	3.97
359.1	4.05
359.469	4.72
359.838	4.49
360.207	4.07
360.576	4.03
360.945	4.39
361.314	4.64
361.682	4.19
362.051	3.93
362.42	4.51
362.788	3.83
363.157	4.18
363.525	4.35
363.894	4.19
364.262	4.3
364.631	4.12
364.999	4.43
365.367	3.91
365.735	4.83
366.104	4.19
366.472	4.3
366.84	4.24
367.208	3.8
367.576	4.29
367.944	4.65
368.312	4
368.68	4.01
369.048	4.6
369.416	4.2
369.783	3.93
370.151	4.6
370.519	4.48
370.886	4.55
371.254	4.04
371.621	4.69
371.989	4.65
372.356	3.81
372.724	4.42
373.091	4.27
373.458	4.11
373.826	4.31
374.193	4.25
374.56	4.54
374.927	4.47
375.294	4.24
375.661	4.53
376.028	4.1
376.395	4.11
376.762	4.13
377.129	4.11
377.496	4.27
377.863	4.36
378.229	3.98
378.596	4.55
378.963	4.1
379.329	4.14
379.696	4.87
380.062	4.53
380.429	4.72
380.795	4.27
381.161	4.41
381.528	4.46
381.894	4.35
382.26	4.38
382.626	4.65
382.993	3.88
383.359	4.67
383.725	3.96
384.091	4.4
384.457	4.56
384.823	4.5
385.188	4.21
385.554	4.46
385.92	4.57
386.286	4.68
386.651	4.49
387.017	4.59
387.383	4.51
387.748	4.62
388.114	4.82
388.479	4.57
388.845	4.48
389.21	4.43
389.575	4.79
389.94	4.51
390.306	4.39
390.671	4.68
391.036	4.1
391.401	4.43
391.766	4.23
392.131	4.56
392.496	4.79
392.861	4.35
393.226	4.73
393.591	4.43
393.956	4.45
394.32	4.69
394.685	4.15
395.05	4.39
395.414	4.56
395.779	4.33
396.143	4.65
396.508	4.39
396.872	4.54
397.236	4.56
397.601	4.41
397.965	4.29
398.329	4.55
398.694	4.54
399.058	4.66
399.422	4.45
399.786	4.81
400.15	4.51
400.514	4.66
400.878	4.58
401.242	4.73
401.605	4.55
401.969	4.55
402.333	4.44
402.697	4.31
403.06	4.57
403.424	4.44
403.787	4.48
404.151	4.71
404.514	4.46
404.878	4.57
405.241	4.69
405.604	4.65
405.968	4.6
406.331	4.58
406.694	4.86
407.057	4.37
407.42	4.78
407.783	4.33
408.146	4.41
408.509	4.5
408.872	4.35
409.235	4.64
409.598	4.7
409.961	4.47
410.323	4.46
410.686	4.52
411.049	4.36
411.411	4.67
411.774	4.68
412.136	4.58
412.499	4.63
412.861	4.3
413.223	4.55
413.586	4.5
413.948	4.43
414.31	4.65
414.672	4.43
415.035	4.48
415.397	5.05
415.759	4.39
416.121	4.71
416.483	4.57
416.845	4.65
417.206	4.54
417.568	4.68
417.93	4.35
418.292	4.46
418.653	4.55
419.015	4.69
419.377	4.57
419.738	4.69
420.1	4.48
420.461	4.76
420.822	4.61
421.184	4.53
421.545	4.69
421.906	4.44
422.267	4.68
422.629	4.53
422.99	4.56
423.351	4.52
423.712	4.57
424.073	4.64
424.434	4.51
424.795	4.6
425.155	4.64
425.516	4.46
425.877	4.43
426.238	4.51
426.598	4.61
426.959	4.51
427.32	4.45
427.68	4.62
428.041	4.59
428.401	4.66
428.761	4.6
429.122	4.78
429.482	4.58
429.842	4.74
430.202	4.7
430.563	4.71
430.923	4.64
431.283	4.61
431.643	4.64
432.003	4.77
432.363	4.89
432.722	4.53
433.082	4.75
433.442	4.85
433.802	4.59
434.161	4.57
434.521	4.75
434.881	4.78
435.24	4.52
435.6	4.76
435.959	4.7
436.319	4.64
436.678	4.67
437.037	4.58
437.396	4.67
437.756	4.77
438.115	4.59
438.474	4.76
438.833	4.64
439.192	4.63
439.551	4.78
439.91	4.69
440.269	4.7
440.628	4.48
440.987	4.75
441.345	4.6
441.704	4.7
442.063	4.7
442.421	4.62
442.78	4.6
443.138	4.63
443.497	4.62
443.855	4.61
444.214	4.63
444.572	4.76
444.93	4.76
445.288	4.63
445.647	4.86
446.005	4.6
446.363	4.66
446.721	4.75
447.079	4.6
447.437	4.71
447.795	4.65
448.153	4.51
448.51	4.58
448.868	4.78
449.226	4.6
449.584	4.71
449.941	4.83
450.299	4.83
450.656	4.71
451.014	4.67
451.371	4.64
451.729	4.68
452.086	4.84
452.443	4.8
452.801	4.75
453.158	4.7
453.515	4.52
453.872	5.07
454.229	4.79
454.586	4.63
454.943	4.71
455.3	4.78
455.657	4.72
456.014	4.69
456.371	4.69
456.727	4.78
457.084	4.88
457.441	4.77
457.797	4.87
458.154	4.95
458.51	4.86
458.867	4.74
459.223	5.05
459.58	4.77
459.936	4.83
460.292	4.66
460.648	4.64
461.005	4.76
461.361	4.76
461.717	4.82
462.073	4.74
462.429	4.7
462.785	4.8
463.141	4.69
463.496	4.83
463.852	4.75
464.208	4.83
464.564	4.8
464.919	4.85
465.275	4.89
465.631	5.01
465.986	4.76
466.342	4.85
466.697	4.86
467.052	4.69
467.408	4.86
467.763	4.99
468.118	4.65
468.473	4.93
468.829	4.91
469.184	4.76
469.539	4.91
469.894	4.66
470.249	5.11
470.603	4.94
470.958	5.14
471.313	4.98
471.668	4.95
472.023	4.86
472.377	4.97
472.732	4.91
473.086	4.83
473.441	4.72
473.795	5.06
474.15	4.94
474.504	4.71
474.859	4.72
475.213	4.7
475.567	4.81
475.921	4.78
476.275	4.93
476.63	4.98
476.984	4.9
477.338	4.95
477.692	4.74
478.045	4.98
478.399	4.95
478.753	5.03
479.107	4.85
479.461	4.86
479.814	4.86
480.168	4.93
480.521	4.93
480.875	4.85
481.228	4.94
481.582	4.86
481.935	4.92
482.289	4.95
482.642	4.91
482.995	4.9
483.348	4.95
483.701	4.89
484.055	4.83
484.408	4.9
484.761	4.77
485.114	4.67
485.466	4.6
485.819	4.61
486.172	4.59
486.525	4.64
486.878	4.65
487.23	4.78
487.583	4.78
487.936	4.87
488.288	4.83
488.641	4.85
488.993	4.75
489.345	4.64
489.698	4.74
490.05	4.67
490.402	4.74
490.754	4.77
491.107	4.83
491.459	4.87
491.811	4.97
492.163	4.99
492.515	4.88
492.866	4.87
493.218	4.82
493.57	4.71
493.922	4.78
494.274	4.8
494.625	4.87
494.977	4.91
495.328	5.08
495.68	5.03
496.031	5.08
496.383	4.93
496.734	5.1
497.086	5.1
497.437	5.17
497.788	4.99
498.139	5.07
498.49	5.05
498.842	4.83
499.193	5.01
499.544	4.99
499.894	4.99
500.245	5.08
500.596	4.95
500.947	5.07
501.298	5.01
501.648	5.16
501.999	5.15
502.35	5.14
502.7	4.99
503.051	4.86
503.401	5.06
503.752	5.39
504.102	5.06
504.452	5.14
504.803	5.11
505.153	5.07
505.503	5.25
505.853	5.18
506.203	5.23
506.553	5.1
506.903	5.03
507.253	5.01
507.603	4.86
507.953	5.15
508.303	5.12
508.652	5.06
509.002	5.11
509.352	5.25
509.701	5.1
510.051	5.14
510.4	5.08
510.75	5.24
511.099	5.04
511.449	5.09
511.798	5.17
512.147	5.21
512.496	4.96
512.846	5.23
513.195	5.11
513.544	5.15
513.893	5.09
514.242	5.22
514.591	5.27
514.939	5.2
515.288	5.09
515.637	5.2
515.986	5.11
516.334	5.17
516.683	5.41
517.032	5.28
517.38	5.24
517.729	5.23
518.077	4.97
518.426	5.42
518.774	5.33
519.122	5.18
519.47	5.17
519.819	5.11
520.167	5.27
520.515	5.21
520.863	5.22
521.211	5.32
521.559	5.29
521.907	5.18
522.255	5.31
522.602	5.27
522.95	5.27
523.298	5.31
523.645	5.43
523.993	5.3
524.341	5.45
524.688	5.37
525.036	5.35
525.383	5.38
525.73	5.49
526.078	5.43
526.425	5.34
526.772	5.41
527.119	5.32
527.466	5.33
527.814	5.31
528.161	5.3
528.508	5.35
528.854	5.35
529.201	5.31
529.548	5.37
529.895	5.26
530.242	5.16
530.588	5.14
530.935	5.12
531.282	5.19
531.628	5.23
531.975	5.35
532.321	5.41
532.667	5.43
533.014	5.47
533.36	5.51
533.706	5.44
534.052	5.45
534.399	5.39
534.745	5.46
535.091	5.39
535.437	5.38
535.783	5.36
536.129	5.43
536.474	5.48
536.82	5.5
537.166	5.58
537.512	5.67
537.857	5.54
538.203	5.59
538.549	5.6
538.894	5.48
539.239	5.52
539.585	5.62
539.93	5.54
540.276	5.71
540.621	5.67
540.966	5.8
541.311	5.59
541.656	5.66
542.001	5.52
542.346	5.69
542.691	5.53
543.036	5.56
543.381	5.51
543.726	5.51
544.071	5.68
544.415	5.66
544.76	5.56
545.105	5.69
545.449	5.69
545.794	5.78
546.138	5.72
546.483	5.78
546.827	5.86
547.171	5.86
547.516	5.94
547.86	5.72
548.204	5.81
548.548	5.8
548.892	5.89
549.236	5.94
549.58	5.87
549.924	6.02
550.268	6.1
550.612	6.15
550.956	5.99
551.3	6.07
551.643	6.02
551.987	6.08
552.33	6.13
552.674	6.3
553.017	6.03
553.361	6.01
553.704	6.22
554.048	6.04
554.391	6.06
554.734	6
555.077	6.08
555.42	5.87
555.764	6.08
556.107	6.1
556.45	5.93
556.793	6.23
557.135	6.29
557.478	6.44
557.821	6.37
558.164	6.25
558.507	6.31
558.849	6.16
559.192	6.43
559.534	6.43
559.877	6.39
560.219	6.17
560.562	6.66
560.904	6.51
561.246	6.51
561.589	6.23
561.931	6.62
562.273	6.21
562.615	6.53
562.957	6.52
563.299	6.19
563.641	6.34
563.983	6.47
564.325	6.41
564.667	6.55
565.008	6.55
565.35	6.58
565.692	6.37
566.033	6.39
566.375	6.54
566.716	6.69
567.058	6.54
567.399	6.49
567.741	6.45
568.082	6.7
568.423	6.63
568.764	6.62
569.105	6.68
569.447	6.82
569.788	6.67
570.129	6.83
570.47	6.87
570.811	6.83
571.151	6.71
571.492	6.87
571.833	6.82
572.174	6.75
572.514	6.95
572.855	7.04
573.195	6.79
573.536	6.92
573.876	6.88
574.217	6.93
574.557	6.96
574.898	6.98
575.238	6.99
575.578	6.91
575.918	7
576.258	7.18
576.598	7.28
576.938	6.95
577.278	6.91
577.618	6.88
577.958	7.12
578.298	7
578.638	7.14
578.977	6.98
579.317	7.14
579.657	7.36
579.996	7.34
580.336	7.24
580.675	7.26
581.014	7.29
581.354	7.35
581.693	7.39
582.032	7.44
582.372	7.34
582.711	7.66
583.05	7.24
583.389	7.57
583.728	7.49
584.067	7.62
584.406	7.67
584.745	7.61
585.083	7.75
585.422	7.64
585.761	7.65
586.1	7.67
586.438	7.8
586.777	7.81
587.115	7.58
587.454	7.4
587.792	7.56
588.13	8.11
588.469	7.82
588.807	7.89
589.145	7.6
589.483	7.8
589.821	7.51
590.159	7.98
590.497	8.18
590.835	8.1
591.173	7.7
591.511	8.18
591.849	8.04
592.187	8.12
592.524	8.08
592.862	8.12
593.2	8.08
593.537	8.12
593.875	8.03
594.212	8.19
594.55	8.22
594.887	8.26
595.224	8.22
595.561	8.13
595.899	8.28
596.236	7.96
596.573	8.36
596.91	8.01
597.247	8.09
597.584	8.46
597.921	8.31
598.258	8.15
598.594	8.29
598.931	8.39
599.268	8.35
599.604	8.36
599.941	8.57
600.277	8.26
600.614	8.37
600.95	8.33
601.287	8.72
601.623	8.51
601.959	8.73
602.296	8.8
602.632	8.57
602.968	8.68
603.304	8.52
603.64	8.67
603.976	9.02
604.312	8.38
604.648	8.79
604.984	8.98
605.319	8.77
605.655	8.94
605.991	8.79
606.326	8.91
606.662	8.84
606.998	8.73
607.333	8.95
607.668	8.94
608.004	9.07
608.339	9.36
608.674	9.21
609.01	8.89
609.345	8.95
609.68	9.31
610.015	8.88
610.35	9.09
610.685	8.96
611.02	9.35
611.355	9.3
611.689	9
612.024	9.24
612.359	9.2
612.694	9.18
613.028	9.29
613.363	9.43
613.697	9.53
614.032	9.38
614.366	9.42
614.7	9.69
615.035	9.69
615.369	9.41
615.703	9.37
616.037	9.54
616.371	9.61
616.705	9.72
617.039	9.57
617.373	9.43
617.707	9.38
618.041	9.6
618.375	9.57
618.709	9.95
619.042	9.49
619.376	10.04
619.71	9.87
620.043	10.29
620.377	9.85
620.71	10.23
621.043	9.98
621.377	10.24
621.71	10.01
622.043	9.71
622.376	9.93
622.709	10.04
623.043	9.66
623.376	10.39
623.709	10.31
624.041	10.5
624.374	10.23
624.707	10.36
625.04	10.66
625.373	10.07
625.705	10.28
626.038	10.7
626.37	10.1
626.703	10.27
627.035	10.2
627.368	10.67
627.7	10.69
628.032	10.26
628.365	10.83
628.697	10.3
629.029	10.46
629.361	10.75
629.693	10.77
630.025	10.4
630.357	10.65
630.689	10.58
631.021	10.86
631.353	10.98
631.684	10.95
632.016	10.8
632.348	11.26
632.679	11.08
633.011	11
633.342	10.99
633.674	11.11
634.005	10.92
634.336	10.76
634.668	11.94
634.999	10.66
635.33	11.35
635.661	11.27
635.992	10.94
636.323	11.37
636.654	11.49
636.985	11.43
637.316	11.08
637.647	11.04
637.977	11.38
638.308	11.29
638.639	11.36
638.969	11.12
639.3	11.36
639.63	11.5
639.961	11.49
640.291	11.72
640.622	11.99
640.952	11.7
641.282	11.85
641.612	11.89
641.943	11.41
642.273	11.87
642.603	12.06
642.933	11.94
643.263	11.83
643.592	11.69
643.922	11.89
644.252	11.96
644.582	11.54
644.911	11.1
645.241	11.82
645.571	12.26
645.9	12.27
646.23	12.29
646.559	12.63
646.888	11.55
647.218	11.59
647.547	12.46
647.876	11.96
648.205	12.3
648.534	12.11
648.863	12.03
649.192	12.58
649.521	11.85
649.85	12.07
650.179	11.91
650.508	12.32
650.837	12.13
651.165	11.93
651.494	12.91
651.822	12.68
652.151	12.33
652.479	12.27
652.808	12.05
653.136	12.95
653.465	12.07
653.793	12.73
654.121	12.14
654.449	12.67
654.777	12.93
655.105	12.7
655.433	12.6
655.761	12.66
656.089	13.24
656.417	12.84
656.745	12.82
657.073	12.53
657.4	13.44
657.728	13.29
658.056	12.63
658.383	13.33
658.711	13.61
659.038	13.89
659.365	13.53
659.693	12.91
660.02	13.38
660.347	12.89
660.674	13.12
661.001	13.44
661.329	12.82
661.656	13.53
661.982	13.51
662.309	13.39
662.636	13.48
662.963	13.87
663.29	13.42
663.616	14.23
663.943	13.24
664.27	13.83
664.596	14.05
664.923	13.85
665.249	13.5
665.576	13.71
665.902	14.97
666.228	14.37
666.554	14.23
666.881	13.6
667.207	13.7
667.533	14.25
667.859	14.12
668.185	14.21
668.511	13.68
668.837	13.12
669.162	14.48
669.488	13.96
669.814	14.57
670.139	14.03
670.465	14.25
670.791	14.49
671.116	15.61
671.442	14.09
671.767	14.31
672.092	15.03
672.418	14.24
672.743	14.91
673.068	14.12
673.393	15.15
673.718	15.16
674.043	15.27
674.368	14.71
674.693	15.34
675.018	14.7
675.343	14.93
675.667	14.99
675.992	14.31
676.317	15.12
676.641	14.84
676.966	15.28
677.29	15.11
677.615	15.25
677.939	15.52
678.264	15.42
678.588	15.36
678.912	15.25
679.236	15.99
679.56	14.66
679.885	15.8
680.209	15.22
680.532	15.35
680.856	15.65
681.18	15.09
681.504	15.68
681.828	15.51
682.152	14.97
682.475	15.99
682.799	15.8
683.122	15.77
683.446	15.05
683.769	15.94
684.093	15.61
684.416	16.32
684.739	16.2
685.062	15.28
685.386	16.18
685.709	15.33
686.032	16.16
686.355	15.99
686.678	16.38
687.001	15.78
687.324	16.58
687.646	15.75
687.969	15.81
688.292	16.45
688.614	16.23
688.937	16.4
689.26	16.36
689.582	17.1
689.904	15.67
690.227	16.33
690.549	16.2
690.871	16.44
691.194	15.71
691.516	16.26
691.838	16.48
692.16	15.36
692.482	16.24
692.804	16.4
693.126	15.97
693.448	17.33
693.769	17.93
694.091	16.33
694.413	17.02
694.735	16.2
695.056	16.61
695.378	17.47
695.699	16.76
696.021	15.86
696.342	16.67
696.663	16.9
696.984	17.03
697.306	16.28
697.627	16.68
697.948	18.17
698.269	17.56
698.59	16.73
698.911	16.59
699.232	16.93
699.553	17.27
699.873	17.03
700.194	17.51
700.515	17.53
700.835	17.26
701.156	17.25
701.477	17.49
701.797	17.99
702.117	17.16
702.438	17.75
702.758	17.88
703.078	17.49
703.398	17.17
703.719	17.6
704.039	17.23
704.359	17.87
704.679	17.72
704.999	18.16
705.319	17.6
705.638	17.44
705.958	18.23
706.278	18.74
706.597	18.72
706.917	17.39
707.237	18.38
707.556	17.56
707.876	18.03
708.195	18.37
708.514	17.84
708.834	17.67
709.153	17.56
709.472	20.17
709.791	19.89
710.11	17.36
710.429	18.63
710.748	18.81
711.067	19.09
711.386	18.71
711.705	18.98
712.023	18.57
712.342	18.4
712.661	17.65
712.979	18.15
713.298	18.35
713.616	18.7
713.935	19.09
714.253	17.7
714.572	19.62
714.89	18.36
715.208	19.17
715.526	18.1
715.844	19.49
716.162	19.01
716.48	19.22
716.798	19.62
717.116	19.46
717.434	19.11
717.752	17.18
718.069	19.15
718.387	19.67
718.705	19.38
719.022	18.03
719.34	18.83
719.657	19
719.975	19.89
720.292	19.15
720.609	20.43
720.927	19.62
721.244	20.21
721.561	18.04
721.878	19.92
722.195	17.65
722.512	18.94
722.829	19.12
723.146	19.65
723.463	20.58
723.779	19.88
724.096	20.63
724.413	19.4
724.729	20.66
725.046	19.94
725.362	20.25
725.679	19.97
725.995	19
726.311	19.43
726.628	20.29
726.944	21.01
727.26	20.77
727.576	20.37
727.892	21.42
728.208	20.08
728.524	20.7
728.84	20.28
729.156	19.23
729.472	18.7
729.787	19.41
730.103	20.31
730.419	21.63
730.734	21.24
731.05	19.43
731.365	20.92
731.681	21.28
731.996	20.45
732.311	20.23
732.626	20.76
732.942	19.62
733.257	20.42
733.572	21.24
733.887	20.87
734.202	20.84
734.517	20.82
734.832	21.88
735.146	22.43
735.461	21.25
735.776	20.86
736.091	21.25
736.405	21.04
736.72	20.58
737.034	22.87
737.349	22.56
737.663	22.63
737.977	21.96
738.292	21.25
738.606	23.63
738.92	21.73
739.234	22.61
739.548	22.53
739.862	20.63
740.176	21
740.49	20.72
740.804	24.56
741.117	20.87
741.431	22.49
741.745	20.91
742.058	22.41
742.372	20.5
742.685	22.87
742.999	21.11
743.312	21.2
743.626	21.15
743.939	21.53
744.252	22.61
744.565	20.62
744.878	22.8
745.191	21.73
745.505	21.68
745.817	23.55
746.13	19.82
746.443	22.85
746.756	23.54
747.069	24.25
747.381	23.27
747.694	23.88
748.007	22.53
748.319	20.93
748.632	21.86
748.944	21.56
749.256	24.68
749.569	23.45
749.881	23.16
750.193	21.9
750.505	22.55
750.817	20.66
751.129	24.43
751.441	21.26
751.753	22.85
752.065	23.21
752.377	20.73
752.689	24.59
753	22.38
753.312	22.89
753.624	22.61
753.935	25.81
754.247	22.05
754.558	23.84
754.869	22.45
755.181	23.19
755.492	23.12
755.803	21.95
756.114	22.1
756.425	22.2
756.736	22.03
757.047	24.91
757.358	23.81
757.669	21.62
757.98	22.59
758.291	23.14
758.601	23.23
758.912	22.46
759.223	25.73
759.533	22.58
759.844	23
760.154	22.1
760.464	27.14
760.775	25.14
761.085	23.21
761.395	23.45
761.705	22.79
762.016	24.59
762.326	24.68
762.636	23.29
762.945	23.94
763.255	25.62
763.565	21.96
763.875	25.61
764.185	23.83
764.494	23.49
764.804	23.58
765.113	24.69
765.423	23.83
765.732	26.22
766.042	25.2
766.351	24.55
766.66	25.45
766.97	26.15
767.279	24.51
767.588	24.83
767.897	25.95
768.206	24.78
768.515	25.65
768.824	26.14
769.133	25.48
769.441	24.49
769.75	24.17
770.059	25.11
770.367	23.69
770.676	25.66
770.984	25.13
771.293	23.17
771.601	28.19
771.91	24.49
772.218	26.46
772.526	26.12
772.834	24.48
773.142	24.13
773.45	23.67
773.758	23.33
774.066	24.73
774.374	24.21
774.682	24.41
774.99	27.08
775.298	24.79
775.605	25.72
775.913	22.17
776.22	25.1
776.528	26.06
776.835	25.33
777.143	27.58
777.45	24.76
777.757	27.99
778.065	24.5
778.372	24.27
778.679	20.63
778.986	23.54
779.293	24.45
779.6	26.96
779.907	23.42
780.214	24.6
780.52	29.62
780.827	26.94
781.134	23.55
781.44	22.67
781.747	27.19
782.053	24.14
782.36	24.97
782.666	25.56
782.973	27.26
783.279	24.71
783.585	26.72
783.891	26.39
784.197	29.02
784.503	25.03
784.809	25.69
785.115	29.75
785.421	26.99
785.727	28.4
786.033	25.77
786.339	24.33
786.644	27.61
786.95	28.58
787.255	26.76
787.561	26.63
787.866	26.48
788.172	27.14
788.477	27.03
788.782	24.61
789.088	25.89
789.393	23.1
789.698	24.15
790.003	25.75
790.308	24.93
790.613	26.64
790.918	28.24
791.223	29.52
791.527	23.86
791.832	30.33
792.137	21.3
792.441	25.45
792.746	24.13
793.05	27
793.355	26.6
793.659	29.87
793.963	27.12
794.268	28.96
794.572	26.26
794.876	27.31
795.18	24.17
795.484	29.32
795.788	29.3
796.092	24.02
796.396	26.18
796.7	28.41
797.004	26.68
797.307	19.58
797.611	27.21
797.915	28.77
798.218	27.75
798.522	29.72
798.825	29.58
799.128	26.23
799.432	27.97
799.735	23.24
800.038	32.53
800.341	27.64
800.644	30.62
800.947	29.61
801.25	24.03
801.553	22.82
801.856	25.38
802.159	25.38
802.462	22.89
802.764	26.75
803.067	21.83
803.37	25.56
803.672	23.35
803.975	29.62
804.277	32.86
804.579	31.36
804.882	29.07
805.184	23.21
805.486	19.16
805.788	24.62
806.09	30.35
806.392	24.31
806.694	30.61
806.996	36.94
807.298	29.98
807.6	28.78
807.902	29.36
808.203	25.5
808.505	26.46
808.807	20.05
809.108	27.94
809.409	27.18
809.711	28.77
810.012	28.34
810.313	26.43
810.615	29.82
810.916	27.59
811.217	28.02
811.518	27.26
811.819	26.87
812.12	26.39
812.421	27.75
812.722	31.86
813.023	31.9
813.323	29.61
813.624	32.22
813.925	36.99
814.225	23.96
814.526	28.07
814.826	33.52
815.126	23.05
815.427	27.66
815.727	28.89
816.027	31.11
816.327	28.81
816.627	22.81
816.927	29.05
817.227	27.91
817.527	28.35
817.827	33.44
818.127	28.71
818.427	33.24
818.727	31.98
819.026	33.32
819.326	30.14
819.625	35.76
819.925	29.91
820.224	31.13
820.524	29.52
820.823	35.14
821.122	29.21
821.421	29.71
821.72	31.3
822.019	26.37
822.318	28.81
822.617	33.87
822.916	30.91
823.215	26.99
823.514	33.79
823.813	30.76
824.111	31.72
824.41	36.23
824.709	32.86
825.007	33.61
825.306	32.59
825.604	33.14
825.902	31.8
826.201	32.79
826.499	31.04
826.797	32.09
827.095	33.89
827.393	32.87
827.691	33.62
827.989	29.51
828.287	32.43
828.585	30.46
828.882	30.13
829.18	33.77
829.478	30.96
829.775	34.81
830.073	35.29
830.37	31.69
830.668	30.71
830.965	34.53
831.263	31.32
831.56	31.48
831.857	31.38
832.154	29.73
832.451	34.69
832.748	35.85
833.045	36.22
833.342	33.86
833.639	26.49
833.936	29.63
834.232	32.54
834.529	24.99
834.826	28.93
835.122	37.77
835.419	24.71
835.715	27.12
836.012	34.66
836.308	31.95
836.604	29.8
836.901	30.77
837.197	31.57
837.493	34.82
837.789	28.49
838.085	33.43
838.381	33.32
838.677	35.72
838.972	30.87
839.268	35.1
839.564	32.13
839.86	34.75
840.155	24.02
840.451	26.3
840.746	32.47
841.042	37.22
841.337	31.35
841.632	29.08
841.928	42.48
842.223	31.58
842.518	25.99
842.813	36.09
843.108	30.05
843.403	36.13
843.698	31.05
843.993	37.61
844.287	29.73
844.582	24.62
844.877	33.36
845.171	17.87
845.466	25.48
845.761	23.89
846.055	36.25
846.349	27.7
846.644	26.45
846.938	31.6
847.232	30.72
847.526	45.61
847.82	52.45
848.114	5.82
848.408	40.79
848.702	44.18
848.996	0.69
849.29	27.92
849.584	13.01
849.877	19.22
850.171	30.25
850.465	29.1
850.758	17.44
851.052	3.75
851.345	17.26
851.638	43.39
851.932	1.09
852.225	15.04
852.518	20.67
852.811	30.94
853.104	-4.91
853.397	20.82
853.69	23.49
853.983	17.51
854.276	37.94
854.569	42.26
854.861	27.45
855.154	30.19
855.447	2.88
855.739	35.41
856.032	21.73
856.324	61.87
856.616	57.29
856.909	29.09
857.201	43.87
857.493	31.21
857.785	-14.93
858.077	18.79
858.369	25.78
858.661	29.18
858.953	35.83
859.245	28.46
859.537	23.91
859.829	47.65
860.12	15.82
860.412	33.04
860.703	12.06
860.995	27.36
861.286	13.44
861.578	34.22
861.869	55.99
862.16	16.1
862.452	15.95
862.743	19.63
863.034	11.71
863.325	4.59
863.616	47.36
863.907	-3.07
864.198	15.48
864.488	45.08
864.779	17.28
865.07	52.67
865.36	6.23
865.651	42.92
865.941	30.73
866.232	13.33
866.522	18.61
866.813	10.38
867.103	45.21
867.393	14.17
867.683	39.54
867.973	32.81
868.263	24.69
868.553	44.65
868.843	55.64
869.133	-34.97
869.423	60.35
869.713	45.05
870.002	24.46
870.292	28.38
870.582	11.21
870.871	21.51
871.161	43.26
871.45	-1.82
871.739	12.56
872.029	-1.86
872.318	15.35
872.607	42.68
872.896	14.83
873.185	40.23
873.474	13.71
873.763	23.89
874.052	22.47
874.341	55.77
874.63	7.73
874.918	19.18
875.207	23.82
875.496	100.98
875.784	-169.34
876.073	-86.8
876.361	-38.9
876.649	17.91
876.938	-8.18
877.226	0.64
877.514	38.09
877.802	21.5
878.09	-8.26
878.378	51.47
878.666	-6.89
878.954	2.81
879.242	17.05
879.53	26.9
879.817	16.27
880.105	11.95
880.392	34.24
880.68	17.03
880.967	32.09
881.255	53.56
881.542	30.53
881.83	-45.38
882.117	25.19
882.404	7.05
882.691	39.48
882.978	33.59
883.265	45.55
883.552	34.19
883.839	23.4
884.126	29.77
884.413	42.04
884.699	34.58
884.986	38.65
885.273	39.05
885.559	39.05
885.846	39.05
