Data from 0191_forehead_Reflection__0__419.txt Node

Date: Fri Dec 15 20:28:01 CST 2023
User: ToomeyLab
Spectrometer: FLMS14357
Trigger mode: 0
Integration Time (sec): 1.000000E-2
Scans to average: 100
Electric dark correction enabled: true
Nonlinearity correction enabled: false
Boxcar width: 0
XAxis mode: Wavelengths
Number of Pixels in Spectrum: 2048
>>>>>Begin Spectral Data<<<<<
189.047	-45.4
189.435	-45.4
189.823	-45.4
190.211	-1282.88
190.599	-128.67
190.987	63.53
191.375	170.77
191.763	114.79
192.151	21.42
192.538	108.42
192.926	27.98
193.314	71.05
193.702	208.18
194.089	93.6
194.477	-155.02
194.864	1564.13
195.252	64.47
195.639	46.87
196.027	372.07
196.414	63.3
196.801	116.1
197.189	224.77
197.576	194.58
197.963	106.3
198.351	29.93
198.738	-3.06
199.125	74.23
199.512	-12.7
199.899	34.29
200.286	47.17
200.673	16.82
201.06	-24.24
201.447	-127.28
201.833	46.48
202.22	32.34
202.607	101.24
202.994	34.7
203.38	16.69
203.767	13.01
204.154	24.58
204.54	30.19
204.927	-7.67
205.313	-63.23
205.699	35.33
206.086	31.85
206.472	45
206.858	43.49
207.245	-13.98
207.631	36.56
208.017	-0.65
208.403	-37.62
208.789	18.48
209.175	18.77
209.561	15.04
209.947	-34.47
210.333	-83.32
210.719	22.15
211.105	36.16
211.491	-5.23
211.876	19.83
212.262	25.24
212.648	20.4
213.034	8.33
213.419	8.47
213.805	-41.31
214.19	-13.09
214.576	10.64
214.961	-90.2
215.346	-57.22
215.732	6.95
216.117	13.87
216.502	3.32
216.888	5.66
217.273	21.81
217.658	-18.16
218.043	18.11
218.428	-93.63
218.813	-18.64
219.198	11.57
219.583	15.45
219.968	5
220.353	-0.95
220.738	28.96
221.122	-0.79
221.507	-1.39
221.892	-45.15
222.276	-3.42
222.661	16.5
223.046	15.6
223.43	13.57
223.815	10.52
224.199	-6.75
224.583	-1.36
224.968	0.36
225.352	6.37
225.736	-8.11
226.121	-7.34
226.505	0.67
226.889	4.37
227.273	0.2
227.657	12.63
228.041	-0.47
228.425	0.34
228.809	3.69
229.193	5.89
229.577	0.45
229.961	1.96
230.344	3.71
230.728	3.4
231.112	2.54
231.495	3.52
231.879	1.93
232.263	4.36
232.646	5.22
233.03	2.69
233.413	4.03
233.797	3.37
234.18	4.62
234.563	4.03
234.946	3.63
235.33	5.25
235.713	3.33
236.096	4.53
236.479	4.85
236.862	4.27
237.245	6.17
237.628	2.49
238.011	4.58
238.394	3.95
238.777	1.99
239.16	4.48
239.543	2.68
239.925	4.55
240.308	3.35
240.691	5.04
241.073	6.59
241.456	3.93
241.838	1.8
242.221	2.61
242.603	3.81
242.986	3.1
243.368	4.13
243.75	3.46
244.133	3.13
244.515	3.75
244.897	3.68
245.279	3.87
245.661	3.47
246.043	3.03
246.425	1.85
246.807	5.04
247.189	3.71
247.571	4.41
247.953	4.29
248.335	3.36
248.717	3.91
249.098	3.53
249.48	3.88
249.862	3.51
250.243	3.7
250.625	3.19
251.006	3.92
251.388	2.95
251.769	3.24
252.151	4.95
252.532	3.67
252.913	3.16
253.295	3.77
253.676	3.35
254.057	4.12
254.438	3.36
254.819	2.86
255.2	2.22
255.581	3.6
255.962	4.36
256.343	2.75
256.724	4.64
257.105	2.22
257.486	2.7
257.867	3.91
258.247	3.29
258.628	3.43
259.009	3.83
259.389	4.04
259.77	3.35
260.15	2.88
260.531	2.77
260.911	3.96
261.292	3.28
261.672	3.76
262.052	3.75
262.432	3.78
262.813	4.06
263.193	4.26
263.573	3.34
263.953	3.5
264.333	4.33
264.713	4.49
265.093	3.45
265.473	2.75
265.853	2.83
266.233	4.23
266.612	1.98
266.992	3.24
267.372	4.38
267.752	3.28
268.131	3.32
268.511	4.15
268.89	3.72
269.27	3.27
269.649	3.7
270.029	3.28
270.408	4.46
270.787	4.68
271.167	4.13
271.546	3.99
271.925	3.37
272.304	3.63
272.683	4.3
273.062	3.84
273.441	3.89
273.82	3.41
274.199	3.5
274.578	3.84
274.957	3.41
275.336	3.42
275.715	3.29
276.093	3.27
276.472	3.7
276.851	3.17
277.229	3.07
277.608	2.96
277.986	3.36
278.365	4.1
278.743	3.18
279.122	3.54
279.5	3.4
279.878	3.56
280.257	3.57
280.635	3.47
281.013	3.74
281.391	3.85
281.769	3.89
282.147	4.04
282.525	4.59
282.903	3.22
283.281	3.69
283.659	3.97
284.037	3.46
284.415	3.76
284.792	3.74
285.17	2.71
285.548	3.67
285.925	4.08
286.303	3.81
286.68	3.35
287.058	3.53
287.435	3.56
287.813	3.79
288.19	3.74
288.567	3.98
288.945	3.94
289.322	3.91
289.699	4.3
290.076	3.6
290.453	3.75
290.83	3.52
291.207	3.48
291.584	4.14
291.961	4.08
292.338	4.22
292.715	4.28
293.092	3.95
293.469	4.05
293.845	4.02
294.222	3.42
294.599	3.69
294.975	3.3
295.352	4.06
295.728	4.04
296.105	4.14
296.481	3.86
296.858	4.14
297.234	3.69
297.61	4.34
297.986	4.34
298.363	4.23
298.739	4.25
299.115	4.12
299.491	4.15
299.867	4.26
300.243	4.32
300.619	4.11
300.995	4.36
301.371	4.48
301.746	4.22
302.122	5.21
302.498	4.58
302.874	4.91
303.249	5.05
303.625	4.71
304	4.64
304.376	4.59
304.751	4.43
305.127	5.27
305.502	4.54
305.878	4.33
306.253	4.84
306.628	5.73
307.003	5.46
307.378	5.61
307.754	5.3
308.129	4.55
308.504	5.02
308.879	5.01
309.254	6.35
309.629	5.89
310.003	5.77
310.378	6.55
310.753	5.72
311.128	5.53
311.502	5.84
311.877	5.98
312.252	5.45
312.626	5.44
313.001	5.21
313.375	6.14
313.75	5.42
314.124	5.63
314.498	6.16
314.873	6.41
315.247	5.33
315.621	6.42
315.995	5.32
316.369	6.33
316.743	5.88
317.117	6.49
317.491	6.06
317.865	6.07
318.239	6.35
318.613	6.5
318.987	6.54
319.361	6.22
319.734	7.08
320.108	7.05
320.482	6.27
320.855	6.55
321.229	6.75
321.602	6.94
321.976	6.89
322.349	6.92
322.723	6.88
323.096	7.19
323.469	6.86
323.843	6.92
324.216	7.79
324.589	7.32
324.962	6.97
325.335	6.98
325.708	6.92
326.081	6.86
326.454	7.24
326.827	6.7
327.2	7.23
327.573	7.79
327.945	7.81
328.318	6.91
328.691	7.12
329.063	7.57
329.436	7.57
329.809	8.26
330.181	7.84
330.553	7.56
330.926	7.65
331.298	8.32
331.671	7.89
332.043	7.68
332.415	7.87
332.787	8.28
333.159	8.56
333.532	8.7
333.904	7.9
334.276	8.25
334.648	8.21
335.02	7.69
335.391	7.96
335.763	7.9
336.135	8.3
336.507	8.85
336.879	7.99
337.25	8.11
337.622	7.96
337.993	8.53
338.365	8.9
338.736	8.53
339.108	9.05
339.479	8.61
339.851	8.77
340.222	8.34
340.593	8.77
340.964	8.59
341.336	8.94
341.707	8.43
342.078	9.3
342.449	9.54
342.82	8.45
343.191	8.94
343.562	9.11
343.933	9.09
344.303	8.79
344.674	9.72
345.045	9.1
345.416	9.58
345.786	8.88
346.157	9.06
346.527	8.8
346.898	9.12
347.268	9.58
347.639	8.79
348.009	9.56
348.38	9.34
348.75	9.28
349.12	9.55
349.49	10.24
349.861	9.69
350.231	9.79
350.601	9.97
350.971	10.2
351.341	10.31
351.711	9.91
352.081	9.68
352.45	9.75
352.82	10.15
353.19	9.86
353.56	10.04
353.929	9.85
354.299	9.78
354.669	9.96
355.038	10.59
355.408	9.67
355.777	10.52
356.147	9.9
356.516	10.37
356.885	10.42
357.254	10.09
357.624	10.62
357.993	10.48
358.362	9.98
358.731	10.41
359.1	10.58
359.469	10.63
359.838	10.62
360.207	10.72
360.576	10.77
360.945	10.86
361.314	10.69
361.682	10.92
362.051	10.53
362.42	11.09
362.788	10.9
363.157	10.99
363.525	11.05
363.894	10.75
364.262	10.96
364.631	10.86
364.999	11.07
365.367	10.95
365.735	11.77
366.104	11.3
366.472	11.14
366.84	11.18
367.208	11.51
367.576	11.75
367.944	11.73
368.312	11.22
368.68	11.27
369.048	11.34
369.416	11.85
369.783	11.64
370.151	11.64
370.519	11.99
370.886	11.98
371.254	11.66
371.621	11.85
371.989	12.17
372.356	11.38
372.724	11.85
373.091	12.09
373.458	12.24
373.826	11.85
374.193	11.86
374.56	12.29
374.927	12.76
375.294	12.51
375.661	12.03
376.028	12.3
376.395	12.28
376.762	12.83
377.129	12.23
377.496	12.3
377.863	12.57
378.229	12.21
378.596	12.62
378.963	12.6
379.329	12.62
379.696	12.73
380.062	12.73
380.429	12.86
380.795	12.73
381.161	13.07
381.528	13.11
381.894	12.95
382.26	12.82
382.626	13.3
382.993	13.35
383.359	13.19
383.725	13.31
384.091	13.31
384.457	13.6
384.823	13.62
385.188	13.54
385.554	13.52
385.92	13.65
386.286	13.53
386.651	13.94
387.017	13.54
387.383	13.76
387.748	13.51
388.114	13.82
388.479	13.9
388.845	13.81
389.21	14.08
389.575	13.89
389.94	14
390.306	13.98
390.671	13.88
391.036	13.9
391.401	13.86
391.766	14.15
392.131	14.14
392.496	14.47
392.861	14.14
393.226	14.32
393.591	14.46
393.956	14.35
394.32	14.59
394.685	14.26
395.05	14.21
395.414	14.57
395.779	14.31
396.143	14.47
396.508	14.55
396.872	14.9
397.236	14.62
397.601	14.52
397.965	14.79
398.329	14.96
398.694	15.22
399.058	15.04
399.422	14.71
399.786	15.06
400.15	15.33
400.514	15.13
400.878	15.14
401.242	15.57
401.605	15.21
401.969	15.09
402.333	15.38
402.697	15.1
403.06	15.79
403.424	15.4
403.787	15.18
404.151	15.75
404.514	15.64
404.878	15.63
405.241	15.74
405.604	15.9
405.968	15.65
406.331	15.52
406.694	15.61
407.057	15.93
407.42	15.99
407.783	15.57
408.146	15.84
408.509	16.11
408.872	15.94
409.235	15.81
409.598	16.17
409.961	16.18
410.323	16.38
410.686	15.81
411.049	16.03
411.411	16.1
411.774	16.45
412.136	16.63
412.499	16.21
412.861	16.6
413.223	16.29
413.586	16.76
413.948	16.63
414.31	16.61
414.672	16.78
415.035	16.33
415.397	16.8
415.759	16.45
416.121	16.88
416.483	16.75
416.845	16.75
417.206	16.69
417.568	16.69
417.93	16.74
418.292	17.04
418.653	17.1
419.015	17
419.377	16.84
419.738	17.04
420.1	17
420.461	16.96
420.822	16.88
421.184	17.17
421.545	16.93
421.906	17.1
422.267	17.08
422.629	17.03
422.99	17.1
423.351	17.12
423.712	17.27
424.073	17.26
424.434	17.31
424.795	17.31
425.155	17.21
425.516	17.5
425.877	17.55
426.238	17.61
426.598	17.49
426.959	17.44
427.32	17.59
427.68	17.85
428.041	17.6
428.401	17.93
428.761	18
429.122	18.05
429.482	17.95
429.842	18.42
430.202	18.11
430.563	18.53
430.923	18.11
431.283	18.33
431.643	18.21
432.003	18.43
432.363	18.37
432.722	18.52
433.082	18.63
433.442	18.37
433.802	18.25
434.161	18.64
434.521	18.73
434.881	18.6
435.24	18.46
435.6	18.58
435.959	18.59
436.319	18.6
436.678	18.77
437.037	18.81
437.396	18.95
437.756	19.07
438.115	19.14
438.474	19.2
438.833	19.09
439.192	19.09
439.551	19.46
439.91	19.21
440.269	19.34
440.628	19.17
440.987	19.22
441.345	19.27
441.704	19.2
442.063	19.3
442.421	19.32
442.78	19.32
443.138	19.34
443.497	19.51
443.855	19.5
444.214	19.63
444.572	19.72
444.93	19.77
445.288	19.74
445.647	19.99
446.005	19.96
446.363	19.87
446.721	20.02
447.079	19.7
447.437	19.67
447.795	19.92
448.153	19.8
448.51	19.77
448.868	20
449.226	19.9
449.584	19.97
449.941	20.24
450.299	20.13
450.656	20.24
451.014	20.24
451.371	20.35
451.729	20.59
452.086	20.76
452.443	20.73
452.801	20.68
453.158	20.79
453.515	20.79
453.872	20.84
454.229	20.69
454.586	20.65
454.943	20.84
455.3	20.8
455.657	20.97
456.014	20.98
456.371	21.25
456.727	21.12
457.084	21.2
457.441	21.05
457.797	21.41
458.154	21.57
458.51	21.59
458.867	21.54
459.223	21.4
459.58	21.54
459.936	21.57
460.292	21.53
460.648	21.59
461.005	21.51
461.361	21.53
461.717	21.3
462.073	21.25
462.429	21.35
462.785	21.73
463.141	21.72
463.496	21.74
463.852	22
464.208	21.81
464.564	22.2
464.919	22.22
465.275	22.03
465.631	22.3
465.986	22.08
466.342	22.35
466.697	22.22
467.052	22.23
467.408	22.59
467.763	22.63
468.118	22.5
468.473	22.58
468.829	22.8
469.184	22.48
469.539	22.69
469.894	22.76
470.249	22.93
470.603	22.97
470.958	22.79
471.313	23.1
471.668	23.26
472.023	23
472.377	22.99
472.732	23.32
473.086	23.07
473.441	22.95
473.795	23.57
474.15	23.15
474.504	23.41
474.859	23.33
475.213	23.37
475.567	23.34
475.921	23.5
476.275	23.42
476.63	23.81
476.984	23.79
477.338	23.8
477.692	23.47
478.045	23.64
478.399	23.62
478.753	23.86
479.107	23.8
479.461	23.89
479.814	23.85
480.168	23.78
480.521	23.99
480.875	23.91
481.228	24.02
481.582	24.22
481.935	24.17
482.289	24.27
482.642	24.2
482.995	24.04
483.348	24.29
483.701	24.11
484.055	24.09
484.408	24.09
484.761	23.78
485.114	23.56
485.466	23.23
485.819	23.25
486.172	23.36
486.525	23.42
486.878	23.69
487.23	23.7
487.583	24.01
487.936	24.28
488.288	24.28
488.641	24.07
488.993	23.97
489.345	23.85
489.698	23.91
490.05	23.98
490.402	24.14
490.754	24.26
491.107	24.45
491.459	24.73
491.811	24.86
492.163	24.98
492.515	25.01
492.866	24.92
493.218	24.8
493.57	24.5
493.922	24.59
494.274	24.78
494.625	25.16
494.977	25.33
495.328	25.54
495.68	25.77
496.031	25.87
496.383	25.81
496.734	26.18
497.086	26.17
497.437	25.91
497.788	26.08
498.139	25.98
498.49	25.98
498.842	25.88
499.193	25.98
499.544	26.13
499.894	25.97
500.245	26.2
500.596	26.17
500.947	26.22
501.298	26.4
501.648	26.5
501.999	26.64
502.35	26.82
502.7	26.69
503.051	26.76
503.401	26.86
503.752	27
504.102	27.09
504.452	27.03
504.803	26.91
505.153	27.14
505.503	27.31
505.853	27.24
506.203	27.21
506.553	27.27
506.903	27.18
507.253	27.41
507.603	27.5
507.953	27.5
508.303	27.7
508.652	27.54
509.002	27.61
509.352	27.71
509.701	27.64
510.051	27.67
510.4	27.72
510.75	27.74
511.099	27.84
511.449	27.53
511.798	27.86
512.147	27.85
512.496	27.66
512.846	27.86
513.195	27.84
513.544	28.01
513.893	28.14
514.242	27.9
514.591	28.23
514.939	28.22
515.288	28.08
515.637	28.4
515.986	28.47
516.334	28.41
516.683	28.51
517.032	28.77
517.38	28.6
517.729	28.78
518.077	28.55
518.426	28.8
518.774	28.85
519.122	28.68
519.47	28.67
519.819	28.66
520.167	28.6
520.515	28.57
520.863	28.56
521.211	28.7
521.559	28.8
521.907	29
522.255	29.02
522.602	29.12
522.95	29.43
523.298	29.55
523.645	29.46
523.993	29.43
524.341	29.58
524.688	29.77
525.036	29.59
525.383	29.8
525.73	30.01
526.078	29.53
526.425	29.54
526.772	29.81
527.119	29.75
527.466	29.27
527.814	29.47
528.161	29.58
528.508	29.68
528.854	29.75
529.201	29.45
529.548	29.62
529.895	29.34
530.242	29.09
530.588	29.01
530.935	29.09
531.282	29.18
531.628	29.48
531.975	29.68
532.321	29.75
532.667	29.97
533.014	30.21
533.36	30.49
533.706	30.5
534.052	30.26
534.399	30.35
534.745	30.27
535.091	30.1
535.437	30.04
535.783	30.15
536.129	30.44
536.474	30.48
536.82	30.82
537.166	30.88
537.512	31.07
537.857	31.02
538.203	30.96
538.549	30.93
538.894	30.87
539.239	31.22
539.585	31.28
539.93	31.35
540.276	31.59
540.621	31.65
540.966	31.83
541.311	31.81
541.656	31.76
542.001	31.7
542.346	31.82
542.691	31.44
543.036	31.13
543.381	30.95
543.726	31.17
544.071	31.33
544.415	31.51
544.76	31.57
545.105	31.77
545.449	31.87
545.794	32.04
546.138	32.16
546.483	32.21
546.827	32.33
547.171	32.39
547.516	32.49
547.86	32.4
548.204	32.56
548.548	32.32
548.892	32.55
549.236	32.72
549.58	32.82
549.924	32.93
550.268	33.01
550.612	33.02
550.956	33.3
551.3	33.34
551.643	33.41
551.987	33.72
552.33	33.33
552.674	33.94
553.017	33.67
553.361	33.58
553.704	33.86
554.048	33.68
554.391	33.91
554.734	33.76
555.077	33.81
555.42	33.61
555.764	33.87
556.107	33.88
556.45	33.91
556.793	33.98
557.135	34.19
557.478	34.31
557.821	34.72
558.164	34.22
558.507	34.79
558.849	34.26
559.192	34.61
559.534	34.65
559.877	35.06
560.219	34.94
560.562	35
560.904	34.74
561.246	35.21
561.589	35.08
561.931	35.27
562.273	35.08
562.615	35.12
562.957	35.13
563.299	35.13
563.641	35.32
563.983	35.58
564.325	35.09
564.667	35.3
565.008	35.44
565.35	35.41
565.692	35.35
566.033	35.66
566.375	35.93
566.716	35.86
567.058	35.71
567.399	35.48
567.741	35.66
568.082	35.56
568.423	35.47
568.764	35.6
569.105	35.62
569.447	35.93
569.788	35.78
570.129	35.95
570.47	36.14
570.811	36.33
571.151	36.29
571.492	36.27
571.833	36.39
572.174	36.36
572.514	36.26
572.855	36.52
573.195	36.35
573.536	36.47
573.876	36.37
574.217	36.28
574.557	36.5
574.898	36.65
575.238	36.52
575.578	36.76
575.918	36.69
576.258	36.87
576.598	37.04
576.938	36.76
577.278	37.06
577.618	36.72
577.958	37.22
578.298	37.15
578.638	36.89
578.977	37.28
579.317	37.36
579.657	37.49
579.996	37.67
580.336	37.6
580.675	37.69
581.014	37.83
581.354	37.71
581.693	38.09
582.032	37.66
582.372	38.09
582.711	37.95
583.05	37.55
583.389	37.77
583.728	38.37
584.067	38.19
584.406	38.3
584.745	38.46
585.083	38.45
585.422	38.4
585.761	38.58
586.1	38.79
586.438	38.84
586.777	38.79
587.115	38.79
587.454	38.74
587.792	39.03
588.13	38.81
588.469	38.62
588.807	39.06
589.145	39.13
589.483	38.64
589.821	39.13
590.159	39.08
590.497	39.08
590.835	39.64
591.173	39.15
591.511	39.45
591.849	39.34
592.187	39.4
592.524	39.31
592.862	39.65
593.2	39.61
593.537	39.61
593.875	39.63
594.212	39.55
594.55	39.66
594.887	39.94
595.224	39.67
595.561	39.61
595.899	39.71
596.236	39.75
596.573	39.91
596.91	40.03
597.247	39.62
597.584	40.11
597.921	39.96
598.258	40.2
598.594	40.06
598.931	39.85
599.268	40.15
599.604	39.7
599.941	40.28
600.277	40.2
600.614	40.14
600.95	40.3
601.287	40.52
601.623	40.29
601.959	40.55
602.296	40.78
602.632	41.16
602.968	40.86
603.304	41.25
603.64	40.81
603.976	41.15
604.312	40.73
604.648	40.76
604.984	40.66
605.319	40.9
605.655	41.13
605.991	41.13
606.326	40.79
606.662	40.9
606.998	40.86
607.333	40.98
607.668	41.29
608.004	41.16
608.339	41.42
608.674	41.17
609.01	41.37
609.345	41.32
609.68	41.9
610.015	41.43
610.35	41.94
610.685	41.7
611.02	41.57
611.355	41.83
611.689	41.8
612.024	41.82
612.359	41.59
612.694	41.59
613.028	41.96
613.363	42.19
613.697	42.07
614.032	42.45
614.366	42.35
614.7	42.43
615.035	42.08
615.369	42.5
615.703	42.58
616.037	42.65
616.371	42.65
616.705	42.27
617.039	42.72
617.373	42.57
617.707	42.66
618.041	42.84
618.375	43.04
618.709	42.86
619.042	42.6
619.376	43.05
619.71	43.5
620.043	43.23
620.377	43.26
620.71	42.94
621.043	43.22
621.377	43.38
621.71	43.8
622.043	43.43
622.376	43.65
622.709	43.34
623.043	43.14
623.376	43.77
623.709	43.67
624.041	44.09
624.374	43.62
624.707	43.71
625.04	43.71
625.373	43.66
625.705	43.43
626.038	43.8
626.37	43.81
626.703	43.7
627.035	44.35
627.368	44.56
627.7	43.76
628.032	43.92
628.365	43.94
628.697	44.28
629.029	44.08
629.361	44.34
629.693	44.22
630.025	44.11
630.357	43.94
630.689	44.5
631.021	44.48
631.353	44.85
631.684	44.13
632.016	45
632.348	45.19
632.679	44.7
633.011	45
633.342	44.87
633.674	45.11
634.005	44.9
634.336	45.19
634.668	45.76
634.999	45.04
635.33	45.44
635.661	45.29
635.992	45.28
636.323	45.78
636.654	45.01
636.985	45.45
637.316	45.53
637.647	45.29
637.977	45.28
638.308	45.55
638.639	45.82
638.969	45.41
639.3	45.52
639.63	45.2
639.961	45.47
640.291	45.56
640.622	46.68
640.952	45.89
641.282	46.18
641.612	46.72
641.943	45.8
642.273	45.63
642.603	46.68
642.933	46.26
643.263	46.25
643.592	46
643.922	45.99
644.252	46.23
644.582	46.57
644.911	46.66
645.241	46.31
645.571	46.77
645.9	45.89
646.23	46.59
646.559	46.4
646.888	46.42
647.218	46.36
647.547	46.97
647.876	47.04
648.205	47.42
648.534	47.14
648.863	47.04
649.192	47.32
649.521	46.51
649.85	46.9
650.179	46.87
650.508	46.75
650.837	47.28
651.165	46.95
651.494	46.81
651.822	46.75
652.151	47.15
652.479	47.75
652.808	46.45
653.136	47.52
653.465	46.75
653.793	47.31
654.121	46.97
654.449	47.39
654.777	47.55
655.105	47.49
655.433	47.44
655.761	48.17
656.089	47.01
656.417	47.98
656.745	48.01
657.073	47.91
657.4	48.1
657.728	47.79
658.056	48.13
658.383	48.4
658.711	48.93
659.038	48.49
659.365	48.82
659.693	48.19
660.02	48.27
660.347	48.23
660.674	47.83
661.001	48.17
661.329	47.99
661.656	48.59
661.982	48.76
662.309	48.06
662.636	48.26
662.963	48.42
663.29	48.45
663.616	48.87
663.943	48.09
664.27	48.72
664.596	49.07
664.923	48.83
665.249	48.37
665.576	48.87
665.902	49.61
666.228	49.25
666.554	49.55
666.881	49.24
667.207	49.55
667.533	49.67
667.859	49.53
668.185	49.09
668.511	48.54
668.837	48.28
669.162	49.63
669.488	49.15
669.814	49.7
670.139	49.22
670.465	49.77
670.791	49.79
671.116	48.9
671.442	49.73
671.767	49.78
672.092	49.64
672.418	50.08
672.743	50.68
673.068	49.54
673.393	50.27
673.718	49.48
674.043	50.31
674.368	50.26
674.693	50.23
675.018	50.32
675.343	49.9
675.667	50.35
675.992	50.94
676.317	49.33
676.641	49.68
676.966	49.86
677.29	50.21
677.615	51.04
677.939	51.5
678.264	51.21
678.588	50.32
678.912	51.35
679.236	51
679.56	49.91
679.885	50.54
680.209	50.68
680.532	50.57
680.856	51.5
681.18	50.91
681.504	51.2
681.828	51.02
682.152	50.6
682.475	50.92
682.799	50.57
683.122	51.19
683.446	50.98
683.769	51.16
684.093	51.61
684.416	51.21
684.739	51.14
685.062	51.03
685.386	51.83
685.709	50.72
686.032	51.46
686.355	51.95
686.678	50.94
687.001	51.77
687.324	52.06
687.646	50.95
687.969	51.65
688.292	51.14
688.614	51.92
688.937	51.32
689.26	52.46
689.582	52.75
689.904	51.47
690.227	53.11
690.549	52.78
690.871	52.1
691.194	52.15
691.516	52.28
691.838	52.64
692.16	52.65
692.482	52.64
692.804	52.5
693.126	51.87
693.448	51.68
693.769	53.03
694.091	52.19
694.413	52.36
694.735	51.99
695.056	52.01
695.378	52.35
695.699	52.98
696.021	51.87
696.342	52.06
696.663	52.32
696.984	52.9
697.306	52.55
697.627	52.76
697.948	52.19
698.269	52.37
698.59	53.43
698.911	52.64
699.232	52.32
699.553	53.36
699.873	52.43
700.194	52.18
700.515	52.97
700.835	52.72
701.156	52.95
701.477	52.71
701.797	52.75
702.117	53.88
702.438	53.19
702.758	53.21
703.078	53.11
703.398	53.13
703.719	53.76
704.039	52.1
704.359	52.91
704.679	53.45
704.999	53.27
705.319	54.33
705.638	53.39
705.958	54.8
706.278	53.7
706.597	54.02
706.917	51.99
707.237	53.48
707.556	54.06
707.876	54.03
708.195	54.82
708.514	53.5
708.834	53.1
709.153	53.97
709.472	53.94
709.791	53.97
710.11	53.62
710.429	53.01
710.748	54.69
711.067	54.77
711.386	54.83
711.705	53.96
712.023	54.11
712.342	55.02
712.661	53.12
712.979	54.16
713.298	54.81
713.616	53.96
713.935	54.56
714.253	54.98
714.572	54.18
714.89	54.22
715.208	55.26
715.526	54.21
715.844	54.91
716.162	53.5
716.48	54.97
716.798	54.99
717.116	54.65
717.434	54.58
717.752	53.76
718.069	55.33
718.387	55
718.705	54.6
719.022	54.07
719.34	56.22
719.657	54.55
719.975	55.9
720.292	55.31
720.609	56.59
720.927	53.34
721.244	56.57
721.561	56.06
721.878	55.69
722.195	55.5
722.512	55.91
722.829	56.93
723.146	55.66
723.463	54.51
723.779	53.88
724.096	55.31
724.413	56.3
724.729	54.86
725.046	56.02
725.362	55.2
725.679	55.3
725.995	55.3
726.311	56.67
726.628	57.03
726.944	55.58
727.26	56.73
727.576	53.53
727.892	56.59
728.208	55.39
728.524	54.08
728.84	55.19
729.156	57.69
729.472	54.9
729.787	55.35
730.103	55.62
730.419	56.4
730.734	55.22
731.05	55.39
731.365	55.22
731.681	55.36
731.996	56.3
732.311	55.82
732.626	56.02
732.942	56.47
733.257	55.18
733.572	56.65
733.887	56.55
734.202	56.43
734.517	56.13
734.832	56.88
735.146	58.23
735.461	56.13
735.776	57.21
736.091	57.74
736.405	57.66
736.72	55.98
737.034	57.64
737.349	57.03
737.663	56.87
737.977	55.51
738.292	55.52
738.606	56.39
738.92	56.73
739.234	57.47
739.548	57.67
739.862	56.28
740.176	55.27
740.49	57.22
740.804	58.48
741.117	57.9
741.431	57.75
741.745	58.07
742.058	57.02
742.372	56.43
742.685	58.75
742.999	56.42
743.312	56.86
743.626	55.99
743.939	56.14
744.252	57.45
744.565	56.45
744.878	59.38
745.191	56.16
745.505	56.03
745.817	57.52
746.13	58.4
746.443	56.35
746.756	56.85
747.069	56.78
747.381	57.68
747.694	58.08
748.007	59.03
748.319	58.61
748.632	57.68
748.944	55.47
749.256	59.01
749.569	56.57
749.881	56.53
750.193	56.93
750.505	56.42
750.817	59.68
751.129	57.62
751.441	59.42
751.753	56.4
752.065	57.12
752.377	57.9
752.689	57.86
753	56.95
753.312	59.6
753.624	58.81
753.935	55.59
754.247	59.36
754.558	59.26
754.869	58.85
755.181	58.26
755.492	57.98
755.803	59.44
756.114	59.14
756.425	60.07
756.736	57.22
757.047	58.63
757.358	59.72
757.669	60.03
757.98	58.1
758.291	58.2
758.601	59.95
758.912	59.6
759.223	57.7
759.533	58.87
759.844	58.47
760.154	57.58
760.464	59.97
760.775	57.24
761.085	59.03
761.395	59.25
761.705	59.97
762.016	60.43
762.326	60.23
762.636	61.47
762.945	60.3
763.255	60.85
763.565	59.48
763.875	58.33
764.185	56.88
764.494	57.55
764.804	58.61
765.113	59.61
765.423	59.19
765.732	60.73
766.042	60.54
766.351	59.94
766.66	59.86
766.97	62.21
767.279	59.83
767.588	59.99
767.897	59.59
768.206	60.16
768.515	57.66
768.824	58.62
769.133	59.34
769.441	59.79
769.75	57.73
770.059	59.05
770.367	57.97
770.676	60.58
770.984	61.47
771.293	60.27
771.601	61.66
771.91	58.75
772.218	59.82
772.526	62.38
772.834	61.17
773.142	59.39
773.45	59.24
773.758	55.39
774.066	58.81
774.374	59.22
774.682	55.73
774.99	58.34
775.298	58.97
775.605	58.09
775.913	57.84
776.22	58.6
776.528	60.51
776.835	61.23
777.143	58.79
777.45	62.23
777.757	61.31
778.065	61.92
778.372	62.26
778.679	57
778.986	59.28
779.293	58.6
779.6	61.73
779.907	59.87
780.214	66.12
780.52	61.71
780.827	57.92
781.134	59.29
781.44	59.32
781.747	57.96
782.053	58.67
782.36	56.51
782.666	60.15
782.973	61.18
783.279	57.26
783.585	57.67
783.891	60.56
784.197	62.26
784.503	58.67
784.809	61.98
785.115	62.81
785.421	58.43
785.727	60.82
786.033	58.15
786.339	56.23
786.644	63.59
786.95	57.24
787.255	61.46
787.561	61.41
787.866	60.41
788.172	61.03
788.477	59.57
788.782	60.66
789.088	60.04
789.393	58.12
789.698	59.38
790.003	58.91
790.308	61.15
790.613	61.31
790.918	63.36
791.223	64.07
791.527	57.56
791.832	61.75
792.137	54.45
792.441	59.6
792.746	59.35
793.05	66.1
793.355	60.43
793.659	63.17
793.963	60.74
794.268	62.9
794.572	59.7
794.876	62.6
795.18	60.56
795.484	61.94
795.788	60.8
796.092	59.37
796.396	54.93
796.7	63.96
797.004	56.64
797.307	67.28
797.611	63.47
797.915	60.63
798.218	56.98
798.522	63.36
798.825	61.19
799.128	60.31
799.432	59.21
799.735	60.88
800.038	65.05
800.341	58.14
800.644	60.29
800.947	62.08
801.25	58.51
801.553	60.47
801.856	62.44
802.159	61.62
802.462	60.19
802.764	58.72
803.067	64.91
803.37	61.2
803.672	57.83
803.975	60.24
804.277	62.61
804.579	59.51
804.882	62.76
805.184	56.04
805.486	57.55
805.788	63.76
806.09	56.41
806.392	57.34
806.694	58.14
806.996	61.9
807.298	63.45
807.6	69.75
807.902	67.23
808.203	56.81
808.505	59.23
808.807	57.64
809.108	56.78
809.409	65.14
809.711	62.45
810.012	64.28
810.313	61.25
810.615	64
810.916	64.02
811.217	64.92
811.518	66.9
811.819	64.37
812.12	62.9
812.421	62.29
812.722	64.66
813.023	59.99
813.323	62.71
813.624	62.34
813.925	66.42
814.225	59.26
814.526	67.46
814.826	59.5
815.126	55.01
815.427	58.76
815.727	57.8
816.027	66.29
816.327	65.92
816.627	60.84
816.927	64.08
817.227	60.24
817.527	67.08
817.827	66.06
818.127	65.96
818.427	72.16
818.727	56.16
819.026	70.31
819.326	56.29
819.625	59.37
819.925	65.04
820.224	66.98
820.524	61.22
820.823	66.38
821.122	64.03
821.421	55.79
821.72	58.6
822.019	64.03
822.318	63.3
822.617	59.19
822.916	64.42
823.215	65.36
823.514	67.71
823.813	61.01
824.111	64.43
824.41	66.69
824.709	63.2
825.007	64.83
825.306	63.76
825.604	64.96
825.902	64.97
826.201	62.79
826.499	62.6
826.797	63.21
827.095	62.83
827.393	63.5
827.691	61.91
827.989	58.34
828.287	62.94
828.585	60.12
828.882	63.22
829.18	63.17
829.478	66.06
829.775	64.6
830.073	65.97
830.37	64.66
830.668	62.51
830.965	61.77
831.263	62.86
831.56	65.47
831.857	65.03
832.154	62.99
832.451	61.1
832.748	60.54
833.045	62.81
833.342	68.03
833.639	64.52
833.936	63.91
834.232	63.52
834.529	56.68
834.826	60
835.122	60.7
835.419	58.96
835.715	57.17
836.012	59.7
836.308	60.74
836.604	56.25
836.901	61.11
837.197	63.63
837.493	63.07
837.789	61.99
838.085	61.03
838.381	61.6
838.677	63.12
838.972	60.87
839.268	65.66
839.564	63.33
839.86	65.79
840.155	67.7
840.451	54.6
840.746	61.25
841.042	57.4
841.337	60.47
841.632	61.08
841.928	69.86
842.223	58.68
842.518	68.31
842.813	64.65
843.108	63.21
843.403	61.03
843.698	60.32
843.993	76.58
844.287	61.9
844.582	54.32
844.877	65.62
845.171	59.83
845.466	52.02
845.761	65.94
846.055	64.62
846.349	54.23
846.644	59.43
846.938	58.47
847.232	48.3
847.526	88.85
847.82	74.05
848.114	57.29
848.408	51.71
848.702	66.84
848.996	64.86
849.29	64.64
849.584	73.44
849.877	35.45
850.171	73.17
850.465	63.58
850.758	43.33
851.052	65.93
851.345	60.46
851.638	57.52
851.932	46.57
852.225	50.92
852.518	30.42
852.811	33.93
853.104	49.52
853.397	49.42
853.69	47.33
853.983	66.12
854.276	65.79
854.569	66.57
854.861	46.6
855.154	57.52
855.447	40.45
855.739	75.41
856.032	42.23
856.324	77.15
856.616	74.57
856.909	55.14
857.201	67.52
857.493	77.33
857.785	47.06
858.077	65.97
858.369	41.38
858.661	64.01
858.953	58.07
859.245	18.87
859.537	46.75
859.829	70.32
860.12	82.29
860.412	61.6
860.703	66.75
860.995	48.14
861.286	42.79
861.578	62.34
861.869	86.42
862.16	60.2
862.452	52.78
862.743	95.62
863.034	46.97
863.325	28.09
863.616	72.21
863.907	62.81
864.198	48.66
864.488	66.82
864.779	56.39
865.07	56.23
865.36	105.05
865.651	84.45
865.941	81.28
866.232	80.02
866.522	37.32
866.813	59.1
867.103	58.79
867.393	39.92
867.683	87.36
867.973	48.28
868.263	47.57
868.553	99.99
868.843	68.99
869.133	61.27
869.423	79.74
869.713	64.95
870.002	51.74
870.292	73.55
870.582	68.31
870.871	58.93
871.161	62.65
871.45	75.18
871.739	79.44
872.029	23.82
872.318	45.16
872.607	69.03
872.896	59.02
873.185	41.43
873.474	95.78
873.763	60.66
874.052	92.43
874.341	90.45
874.63	45.1
874.918	63.6
875.207	65.38
875.496	105.46
875.784	256.41
876.073	64.41
876.361	-16.99
876.649	45.17
876.938	47.36
877.226	50.05
877.514	102.49
877.802	74.09
878.09	60.87
878.378	85.51
878.666	50.13
878.954	69.63
879.242	67.74
879.53	66.38
879.817	92.09
880.105	41.71
880.392	68.1
880.68	19.09
880.967	72.76
881.255	76.13
881.542	42.89
881.83	47.45
882.117	61.47
882.404	22.57
882.691	45.28
882.978	76.64
883.265	72.81
883.552	68.69
883.839	70.25
884.126	44.88
884.413	78.29
884.699	61.82
884.986	68.57
885.273	64.02
885.559	64.02
885.846	64.02
