Data from 0391_forehead_Reflection__0__195.txt Node

Date: Fri Dec 15 18:15:01 CST 2023
User: ToomeyLab
Spectrometer: FLMS14357
Trigger mode: 0
Integration Time (sec): 1.000000E-2
Scans to average: 100
Electric dark correction enabled: true
Nonlinearity correction enabled: false
Boxcar width: 0
XAxis mode: Wavelengths
Number of Pixels in Spectrum: 2048
>>>>>Begin Spectral Data<<<<<
189.047	-350.42
189.435	-350.42
189.823	-350.42
190.211	126.23
190.599	2332.19
190.987	106.6
191.375	22.18
191.763	-12.46
192.151	25.52
192.538	72.73
192.926	55.27
193.314	9.79
193.702	37.25
194.089	187.72
194.477	304.28
194.864	-354.2
195.252	95.9
195.639	48.69
196.027	84.3
196.414	285.26
196.801	328.75
197.189	61.56
197.576	56.91
197.963	31.52
198.351	-39.37
198.738	-39.33
199.125	34.14
199.512	-10.52
199.899	25.59
200.286	23.84
200.673	10.25
201.06	18.66
201.447	-37.49
201.833	1.71
202.22	99.01
202.607	87.14
202.994	-12.42
203.38	27.68
203.767	31.64
204.154	14.94
204.54	63.34
204.927	7.54
205.313	17.68
205.699	24.09
206.086	64.67
206.472	39.68
206.858	10.62
207.245	6.91
207.631	42.07
208.017	34.32
208.403	7.97
208.789	47.64
209.175	20.37
209.561	-4.39
209.947	-8.35
210.333	-14.23
210.719	50.92
211.105	46.81
211.491	-15.36
211.876	9.58
212.262	77.88
212.648	3.9
213.034	22.29
213.419	6.76
213.805	3.58
214.19	-18.37
214.576	48.96
214.961	-38.01
215.346	-15.4
215.732	-4.27
216.117	39.33
216.502	-13.54
216.888	24.03
217.273	37.97
217.658	34.46
218.043	20.05
218.428	-33.31
218.813	-12.68
219.198	-13.79
219.583	8.71
219.968	3.79
220.353	-22.15
220.738	38.96
221.122	-7.91
221.507	-19.38
221.892	-20.02
222.276	-10.46
222.661	5.16
223.046	15.53
223.43	22.09
223.815	17.14
224.199	-7.77
224.583	14.53
224.968	6.9
225.352	14.88
225.736	2.14
226.121	-3.58
226.505	10.28
226.889	17
227.273	8.02
227.657	14.76
228.041	9.39
228.425	5.74
228.809	5.3
229.193	7.82
229.577	5.57
229.961	5.68
230.344	5.1
230.728	4.47
231.112	5.82
231.495	4.47
231.879	6.12
232.263	5.68
232.646	7.83
233.03	4.75
233.413	4
233.797	5.31
234.18	5.53
234.563	7.71
234.946	4.95
235.33	8.44
235.713	8.15
236.096	5.16
236.479	6.06
236.862	4.18
237.245	8.48
237.628	5.35
238.011	5.72
238.394	7.1
238.777	4.89
239.16	4.95
239.543	6.68
239.925	5.6
240.308	7.3
240.691	6.47
241.073	7.11
241.456	4.96
241.838	4.37
242.221	6.34
242.603	6.97
242.986	6.95
243.368	6.22
243.75	5.83
244.133	5.98
244.515	6.24
244.897	6.58
245.279	6.13
245.661	5.8
246.043	5.48
246.425	6.63
246.807	7.24
247.189	6.4
247.571	6.18
247.953	6.62
248.335	5.75
248.717	6.13
249.098	5.88
249.48	6.2
249.862	6.1
250.243	6.06
250.625	6.14
251.006	6.5
251.388	6.23
251.769	6.72
252.151	6.23
252.532	6.51
252.913	6.75
253.295	5.92
253.676	6.19
254.057	6.58
254.438	6.18
254.819	5.52
255.2	5.91
255.581	6.47
255.962	5.15
256.343	6.53
256.724	6.25
257.105	6.15
257.486	5.4
257.867	6.11
258.247	6.57
258.628	5.81
259.009	6.59
259.389	6.15
259.77	5.67
260.15	6.04
260.531	5.68
260.911	6.53
261.292	6.26
261.672	5.98
262.052	5.84
262.432	6.03
262.813	6.37
263.193	5.98
263.573	6.65
263.953	6.23
264.333	6.5
264.713	6.51
265.093	5.4
265.473	6.33
265.853	5.99
266.233	6.86
266.612	5.32
266.992	5.7
267.372	6.9
267.752	5.56
268.131	5.73
268.511	6.5
268.89	6.3
269.27	5.76
269.649	5.37
270.029	5.44
270.408	6.51
270.787	5.88
271.167	5.81
271.546	6.75
271.925	5.76
272.304	5.74
272.683	6.04
273.062	5.41
273.441	5.97
273.82	5.29
274.199	6.03
274.578	6.22
274.957	5.96
275.336	5.78
275.715	5.59
276.093	5.66
276.472	6.26
276.851	5.87
277.229	5.63
277.608	5.59
277.986	6.19
278.365	6.1
278.743	5.64
279.122	6
279.5	5.92
279.878	6.21
280.257	5.11
280.635	5.19
281.013	5.8
281.391	5.79
281.769	6.19
282.147	6.42
282.525	5.78
282.903	5.81
283.281	6.15
283.659	5.89
284.037	6.22
284.415	5.87
284.792	6.1
285.17	5.7
285.548	5.54
285.925	5.78
286.303	5.99
286.68	5.48
287.058	6.09
287.435	6.23
287.813	5.79
288.19	5.74
288.567	6.01
288.945	6.8
289.322	6.34
289.699	6.43
290.076	6.08
290.453	6.33
290.83	6.07
291.207	6.25
291.584	6.4
291.961	6.69
292.338	6.64
292.715	6.54
293.092	6.32
293.469	6.43
293.845	7.36
294.222	6.38
294.599	7.23
294.975	6.36
295.352	7.08
295.728	6.65
296.105	6.83
296.481	7.03
296.858	6.88
297.234	7.02
297.61	7.04
297.986	7.42
298.363	6.89
298.739	7.51
299.115	6.9
299.491	7.03
299.867	6.83
300.243	7.29
300.619	7.04
300.995	7.08
301.371	7.63
301.746	7.79
302.122	8.29
302.498	7.82
302.874	7.9
303.249	7.75
303.625	8.12
304	8.28
304.376	7.76
304.751	7.48
305.127	8.88
305.502	7.07
305.878	8.16
306.253	8.42
306.628	9.2
307.003	8.34
307.378	8.63
307.754	8.06
308.129	7.75
308.504	8.96
308.879	8.94
309.254	9.49
309.629	9.6
310.003	8.98
310.378	9.07
310.753	8.9
311.128	8.92
311.502	9.13
311.877	9.51
312.252	8.7
312.626	8.81
313.001	8.86
313.375	9.56
313.75	9.2
314.124	9.17
314.498	8.73
314.873	9.53
315.247	8.64
315.621	9.82
315.995	8.95
316.369	9.99
316.743	9.73
317.117	9.74
317.491	9.63
317.865	10
318.239	9.27
318.613	9.66
318.987	9.55
319.361	9.15
319.734	10.01
320.108	10.41
320.482	10.79
320.855	9.96
321.229	9.71
321.602	9.65
321.976	10.72
322.349	10.12
322.723	9.92
323.096	11.31
323.469	10.02
323.843	10.36
324.216	11.73
324.589	10.7
324.962	10.55
325.335	10.44
325.708	10.48
326.081	11.05
326.454	10.96
326.827	10.63
327.2	10.87
327.573	10.9
327.945	10.83
328.318	10.54
328.691	10.21
329.063	11.24
329.436	10.59
329.809	11.11
330.181	11.33
330.553	11.03
330.926	11.83
331.298	11.44
331.671	10.87
332.043	12.21
332.415	11.96
332.787	11.34
333.159	11.76
333.532	12.03
333.904	11.72
334.276	11.28
334.648	11.5
335.02	11.71
335.391	11.67
335.763	11.61
336.135	11.77
336.507	11.99
336.879	11.86
337.25	11.51
337.622	11.78
337.993	11.45
338.365	12.45
338.736	12.02
339.108	11.77
339.479	11.92
339.851	12.07
340.222	12.55
340.593	12.19
340.964	12.36
341.336	13.15
341.707	12.31
342.078	12.75
342.449	12.57
342.82	12.04
343.191	12.31
343.562	12.34
343.933	12.78
344.303	12.78
344.674	12.36
345.045	12.81
345.416	13.23
345.786	12.18
346.157	12.62
346.527	12.01
346.898	12.27
347.268	12.67
347.639	12.7
348.009	12.56
348.38	12.29
348.75	13.1
349.12	12.61
349.49	13.24
349.861	12.75
350.231	12.46
350.601	13.2
350.971	12.98
351.341	13.3
351.711	13.23
352.081	12.79
352.45	12.98
352.82	13.28
353.19	13.07
353.56	13.29
353.929	13.92
354.299	13.1
354.669	12.89
355.038	13.93
355.408	13.37
355.777	13.39
356.147	13.25
356.516	13.7
356.885	13.72
357.254	13.2
357.624	13.66
357.993	14.03
358.362	13.5
358.731	13.39
359.1	13.46
359.469	14.05
359.838	13.6
360.207	13.44
360.576	13.5
360.945	14.27
361.314	14.3
361.682	13.61
362.051	13.74
362.42	14.23
362.788	13.92
363.157	14.19
363.525	14.05
363.894	13.88
364.262	14.06
364.631	14.07
364.999	13.95
365.367	13.98
365.735	14.84
366.104	14.3
366.472	14.67
366.84	14.27
367.208	14.28
367.576	14.5
367.944	14.9
368.312	14.49
368.68	14.29
369.048	14.43
369.416	14.59
369.783	14.23
370.151	14.8
370.519	15.56
370.886	14.74
371.254	14.8
371.621	15.5
371.989	14.92
372.356	14.51
372.724	14.97
373.091	14.59
373.458	14.83
373.826	14.77
374.193	15.04
374.56	15.26
374.927	15.53
375.294	15.26
375.661	15.22
376.028	15.18
376.395	15.64
376.762	15.58
377.129	15.21
377.496	14.95
377.863	15.44
378.229	15.17
378.596	15.29
378.963	15.24
379.329	15.14
379.696	15.71
380.062	15.62
380.429	15.37
380.795	15.56
381.161	16.09
381.528	15.71
381.894	16.12
382.26	15.87
382.626	16.31
382.993	15.52
383.359	15.96
383.725	15.8
384.091	15.8
384.457	16.11
384.823	15.75
385.188	16.35
385.554	15.98
385.92	16.28
386.286	16.26
386.651	16.3
387.017	16.43
387.383	16.26
387.748	15.99
388.114	16.29
388.479	16.62
388.845	16.65
389.21	16.48
389.575	16.53
389.94	16.42
390.306	16.44
390.671	16.75
391.036	16.47
391.401	16.5
391.766	16.82
392.131	16.62
392.496	16.64
392.861	16.61
393.226	16.99
393.591	16.75
393.956	16.67
394.32	16.85
394.685	16.84
395.05	16.84
395.414	16.7
395.779	16.78
396.143	17.1
396.508	16.98
396.872	17.09
397.236	17.38
397.601	16.99
397.965	17.18
398.329	17.18
398.694	17.29
399.058	17.18
399.422	17.15
399.786	17.39
400.15	17.43
400.514	17.39
400.878	17.58
401.242	17.79
401.605	17.46
401.969	17.81
402.333	17.75
402.697	17.69
403.06	17.63
403.424	17.74
403.787	17.85
404.151	17.97
404.514	17.72
404.878	17.9
405.241	17.97
405.604	17.89
405.968	17.72
406.331	18.09
406.694	17.85
407.057	17.91
407.42	18.11
407.783	17.85
408.146	18.04
408.509	18.06
408.872	17.92
409.235	18.14
409.598	18.23
409.961	18.3
410.323	18.55
410.686	18.18
411.049	18.29
411.411	18.29
411.774	18.53
412.136	18.45
412.499	18.33
412.861	18.69
413.223	18.65
413.586	18.62
413.948	18.72
414.31	18.39
414.672	18.59
415.035	18.93
415.397	18.95
415.759	18.42
416.121	19.02
416.483	19.03
416.845	18.89
417.206	19.05
417.568	18.93
417.93	18.79
418.292	18.99
418.653	18.78
419.015	19.22
419.377	19.05
419.738	19.15
420.1	18.95
420.461	19.23
420.822	19.07
421.184	19.22
421.545	19.06
421.906	19.02
422.267	19.01
422.629	19.2
422.99	19.08
423.351	18.94
423.712	19.25
424.073	19.27
424.434	19.31
424.795	19.22
425.155	19.42
425.516	19.31
425.877	19.45
426.238	19.33
426.598	19.47
426.959	19.64
427.32	19.35
427.68	19.62
428.041	19.95
428.401	19.81
428.761	19.84
429.122	19.95
429.482	19.77
429.842	20
430.202	19.95
430.563	20.28
430.923	20.05
431.283	20.28
431.643	20.44
432.003	20.23
432.363	20.3
432.722	20.28
433.082	20.34
433.442	20.43
433.802	20.45
434.161	20.37
434.521	20.61
434.881	20.71
435.24	20.43
435.6	20.68
435.959	20.52
436.319	20.65
436.678	20.67
437.037	20.62
437.396	20.92
437.756	20.97
438.115	20.6
438.474	21.04
438.833	20.93
439.192	20.89
439.551	20.97
439.91	21.04
440.269	21.06
440.628	21.2
440.987	21.09
441.345	21.07
441.704	21
442.063	20.94
442.421	21.16
442.78	21.15
443.138	21.14
443.497	21.17
443.855	21.12
444.214	21.29
444.572	21.48
444.93	21.33
445.288	21.42
445.647	21.59
446.005	21.53
446.363	21.71
446.721	21.64
447.079	21.55
447.437	21.6
447.795	21.58
448.153	21.49
448.51	21.46
448.868	21.53
449.226	21.65
449.584	21.69
449.941	21.77
450.299	21.68
450.656	21.86
451.014	21.89
451.371	21.73
451.729	22.03
452.086	22.33
452.443	22.08
452.801	22.52
453.158	22.3
453.515	22.32
453.872	22.48
454.229	22.36
454.586	22.43
454.943	22.45
455.3	22.61
455.657	22.43
456.014	22.45
456.371	22.57
456.727	22.69
457.084	22.64
457.441	22.83
457.797	22.8
458.154	22.76
458.51	22.83
458.867	23.2
459.223	23.24
459.58	22.94
459.936	23.12
460.292	22.88
460.648	23.03
461.005	22.96
461.361	23.17
461.717	22.93
462.073	23.01
462.429	22.82
462.785	23.11
463.141	23
463.496	23.23
463.852	23.34
464.208	23.24
464.564	23.58
464.919	23.5
465.275	23.7
465.631	23.74
465.986	23.96
466.342	23.88
466.697	23.61
467.052	23.79
467.408	23.96
467.763	23.86
468.118	23.8
468.473	23.8
468.829	24.08
469.184	24.14
469.539	24.19
469.894	23.94
470.249	24.27
470.603	24.4
470.958	24.41
471.313	24.29
471.668	24.3
472.023	24.38
472.377	24.58
472.732	24.3
473.086	24.4
473.441	24.31
473.795	24.95
474.15	24.49
474.504	24.7
474.859	24.7
475.213	24.73
475.567	24.51
475.921	24.77
476.275	24.81
476.63	24.96
476.984	25.07
477.338	25.11
477.692	24.68
478.045	24.91
478.399	25.02
478.753	25.28
479.107	25.38
479.461	25.03
479.814	24.98
480.168	25.18
480.521	25.12
480.875	25.26
481.228	25.11
481.582	25.48
481.935	25.31
482.289	25.41
482.642	25.49
482.995	25.31
483.348	25.28
483.701	25.31
484.055	25.26
484.408	25.48
484.761	25.35
485.114	25.12
485.466	24.82
485.819	24.84
486.172	24.69
486.525	24.77
486.878	24.77
487.23	25.08
487.583	25.22
487.936	25.38
488.288	25.52
488.641	25.37
488.993	25.27
489.345	25.28
489.698	25.35
490.05	25.4
490.402	25.43
490.754	25.44
491.107	25.58
491.459	25.85
491.811	25.94
492.163	26.18
492.515	26.11
492.866	26.26
493.218	26.09
493.57	25.89
493.922	25.91
494.274	26.11
494.625	26.19
494.977	26.26
495.328	26.56
495.68	26.89
496.031	26.89
496.383	26.79
496.734	27.1
497.086	27.14
497.437	27.12
497.788	27.27
498.139	27.31
498.49	27.32
498.842	27.22
499.193	27.21
499.544	27.43
499.894	27.26
500.245	27.41
500.596	27.44
500.947	27.47
501.298	27.48
501.648	27.62
501.999	27.64
502.35	27.91
502.7	27.74
503.051	27.78
503.401	27.86
503.752	27.97
504.102	27.92
504.452	27.97
504.803	28.21
505.153	28.19
505.503	28.01
505.853	28.19
506.203	28.19
506.553	28.14
506.903	28.2
507.253	28.43
507.603	28.26
507.953	28.55
508.303	28.71
508.652	28.35
509.002	28.76
509.352	28.6
509.701	28.68
510.051	28.76
510.4	28.65
510.75	28.55
511.099	28.72
511.449	28.76
511.798	28.83
512.147	28.99
512.496	28.89
512.846	28.92
513.195	29.18
513.544	28.81
513.893	29.1
514.242	29.01
514.591	29.13
514.939	29.32
515.288	29.28
515.637	29.43
515.986	29.47
516.334	29.55
516.683	29.49
517.032	29.59
517.38	29.58
517.729	29.69
518.077	29.65
518.426	29.61
518.774	29.9
519.122	29.68
519.47	29.93
519.819	29.78
520.167	29.72
520.515	29.7
520.863	29.68
521.211	29.89
521.559	29.91
521.907	30.02
522.255	30.05
522.602	30.21
522.95	30.38
523.298	30.53
523.645	30.44
523.993	30.44
524.341	30.55
524.688	30.75
525.036	30.74
525.383	30.72
525.73	30.75
526.078	31.05
526.425	30.72
526.772	30.73
527.119	30.71
527.466	30.62
527.814	30.63
528.161	30.76
528.508	30.79
528.854	30.84
529.201	30.85
529.548	30.92
529.895	30.56
530.242	30.58
530.588	30.54
530.935	30.44
531.282	30.5
531.628	30.6
531.975	30.6
532.321	30.86
532.667	31.07
533.014	31.27
533.36	31.41
533.706	31.46
534.052	31.56
534.399	31.54
534.745	31.37
535.091	31.51
535.437	31.47
535.783	31.51
536.129	31.53
536.474	31.77
536.82	31.64
537.166	32.08
537.512	32.3
537.857	32.24
538.203	32.35
538.549	32.22
538.894	32.2
539.239	32.21
539.585	32.23
539.93	32.46
540.276	32.76
540.621	32.9
540.966	32.75
541.311	32.79
541.656	33.03
542.001	33.08
542.346	33.12
542.691	32.78
543.036	32.67
543.381	32.5
543.726	32.53
544.071	32.69
544.415	32.64
544.76	32.75
545.105	32.79
545.449	33.1
545.794	33.32
546.138	33.49
546.483	33.42
546.827	33.59
547.171	33.76
547.516	33.95
547.86	33.76
548.204	33.98
548.548	33.77
548.892	33.94
549.236	33.82
549.58	33.9
549.924	34.01
550.268	34.21
550.612	34.33
550.956	34.41
551.3	34.59
551.643	34.74
551.987	34.77
552.33	34.53
552.674	34.93
553.017	35.13
553.361	35.03
553.704	35.19
554.048	34.98
554.391	34.93
554.734	35.06
555.077	35.26
555.42	34.88
555.764	35.15
556.107	35.12
556.45	34.98
556.793	35.47
557.135	35.46
557.478	35.65
557.821	35.77
558.164	36.11
558.507	35.62
558.849	35.95
559.192	35.73
559.534	35.81
559.877	36.22
560.219	36.15
560.562	36.26
560.904	36.35
561.246	36.35
561.589	36.33
561.931	36.43
562.273	36.31
562.615	36.48
562.957	36.54
563.299	36.57
563.641	36.73
563.983	36.63
564.325	36.67
564.667	36.59
565.008	36.79
565.35	36.99
565.692	36.83
566.033	36.78
566.375	37.01
566.716	37.12
567.058	36.94
567.399	37.01
567.741	37.19
568.082	37.05
568.423	37.32
568.764	37.08
569.105	37.15
569.447	37.52
569.788	37.39
570.129	37.66
570.47	37.65
570.811	37.7
571.151	37.83
571.492	38.06
571.833	37.84
572.174	37.96
572.514	38.09
572.855	37.98
573.195	38.31
573.536	38.05
573.876	37.94
574.217	37.97
574.557	38.08
574.898	38.55
575.238	38.23
575.578	38.23
575.918	38.32
576.258	38.7
576.598	38.61
576.938	38.63
577.278	38.59
577.618	38.74
577.958	38.82
578.298	38.87
578.638	38.78
578.977	38.96
579.317	39.35
579.657	39.04
579.996	39.54
580.336	39.1
580.675	39.4
581.014	39.32
581.354	39.45
581.693	39.88
582.032	39.43
582.372	39.78
582.711	39.63
583.05	39.69
583.389	40.04
583.728	40
584.067	40.07
584.406	40.11
584.745	40.13
585.083	40.46
585.422	40.34
585.761	40.54
586.1	40.55
586.438	40.38
586.777	40.7
587.115	40.94
587.454	40.54
587.792	40.49
588.13	41.17
588.469	40.61
588.807	40.62
589.145	40.98
589.483	40.84
589.821	40.95
590.159	40.98
590.497	41.14
590.835	41.24
591.173	41.24
591.511	41.38
591.849	41.18
592.187	41.22
592.524	41.43
592.862	41.33
593.2	41.65
593.537	41.59
593.875	41.49
594.212	41.7
594.55	41.91
594.887	41.65
595.224	41.6
595.561	41.73
595.899	42.05
596.236	41.98
596.573	41.9
596.91	42
597.247	41.92
597.584	42.12
597.921	42.28
598.258	42.54
598.594	42.13
598.931	41.99
599.268	42.41
599.604	41.92
599.941	42.45
600.277	42.24
600.614	42.08
600.95	42.66
601.287	42.49
601.623	42.93
601.959	42.56
602.296	42.94
602.632	42.73
602.968	43.28
603.304	43.44
603.64	42.94
603.976	42.83
604.312	42.9
604.648	43.52
604.984	43.43
605.319	43.48
605.655	43.65
605.991	43.37
606.326	43.31
606.662	43.57
606.998	43
607.333	43.48
607.668	43.42
608.004	43.62
608.339	43.47
608.674	43.77
609.01	43.7
609.345	43.85
609.68	44.58
610.015	44.27
610.35	44.53
610.685	44.17
611.02	44.68
611.355	44.73
611.689	44.31
612.024	44.19
612.359	44.11
612.694	44.37
613.028	44.39
613.363	44.7
613.697	44.56
614.032	44.38
614.366	44.4
614.7	44.91
615.035	45.22
615.369	44.74
615.703	44.94
616.037	44.73
616.371	44.85
616.705	45.12
617.039	44.98
617.373	45.23
617.707	45.16
618.041	45.08
618.375	45.63
618.709	45.59
619.042	45.36
619.376	45.85
619.71	45.81
620.043	45.29
620.377	45.87
620.71	45.85
621.043	46
621.377	45.84
621.71	46.08
622.043	46.01
622.376	45.6
622.709	45.85
623.043	45.89
623.376	46.21
623.709	46.4
624.041	46.57
624.374	46.26
624.707	46.37
625.04	46
625.373	46.44
625.705	46.63
626.038	46.51
626.37	46.92
626.703	46.5
627.035	47.15
627.368	47.12
627.7	46.99
628.032	46.71
628.365	47.23
628.697	47.06
629.029	47.45
629.361	47.14
629.693	47.77
630.025	47.05
630.357	47.29
630.689	47.25
631.021	47.35
631.353	47.27
631.684	47.29
632.016	47.42
632.348	47.88
632.679	47.65
633.011	48.01
633.342	47.82
633.674	47.66
634.005	48.16
634.336	48.11
634.668	48.42
634.999	47.97
635.33	48.03
635.661	48.55
635.992	47.84
636.323	48.05
636.654	47.96
636.985	47.93
637.316	48.34
637.647	48.09
637.977	48.65
638.308	48.7
638.639	48.41
638.969	48.61
639.3	48.06
639.63	48.37
639.961	48.63
640.291	48.89
640.622	48.61
640.952	48.99
641.282	49.09
641.612	49.5
641.943	49.16
642.273	49.17
642.603	48.96
642.933	49.54
643.263	49
643.592	49.04
643.922	48.91
644.252	49.43
644.582	49.59
644.911	49.13
645.241	49.41
645.571	49.7
645.9	49.86
646.23	49.54
646.559	50.57
646.888	49.27
647.218	49.33
647.547	49.58
647.876	50.79
648.205	49.55
648.534	50.26
648.863	49.98
649.192	50.25
649.521	50.12
649.85	49.93
650.179	50.71
650.508	50.13
650.837	50.4
651.165	50.07
651.494	50.8
651.822	50.6
652.151	50.98
652.479	50.75
652.808	50.54
653.136	50.73
653.465	50.82
653.793	50.8
654.121	51.15
654.449	50.9
654.777	51.21
655.105	51.04
655.433	50.78
655.761	51.28
656.089	51.06
656.417	51.32
656.745	51.11
657.073	50.88
657.4	51.64
657.728	51.31
658.056	51.21
658.383	51.05
658.711	51.81
659.038	51.54
659.365	51.91
659.693	51.46
660.02	51.46
660.347	51
660.674	51.59
661.001	51.91
661.329	51.77
661.656	52.39
661.982	51.91
662.309	51.63
662.636	51.45
662.963	51.65
663.29	52.4
663.616	52.58
663.943	51.61
664.27	51.74
664.596	52.54
664.923	52.43
665.249	51.64
665.576	52.19
665.902	52.91
666.228	52.95
666.554	53.05
666.881	52.41
667.207	52.99
667.533	53.21
667.859	52.2
668.185	52.91
668.511	53.23
668.837	52.22
669.162	52.95
669.488	52.23
669.814	53.05
670.139	52.86
670.465	53.3
670.791	53.55
671.116	53.92
671.442	52.77
671.767	53.08
672.092	53.18
672.418	53.15
672.743	52.97
673.068	53.41
673.393	53.07
673.718	53.74
674.043	54.04
674.368	53.81
674.693	54.13
675.018	54.35
675.343	54.19
675.667	53.24
675.992	53.63
676.317	53.87
676.641	54.81
676.966	53.86
677.29	53.84
677.615	54.62
677.939	54.41
678.264	53.79
678.588	54.46
678.912	54.47
679.236	55.37
679.56	54.22
679.885	53.85
680.209	54.56
680.532	54.27
680.856	55.21
681.18	54.28
681.504	54.4
681.828	55.14
682.152	54.91
682.475	54.98
682.799	55.67
683.122	55.31
683.446	54.66
683.769	54.53
684.093	54.76
684.416	54.71
684.739	54.76
685.062	54.76
685.386	55.43
685.709	54.8
686.032	55.17
686.355	55.79
686.678	54.81
687.001	54.95
687.324	55.79
687.646	55.46
687.969	54.51
688.292	54.52
688.614	55.38
688.937	56.33
689.26	56.21
689.582	56.49
689.904	55.02
690.227	54.99
690.549	55.73
690.871	56.41
691.194	55.23
691.516	55.54
691.838	56.22
692.16	56.62
692.482	55.89
692.804	56.18
693.126	55.89
693.448	55.09
693.769	56.49
694.091	56.16
694.413	56.38
694.735	54.95
695.056	56.09
695.378	56.31
695.699	56.46
696.021	56.24
696.342	56.01
696.663	56.15
696.984	57.31
697.306	56.61
697.627	56.49
697.948	57.08
698.269	56.67
698.59	56.8
698.911	56.79
699.232	57.83
699.553	57.86
699.873	57.05
700.194	58.38
700.515	57.53
700.835	57.17
701.156	57.65
701.477	57.33
701.797	57.22
702.117	57.66
702.438	56.99
702.758	57.72
703.078	58.05
703.398	57.52
703.719	57.92
704.039	56.91
704.359	57.7
704.679	57.95
704.999	57.6
705.319	58.11
705.638	57.7
705.958	58.76
706.278	58.76
706.597	57.94
706.917	58.28
707.237	57.74
707.556	58.81
707.876	57.06
708.195	57.6
708.514	57.92
708.834	57.93
709.153	58.99
709.472	58.45
709.791	57.87
710.11	59.02
710.429	58.82
710.748	59.23
711.067	58.12
711.386	58.66
711.705	59.05
712.023	58.65
712.342	58.74
712.661	57.56
712.979	58.95
713.298	59.5
713.616	60.08
713.935	58.43
714.253	58.53
714.572	59.72
714.89	58.37
715.208	59.81
715.526	60.32
715.844	59.53
716.162	59.32
716.48	58.98
716.798	59.28
717.116	59.47
717.434	58.97
717.752	58.78
718.069	60.25
718.387	60.44
718.705	59.55
719.022	58.79
719.34	59.76
719.657	58.24
719.975	61.16
720.292	58.45
720.609	60.41
720.927	58.77
721.244	60.05
721.561	59.85
721.878	59.74
722.195	59.89
722.512	60.66
722.829	60.1
723.146	60.56
723.463	59.72
723.779	58.17
724.096	60.73
724.413	59.87
724.729	60.86
725.046	60.63
725.362	60.81
725.679	59.8
725.995	60.29
726.311	60.21
726.628	59.61
726.944	61.55
727.26	61.31
727.576	60.58
727.892	61.6
728.208	60.8
728.524	59.94
728.84	61.32
729.156	60.97
729.472	60.71
729.787	59.88
730.103	60.7
730.419	58.98
730.734	60.1
731.05	61.78
731.365	60.59
731.681	60.95
731.996	61.07
732.311	59.9
732.626	60.68
732.942	61.62
733.257	61.6
733.572	59.48
733.887	61.51
734.202	61.95
734.517	62.42
734.832	62.05
735.146	60.98
735.461	61.31
735.776	62.61
736.091	61.32
736.405	60.63
736.72	62.61
737.034	61.27
737.349	60.46
737.663	61.26
737.977	62.69
738.292	59.68
738.606	59.97
738.92	63.3
739.234	62.18
739.548	62.04
739.862	61.08
740.176	61.19
740.49	65.11
740.804	62.89
741.117	61.61
741.431	63.19
741.745	62.21
742.058	62.43
742.372	61.99
742.685	62.56
742.999	61.98
743.312	63.9
743.626	59.31
743.939	62.33
744.252	60.49
744.565	61.04
744.878	64.55
745.191	61.7
745.505	61.01
745.817	59.85
746.13	61.12
746.443	62.32
746.756	63.28
747.069	62.05
747.381	62.09
747.694	63.31
748.007	61.56
748.319	63.14
748.632	61.43
748.944	62.08
749.256	64.59
749.569	62.17
749.881	61.95
750.193	63.58
750.505	62.93
750.817	65.05
751.129	62.82
751.441	63.48
751.753	63.2
752.065	62.65
752.377	64.56
752.689	63.22
753	63.83
753.312	62.48
753.624	62.37
753.935	63.82
754.247	63.5
754.558	62.11
754.869	63.08
755.181	63.39
755.492	62.63
755.803	64.52
756.114	65.84
756.425	61.99
756.736	62.71
757.047	64.91
757.358	64.55
757.669	64.14
757.98	62.61
758.291	62.19
758.601	64.02
758.912	63.48
759.223	63.68
759.533	63.78
759.844	63.18
760.154	63.53
760.464	65.29
760.775	62.28
761.085	65
761.395	65.95
761.705	63.81
762.016	62.14
762.326	64.23
762.636	63.31
762.945	64.89
763.255	66.55
763.565	64.09
763.875	63.4
764.185	61.58
764.494	64.24
764.804	64.95
765.113	65.42
765.423	64.23
765.732	65
766.042	64.56
766.351	63.49
766.66	64.04
766.97	65.45
767.279	64.15
767.588	65.91
767.897	65.83
768.206	64.4
768.515	64.33
768.824	65.05
769.133	65.18
769.441	63.04
769.75	64.25
770.059	66.39
770.367	61.97
770.676	64.27
770.984	66.85
771.293	66.18
771.601	65.69
771.91	65.1
772.218	63.95
772.526	66.37
772.834	65.8
773.142	65.58
773.45	62.64
773.758	64.98
774.066	65.84
774.374	62.57
774.682	67.67
774.99	63.18
775.298	62.1
775.605	67.17
775.913	64.21
776.22	64.41
776.528	67.37
776.835	65.02
777.143	64.58
777.45	65.27
777.757	66.83
778.065	66.01
778.372	68.12
778.679	66
778.986	66.22
779.293	63.42
779.6	64.56
779.907	64.71
780.214	65.76
780.52	67.82
780.827	64.36
781.134	67.38
781.44	62.4
781.747	65.78
782.053	62.63
782.36	68.99
782.666	65.5
782.973	64.32
783.279	67.79
783.585	66.01
783.891	68.76
784.197	65.21
784.503	67.39
784.809	65.14
785.115	62.23
785.421	65.43
785.727	64.46
786.033	67.95
786.339	64.72
786.644	68.94
786.95	66.03
787.255	70.55
787.561	65.54
787.866	66.09
788.172	64.65
788.477	64.91
788.782	69.01
789.088	67.77
789.393	65.9
789.698	64.82
790.003	64.87
790.308	63.43
790.613	69.74
790.918	67.27
791.223	67.38
791.527	63.23
791.832	66.77
792.137	66.42
792.441	68.87
792.746	69.8
793.05	72.16
793.355	71.09
793.659	71.69
793.963	66.99
794.268	73.58
794.572	65.49
794.876	60.45
795.18	71.07
795.484	66.49
795.788	65.45
796.092	65.09
796.396	66.94
796.7	66.86
797.004	65.85
797.307	63.54
797.611	64.47
797.915	62.7
798.218	67.18
798.522	67.21
798.825	63.62
799.128	62.21
799.432	70.78
799.735	69.4
800.038	73.3
800.341	65.08
800.644	70.22
800.947	66.19
801.25	66.43
801.553	66.73
801.856	67.07
802.159	69.29
802.462	69.92
802.764	69.15
803.067	68.57
803.37	71.35
803.672	63.6
803.975	63.71
804.277	68.72
804.579	65.2
804.882	70.69
805.184	67.44
805.486	67.75
805.788	73.28
806.09	71.15
806.392	65.22
806.694	71.53
806.996	73.71
807.298	70.02
807.6	68.65
807.902	63.49
808.203	66.44
808.505	69.51
808.807	66.74
809.108	74.03
809.409	66.62
809.711	65.71
810.012	70.44
810.313	65.87
810.615	62.78
810.916	72.42
811.217	72.99
811.518	62
811.819	66.41
812.12	65.7
812.421	72.24
812.722	65.68
813.023	69.07
813.323	68.91
813.624	70.83
813.925	67.05
814.225	73.06
814.526	63.15
814.826	68.89
815.126	67.2
815.427	70.33
815.727	71.23
816.027	65.09
816.327	68.94
816.627	66.74
816.927	72.66
817.227	69.32
817.527	65.09
817.827	69.62
818.127	66.39
818.427	66.48
818.727	75.89
819.026	63.57
819.326	75.12
819.625	67.78
819.925	60.43
820.224	66.88
820.524	64.17
820.823	67.36
821.122	67.93
821.421	66.68
821.72	65.56
822.019	66.48
822.318	72.13
822.617	64.85
822.916	64.56
823.215	69.19
823.514	69.4
823.813	71.53
824.111	69.48
824.41	72.54
824.709	72.15
825.007	71.25
825.306	71.48
825.604	70.91
825.902	70.74
826.201	69.98
826.499	69.56
826.797	70.16
827.095	69.32
827.393	67.27
827.691	68.34
827.989	68.45
828.287	70.06
828.585	68.71
828.882	69.34
829.18	69.02
829.478	68.78
829.775	70.54
830.073	71.5
830.37	71.82
830.668	71.14
830.965	69.1
831.263	67.47
831.56	68.64
831.857	68.07
832.154	66.73
832.451	67.51
832.748	71.58
833.045	66.11
833.342	69.22
833.639	73.53
833.936	65.87
834.232	64.44
834.529	70.73
834.826	65.24
835.122	62.48
835.419	68.4
835.715	75.44
836.012	66.28
836.308	66.25
836.604	67.7
836.901	67.45
837.197	68.61
837.493	68.68
837.789	69.95
838.085	70.44
838.381	72.2
838.677	65.65
838.972	70.19
839.268	68.36
839.564	66.57
839.86	66.35
840.155	61.87
840.451	66.48
840.746	69.15
841.042	73.24
841.337	68.58
841.632	64.19
841.928	67.99
842.223	68.22
842.518	64.34
842.813	65.95
843.108	72.94
843.403	73.65
843.698	61.29
843.993	60.24
844.287	64.49
844.582	64.46
844.877	81.61
845.171	77.13
845.466	62.38
845.761	75.12
846.055	63.78
846.349	66.57
846.644	58.43
846.938	60.13
847.232	63.04
847.526	85.67
847.82	66.65
848.114	62.3
848.408	65.27
848.702	62.87
848.996	80.28
849.29	55.77
849.584	86.24
849.877	73.46
850.171	73.03
850.465	67.87
850.758	70.95
851.052	70.28
851.345	98.87
851.638	70.88
851.932	51.22
852.225	36.57
852.518	62.91
852.811	55.83
853.104	57.94
853.397	58.96
853.69	74.81
853.983	49.41
854.276	65.45
854.569	81.29
854.861	88.69
855.154	53.67
855.447	40.54
855.739	91.79
856.032	59.7
856.324	75.7
856.616	58.5
856.909	51.85
857.201	79.94
857.493	51.42
857.785	48.97
858.077	69.72
858.369	49.02
858.661	82.68
858.953	43.72
859.245	92.89
859.537	55.95
859.829	88.5
860.12	65
860.412	58.77
860.703	63.35
860.995	97.39
861.286	90.13
861.578	61.22
861.869	74.86
862.16	46.67
862.452	58.97
862.743	58.88
863.034	39.53
863.325	53.98
863.616	55.23
863.907	54.74
864.198	39.51
864.488	89.49
864.779	62.99
865.07	49.8
865.36	45.81
865.651	119.01
865.941	40.44
866.232	68.36
866.522	60.46
866.813	51.3
867.103	68.45
867.393	41.82
867.683	56.03
867.973	63.6
868.263	64.5
868.553	89.16
868.843	56.48
869.133	71.96
869.423	53.14
869.713	74.47
870.002	62.26
870.292	68.52
870.582	63.84
870.871	40.99
871.161	73.5
871.45	48.74
871.739	28.57
872.029	61.17
872.318	60.26
872.607	73.39
872.896	68.32
873.185	53.39
873.474	50.64
873.763	60.13
874.052	56.01
874.341	65.11
874.63	134.49
874.918	65.34
875.207	64.07
875.496	62.96
875.784	0.62
876.073	14.92
876.361	63.99
876.649	63.67
876.938	81.9
877.226	78.02
877.514	45.09
877.802	57.63
878.09	76.79
878.378	72.48
878.666	96.74
878.954	55.02
879.242	59.51
879.53	59.07
879.817	67.58
880.105	49.35
880.392	69.67
880.68	61.32
880.967	97.78
881.255	37.8
881.542	97.32
881.83	45.77
882.117	53.01
882.404	11.96
882.691	49.66
882.978	59.51
883.265	74.36
883.552	60.37
883.839	75.6
884.126	52.71
884.413	71.51
884.699	69.19
884.986	78.97
885.273	79.24
885.559	79.24
885.846	79.24
