Data from 0391_crown_Reflection__2__192.txt Node

Date: Fri Dec 15 18:13:50 CST 2023
User: ToomeyLab
Spectrometer: FLMS14357
Trigger mode: 0
Integration Time (sec): 1.000000E-2
Scans to average: 100
Electric dark correction enabled: true
Nonlinearity correction enabled: false
Boxcar width: 0
XAxis mode: Wavelengths
Number of Pixels in Spectrum: 2048
>>>>>Begin Spectral Data<<<<<
189.047	-660.96
189.435	-660.96
189.823	-660.96
190.211	-126.51
190.599	-298.63
190.987	114.47
191.375	17.86
191.763	181.91
192.151	-12.93
192.538	9.45
192.926	28.8
193.314	130.52
193.702	37.28
194.089	-70.3
194.477	239.25
194.864	51.17
195.252	78.98
195.639	45.69
196.027	-32.75
196.414	225.6
196.801	196.1
197.189	142.08
197.576	-4.08
197.963	-14.23
198.351	21.26
198.738	-16.34
199.125	62.71
199.512	-35.52
199.899	21.13
200.286	16.23
200.673	28.46
201.06	-45.57
201.447	19.55
201.833	-26.6
202.22	34.32
202.607	7.31
202.994	43.74
203.38	-3.36
203.767	44.3
204.154	15.45
204.54	26.91
204.927	-53.34
205.313	-16.22
205.699	22
206.086	33.4
206.472	3.91
206.858	47.22
207.245	-26.42
207.631	37.95
208.017	18.81
208.403	-0.82
208.789	22.67
209.175	6.77
209.561	-65.9
209.947	7.67
210.333	-5.02
210.719	19.91
211.105	28.87
211.491	-28.22
211.876	28.97
212.262	-29.9
212.648	8.32
213.034	30.99
213.419	-48.33
213.805	-46.86
214.19	0.03
214.576	7.02
214.961	-28.76
215.346	-47.62
215.732	-9.96
216.117	26.7
216.502	-4.98
216.888	32.81
217.273	35.77
217.658	-7.48
218.043	-1.87
218.428	-35.53
218.813	-18.34
219.198	-38.31
219.583	-2.13
219.968	26.03
220.353	4.87
220.738	16.42
221.122	18.95
221.507	-24.19
221.892	-31.35
222.276	-30.01
222.661	1.67
223.046	8.06
223.43	11.26
223.815	15.2
224.199	-8.75
224.583	-0.56
224.968	8.14
225.352	7.8
225.736	3.9
226.121	-12.36
226.505	-1.18
226.889	13.58
227.273	-0.46
227.657	9.71
228.041	0.75
228.425	1.01
228.809	3.57
229.193	3.69
229.577	0.46
229.961	4.28
230.344	4.18
230.728	4.1
231.112	4.02
231.495	3.14
231.879	3.66
232.263	4.3
232.646	3.72
233.03	2.72
233.413	1.85
233.797	3.08
234.18	4.27
234.563	5.81
234.946	3.42
235.33	4.12
235.713	2.2
236.096	4.72
236.479	5.01
236.862	2.9
237.245	4.51
237.628	2.96
238.011	5.7
238.394	4.56
238.777	3.13
239.16	0.78
239.543	3.71
239.925	3.81
240.308	4.2
240.691	5.35
241.073	2.93
241.456	3.6
241.838	4.43
242.221	4.23
242.603	4.22
242.986	3.87
243.368	4.6
243.75	4.96
244.133	4.17
244.515	4.46
244.897	3.76
245.279	4.85
245.661	4.22
246.043	3.23
246.425	2.85
246.807	3.96
247.189	4.42
247.571	5.03
247.953	4.61
248.335	4.11
248.717	4.1
249.098	4.06
249.48	4.39
249.862	4.29
250.243	4.45
250.625	4.04
251.006	4.01
251.388	2.84
251.769	4.01
252.151	4.21
252.532	4.45
252.913	3.26
253.295	3.08
253.676	3.45
254.057	4.55
254.438	4.04
254.819	3.67
255.2	3.43
255.581	5.32
255.962	3.25
256.343	3.91
256.724	4.1
257.105	3.65
257.486	3.82
257.867	4.37
258.247	3.21
258.628	3.99
259.009	3.67
259.389	4.27
259.77	4.09
260.15	3.5
260.531	3.2
260.911	4.66
261.292	4.19
261.672	4.34
262.052	4.12
262.432	4.35
262.813	4.28
263.193	3.93
263.573	3.22
263.953	3.95
264.333	4.81
264.713	4.42
265.093	3.21
265.473	3.94
265.853	3.38
266.233	4.23
266.612	1.08
266.992	3.42
267.372	3.79
267.752	3.43
268.131	4.02
268.511	4.24
268.89	4.39
269.27	3.6
269.649	3.78
270.029	3.64
270.408	5.18
270.787	3.97
271.167	4.31
271.546	4.02
271.925	2.83
272.304	3.65
272.683	3.63
273.062	3.35
273.441	4.34
273.82	3.55
274.199	3.91
274.578	3.66
274.957	4.09
275.336	3.95
275.715	3.96
276.093	3.31
276.472	4.09
276.851	3.56
277.229	3.54
277.608	3.05
277.986	4.34
278.365	3.85
278.743	3.74
279.122	3.77
279.5	3.82
279.878	4.12
280.257	2.62
280.635	3.22
281.013	3.74
281.391	4.45
281.769	4.05
282.147	3.78
282.525	4.3
282.903	3.43
283.281	4.38
283.659	4.02
284.037	3.73
284.415	3.9
284.792	3.87
285.17	2.25
285.548	3.58
285.925	4.29
286.303	3.94
286.68	3.44
287.058	3.47
287.435	3.95
287.813	3.88
288.19	3.58
288.567	3.71
288.945	3.92
289.322	3.47
289.699	3.29
290.076	3.49
290.453	3.78
290.83	2.89
291.207	3.38
291.584	4.18
291.961	3.83
292.338	3.69
292.715	3.93
293.092	3.8
293.469	4.16
293.845	4.23
294.222	3.55
294.599	3.6
294.975	3.58
295.352	4.12
295.728	3.85
296.105	3.89
296.481	3.84
296.858	3.85
297.234	3.41
297.61	3.88
297.986	3.94
298.363	3.91
298.739	4.08
299.115	3.93
299.491	3.76
299.867	3.82
300.243	4.19
300.619	3.95
300.995	3.6
301.371	4.17
301.746	3.31
302.122	4.07
302.498	3.73
302.874	3.67
303.249	3.92
303.625	3.89
304	4.31
304.376	3.54
304.751	3.54
305.127	4.94
305.502	3.3
305.878	3.56
306.253	3.79
306.628	4.27
307.003	3.68
307.378	3.85
307.754	3.88
308.129	2.73
308.504	4
308.879	3.34
309.254	4.48
309.629	4.26
310.003	3.58
310.378	3.92
310.753	3.92
311.128	3.74
311.502	4.1
311.877	4.23
312.252	3.61
312.626	3.68
313.001	3.62
313.375	3.98
313.75	3.57
314.124	4.23
314.498	3.65
314.873	3.42
315.247	3.32
315.621	3.72
315.995	3.57
316.369	4.18
316.743	3.39
317.117	4.19
317.491	3.94
317.865	3.98
318.239	3.6
318.613	3.78
318.987	4.11
319.361	3.15
319.734	4.36
320.108	3.76
320.482	3.62
320.855	4.38
321.229	3.58
321.602	3.59
321.976	3.77
322.349	3.75
322.723	3.43
323.096	4.25
323.469	3.71
323.843	3.97
324.216	4.64
324.589	4.03
324.962	4.12
325.335	3.89
325.708	3.27
326.081	3.39
326.454	4.41
326.827	3.34
327.2	3.7
327.573	4.23
327.945	4.02
328.318	3.39
328.691	2.96
329.063	3.29
329.436	3.52
329.809	4.16
330.181	3.88
330.553	4.25
330.926	3.75
331.298	4.3
331.671	3.46
332.043	4.54
332.415	4.43
332.787	3.68
333.159	4.24
333.532	4.29
333.904	3.54
334.276	3.67
334.648	3.74
335.02	3.4
335.391	3.28
335.763	4.12
336.135	3.74
336.507	3.66
336.879	3.79
337.25	4.25
337.622	3.87
337.993	3.87
338.365	3.66
338.736	3.75
339.108	4.22
339.479	3.5
339.851	3.88
340.222	3.45
340.593	3.95
340.964	3.42
341.336	4.24
341.707	3.52
342.078	3.95
342.449	3.94
342.82	3.91
343.191	3.88
343.562	4.01
343.933	3.66
344.303	4.08
344.674	3.79
345.045	4.09
345.416	4.32
345.786	3.53
346.157	4.23
346.527	3.31
346.898	3.33
347.268	3.88
347.639	3.6
348.009	3.61
348.38	3.54
348.75	3.77
349.12	3.64
349.49	3.93
349.861	4.11
350.231	3.38
350.601	4.1
350.971	3.95
351.341	4.34
351.711	3.51
352.081	4.07
352.45	3.4
352.82	3.96
353.19	3.76
353.56	3.43
353.929	3.82
354.299	4.04
354.669	3.47
355.038	3.91
355.408	3.91
355.777	4.06
356.147	3.73
356.516	3.66
356.885	3.5
357.254	3.82
357.624	4.37
357.993	3.96
358.362	3.57
358.731	3.32
359.1	3.87
359.469	3.89
359.838	3.85
360.207	3.79
360.576	3.72
360.945	3.72
361.314	4.48
361.682	3.71
362.051	4
362.42	4.06
362.788	3.79
363.157	4.12
363.525	4.12
363.894	3.99
364.262	3.78
364.631	3.81
364.999	3.8
365.367	3.6
365.735	4.32
366.104	3.85
366.472	4.12
366.84	3.69
367.208	3.77
367.576	3.9
367.944	3.83
368.312	3.92
368.68	3.61
369.048	4.06
369.416	3.66
369.783	3.5
370.151	3.48
370.519	4.41
370.886	4.41
371.254	3.54
371.621	4.23
371.989	4.22
372.356	3.43
372.724	4.05
373.091	3.9
373.458	4.08
373.826	3.87
374.193	3.36
374.56	4.18
374.927	4
375.294	3.79
375.661	3.65
376.028	3.88
376.395	3.61
376.762	3.97
377.129	4.14
377.496	3.74
377.863	3.85
378.229	3.64
378.596	3.97
378.963	3.78
379.329	3.69
379.696	3.97
380.062	3.66
380.429	4.09
380.795	3.88
381.161	4.01
381.528	4.05
381.894	3.99
382.26	3.95
382.626	4.26
382.993	4.03
383.359	4.14
383.725	3.78
384.091	4.12
384.457	4.21
384.823	3.71
385.188	4.16
385.554	3.89
385.92	4.03
386.286	4
386.651	4.28
387.017	4.21
387.383	4
387.748	3.95
388.114	4.35
388.479	3.85
388.845	4.19
389.21	4.39
389.575	4
389.94	4.03
390.306	4.03
390.671	4.16
391.036	3.73
391.401	3.69
391.766	3.97
392.131	3.94
392.496	4.09
392.861	4.01
393.226	4.28
393.591	4.15
393.956	4.15
394.32	3.95
394.685	3.63
395.05	3.83
395.414	3.91
395.779	3.82
396.143	4.13
396.508	4.09
396.872	4.06
397.236	3.96
397.601	3.99
397.965	3.94
398.329	4.05
398.694	4.08
399.058	4.03
399.422	4.08
399.786	4.33
400.15	4.17
400.514	4.23
400.878	4.18
401.242	4.3
401.605	4.03
401.969	4.23
402.333	4.25
402.697	4.04
403.06	4.15
403.424	3.95
403.787	4.09
404.151	4.27
404.514	4.18
404.878	4.01
405.241	4.15
405.604	4.19
405.968	4.14
406.331	4.22
406.694	4.33
407.057	3.94
407.42	4.23
407.783	3.87
408.146	4.23
408.509	4.14
408.872	4.04
409.235	4.1
409.598	4.41
409.961	4.12
410.323	4.23
410.686	4.33
411.049	4.02
411.411	3.88
411.774	3.92
412.136	4.23
412.499	3.98
412.861	4.08
413.223	3.93
413.586	4.39
413.948	4.28
414.31	4.31
414.672	4.06
415.035	4.04
415.397	4.68
415.759	3.82
416.121	4.37
416.483	4.03
416.845	4.32
417.206	4.05
417.568	4.28
417.93	4.16
418.292	4.01
418.653	4.17
419.015	4.19
419.377	4.23
419.738	4.25
420.1	4.15
420.461	4.19
420.822	4.11
421.184	4.08
421.545	4.17
421.906	4.1
422.267	4.15
422.629	4.22
422.99	4.17
423.351	4.11
423.712	4.14
424.073	4.24
424.434	4.15
424.795	4
425.155	4.21
425.516	4.09
425.877	4.24
426.238	4.15
426.598	4.15
426.959	4.24
427.32	4.11
427.68	4.23
428.041	4.15
428.401	4.29
428.761	4.22
429.122	4.42
429.482	4.33
429.842	4.28
430.202	4.5
430.563	4.2
430.923	4.2
431.283	4.52
431.643	4.23
432.003	4.17
432.363	4.29
432.722	4.27
433.082	4.39
433.442	4.12
433.802	4
434.161	4.41
434.521	4.42
434.881	4.42
435.24	4.26
435.6	4.28
435.959	4.29
436.319	4.38
436.678	4.31
437.037	4.21
437.396	4.43
437.756	4.32
438.115	4.24
438.474	4.5
438.833	4.03
439.192	4.33
439.551	4.4
439.91	4.3
440.269	4.41
440.628	4.38
440.987	4.29
441.345	4.2
441.704	4.36
442.063	4.23
442.421	4.27
442.78	4.31
443.138	4.37
443.497	4.41
443.855	4.39
444.214	4.25
444.572	4.55
444.93	4.4
445.288	4.46
445.647	4.58
446.005	4.42
446.363	4.56
446.721	4.45
447.079	4.17
447.437	4.34
447.795	4.41
448.153	4.31
448.51	4.31
448.868	4.39
449.226	4.4
449.584	4.33
449.941	4.52
450.299	4.46
450.656	4.38
451.014	4.53
451.371	4.34
451.729	4.19
452.086	4.69
452.443	4.55
452.801	4.64
453.158	4.51
453.515	4.42
453.872	4.52
454.229	4.46
454.586	4.38
454.943	4.5
455.3	4.61
455.657	4.45
456.014	4.34
456.371	4.55
456.727	4.39
457.084	4.69
457.441	4.49
457.797	4.38
458.154	4.66
458.51	4.7
458.867	4.78
459.223	4.65
459.58	4.56
459.936	4.59
460.292	4.59
460.648	4.62
461.005	4.43
461.361	4.55
461.717	4.53
462.073	4.4
462.429	4.51
462.785	4.55
463.141	4.48
463.496	4.64
463.852	4.64
464.208	4.58
464.564	4.71
464.919	4.63
465.275	4.66
465.631	4.77
465.986	4.48
466.342	4.62
466.697	4.45
467.052	4.66
467.408	4.68
467.763	4.58
468.118	4.6
468.473	4.67
468.829	4.85
469.184	4.47
469.539	4.63
469.894	4.58
470.249	4.8
470.603	4.97
470.958	4.8
471.313	4.81
471.668	4.84
472.023	4.82
472.377	4.74
472.732	4.8
473.086	4.74
473.441	4.52
473.795	4.85
474.15	4.78
474.504	4.7
474.859	4.74
475.213	4.67
475.567	4.76
475.921	4.6
476.275	4.78
476.63	4.82
476.984	4.75
477.338	4.88
477.692	4.7
478.045	4.67
478.399	4.84
478.753	4.65
479.107	4.73
479.461	4.83
479.814	4.76
480.168	4.86
480.521	4.81
480.875	4.74
481.228	4.76
481.582	4.74
481.935	4.83
482.289	4.81
482.642	4.87
482.995	4.64
483.348	4.7
483.701	4.81
484.055	4.77
484.408	4.83
484.761	4.63
485.114	4.64
485.466	4.52
485.819	4.47
486.172	4.51
486.525	4.58
486.878	4.62
487.23	4.68
487.583	4.72
487.936	4.73
488.288	4.7
488.641	4.73
488.993	4.62
489.345	4.58
489.698	4.58
490.05	4.61
490.402	4.69
490.754	4.67
491.107	4.74
491.459	4.83
491.811	4.85
492.163	4.8
492.515	4.79
492.866	4.77
493.218	4.78
493.57	4.65
493.922	4.71
494.274	4.81
494.625	4.82
494.977	4.86
495.328	5
495.68	4.9
496.031	5.03
496.383	5.02
496.734	5.17
497.086	5.08
497.437	4.95
497.788	4.85
498.139	4.85
498.49	5.02
498.842	4.86
499.193	4.99
499.544	5.08
499.894	4.97
500.245	4.98
500.596	4.93
500.947	5.04
501.298	4.95
501.648	4.95
501.999	5.13
502.35	5.09
502.7	5.01
503.051	4.8
503.401	5.04
503.752	5.13
504.102	4.92
504.452	5.16
504.803	4.99
505.153	4.95
505.503	5.09
505.853	5.15
506.203	4.93
506.553	5.05
506.903	4.92
507.253	5.01
507.603	5
507.953	5.13
508.303	5.19
508.652	4.92
509.002	5.09
509.352	5.15
509.701	4.98
510.051	5.06
510.4	5.08
510.75	5.1
511.099	5.09
511.449	5.05
511.798	5.15
512.147	5.03
512.496	5.14
512.846	5.13
513.195	5.14
513.544	5.09
513.893	5.14
514.242	5.1
514.591	5.32
514.939	5.16
515.288	5.06
515.637	5.15
515.986	5.19
516.334	5.12
516.683	5.14
517.032	5.22
517.38	5.28
517.729	5.15
518.077	5.15
518.426	5.28
518.774	5.23
519.122	5.17
519.47	5.19
519.819	5
520.167	5.13
520.515	5.21
520.863	5.19
521.211	5.26
521.559	5.24
521.907	5.16
522.255	5.16
522.602	5.22
522.95	5.2
523.298	5.31
523.645	5.32
523.993	5.25
524.341	5.37
524.688	5.35
525.036	5.26
525.383	5.34
525.73	5.47
526.078	5.23
526.425	5.18
526.772	5.28
527.119	5.23
527.466	5.13
527.814	5.2
528.161	5.21
528.508	5.29
528.854	5.22
529.201	5.22
529.548	5.17
529.895	5.12
530.242	5.02
530.588	5.02
530.935	5.04
531.282	5.11
531.628	5.07
531.975	5.18
532.321	5.23
532.667	5.3
533.014	5.36
533.36	5.29
533.706	5.27
534.052	5.35
534.399	5.3
534.745	5.23
535.091	5.25
535.437	5.18
535.783	5.21
536.129	5.28
536.474	5.3
536.82	5.34
537.166	5.37
537.512	5.48
537.857	5.39
538.203	5.46
538.549	5.31
538.894	5.34
539.239	5.37
539.585	5.35
539.93	5.27
540.276	5.49
540.621	5.56
540.966	5.62
541.311	5.43
541.656	5.43
542.001	5.48
542.346	5.49
542.691	5.35
543.036	5.26
543.381	5.18
543.726	5.22
544.071	5.32
544.415	5.39
544.76	5.34
545.105	5.41
545.449	5.5
545.794	5.55
546.138	5.49
546.483	5.47
546.827	5.53
547.171	5.56
547.516	5.59
547.86	5.51
548.204	5.47
548.548	5.37
548.892	5.54
549.236	5.45
549.58	5.52
549.924	5.56
550.268	5.84
550.612	5.69
550.956	5.67
551.3	5.63
551.643	5.76
551.987	5.92
552.33	5.7
552.674	5.7
553.017	5.76
553.361	5.47
553.704	5.85
554.048	5.6
554.391	5.47
554.734	5.58
555.077	5.7
555.42	5.54
555.764	5.66
556.107	5.52
556.45	5.52
556.793	5.73
557.135	5.7
557.478	5.94
557.821	5.75
558.164	5.84
558.507	5.64
558.849	5.56
559.192	5.81
559.534	5.89
559.877	5.83
560.219	5.77
560.562	5.92
560.904	5.83
561.246	5.76
561.589	5.73
561.931	5.63
562.273	5.62
562.615	5.96
562.957	5.86
563.299	5.61
563.641	5.74
563.983	5.87
564.325	5.69
564.667	5.68
565.008	5.86
565.35	5.79
565.692	5.74
566.033	5.86
566.375	5.92
566.716	5.81
567.058	5.6
567.399	5.75
567.741	5.51
568.082	5.8
568.423	5.78
568.764	5.84
569.105	5.95
569.447	5.87
569.788	5.89
570.129	5.85
570.47	5.97
570.811	6.1
571.151	6.02
571.492	6.03
571.833	6.04
572.174	5.78
572.514	5.93
572.855	5.76
573.195	5.85
573.536	5.88
573.876	5.58
574.217	5.81
574.557	5.93
574.898	5.98
575.238	5.91
575.578	5.79
575.918	6.11
576.258	6.29
576.598	6.06
576.938	5.74
577.278	5.94
577.618	5.88
577.958	5.91
578.298	5.97
578.638	5.88
578.977	5.97
579.317	5.83
579.657	5.95
579.996	5.94
580.336	6.03
580.675	6.08
581.014	6.03
581.354	5.97
581.693	5.9
582.032	5.83
582.372	5.86
582.711	6.04
583.05	5.94
583.389	6.17
583.728	5.79
584.067	6.13
584.406	6.19
584.745	6.19
585.083	6.23
585.422	6.14
585.761	6.09
586.1	6.4
586.438	6.15
586.777	6.37
587.115	6.16
587.454	5.84
587.792	5.99
588.13	6.01
588.469	6.03
588.807	5.99
589.145	5.81
589.483	6.14
589.821	5.95
590.159	5.88
590.497	6.18
590.835	6.17
591.173	6.06
591.511	6.34
591.849	6.08
592.187	6.18
592.524	6.26
592.862	6.35
593.2	6.48
593.537	6.12
593.875	6.21
594.212	6.03
594.55	5.95
594.887	6.45
595.224	6.1
595.561	6.03
595.899	6.06
596.236	6.31
596.573	6.26
596.91	5.72
597.247	6.17
597.584	6.58
597.921	6.29
598.258	6.02
598.594	6.06
598.931	6.01
599.268	6.29
599.604	6.06
599.941	6.39
600.277	6.27
600.614	6.18
600.95	6.02
601.287	6.55
601.623	6.18
601.959	6.28
602.296	6.2
602.632	6.1
602.968	6.42
603.304	6.13
603.64	6.38
603.976	6.43
604.312	6.2
604.648	6.2
604.984	6.31
605.319	6.53
605.655	6.26
605.991	6.45
606.326	6.16
606.662	6.29
606.998	6.03
607.333	6.26
607.668	6.24
608.004	6.23
608.339	6.49
608.674	6.52
609.01	6.19
609.345	6.28
609.68	6.75
610.015	6.48
610.35	6.39
610.685	6.47
611.02	6.42
611.355	6.53
611.689	6.27
612.024	6.52
612.359	6.42
612.694	6.28
613.028	6.33
613.363	6.58
613.697	6.63
614.032	6.8
614.366	6.41
614.7	6.62
615.035	6.85
615.369	6.57
615.703	6.38
616.037	6.61
616.371	6.14
616.705	6.22
617.039	6.74
617.373	6.46
617.707	6.5
618.041	5.84
618.375	6.62
618.709	6.9
619.042	6.46
619.376	6.65
619.71	6.58
620.043	6.45
620.377	6.65
620.71	6.44
621.043	6.35
621.377	6.4
621.71	6.62
622.043	6.47
622.376	6.11
622.709	6.85
623.043	6.74
623.376	6.71
623.709	6.55
624.041	7.29
624.374	6.41
624.707	6.55
625.04	7.1
625.373	6.08
625.705	6.34
626.038	6.62
626.37	6.46
626.703	6.79
627.035	7.08
627.368	6.8
627.7	6.95
628.032	6.65
628.365	6.95
628.697	6.69
629.029	6.31
629.361	6.79
629.693	6.65
630.025	6.33
630.357	6.91
630.689	6.75
631.021	6.74
631.353	6.6
631.684	6.53
632.016	6.43
632.348	6.73
632.679	6.63
633.011	6.82
633.342	6.92
633.674	6.63
634.005	7.02
634.336	7.05
634.668	7.1
634.999	6.87
635.33	7.1
635.661	7
635.992	6.83
636.323	7.11
636.654	7.02
636.985	6.76
637.316	6.8
637.647	6.38
637.977	6.95
638.308	7.11
638.639	6.42
638.969	6.32
639.3	6.99
639.63	6.49
639.961	6.56
640.291	6.71
640.622	7.2
640.952	6.65
641.282	7.15
641.612	7.13
641.943	6.67
642.273	6.88
642.603	7.48
642.933	7.08
643.263	7.18
643.592	6.51
643.922	7.14
644.252	6.79
644.582	6.7
644.911	6.54
645.241	7.32
645.571	7.03
645.9	6.74
646.23	6.51
646.559	7.05
646.888	6.44
647.218	6.38
647.547	6.93
647.876	6.83
648.205	6.94
648.534	6.7
648.863	6.41
649.192	7.65
649.521	6.83
649.85	6.76
650.179	7.17
650.508	6.39
650.837	6.94
651.165	6.88
651.494	7.14
651.822	7.06
652.151	6.55
652.479	7.06
652.808	7.03
653.136	6.74
653.465	6.28
653.793	6.91
654.121	6.98
654.449	7.1
654.777	7.2
655.105	7.31
655.433	6.89
655.761	6.69
656.089	7.02
656.417	7.42
656.745	7.36
657.073	6.75
657.4	7.55
657.728	7.26
658.056	7.03
658.383	7.12
658.711	7.36
659.038	6.95
659.365	7.72
659.693	7.24
660.02	6.95
660.347	6.94
660.674	7.19
661.001	7.35
661.329	6.3
661.656	7.25
661.982	7.44
662.309	7.2
662.636	7.07
662.963	7.72
663.29	7.33
663.616	7.57
663.943	7.13
664.27	6.74
664.596	7.92
664.923	7.16
665.249	7.57
665.576	7.15
665.902	8.02
666.228	7.47
666.554	7.1
666.881	7.17
667.207	7.21
667.533	7.24
667.859	7.5
668.185	7.82
668.511	6.86
668.837	6.65
669.162	7.39
669.488	6.75
669.814	7.31
670.139	7.27
670.465	7.21
670.791	7.42
671.116	8.15
671.442	7.37
671.767	7.55
672.092	7.62
672.418	7.62
672.743	7.6
673.068	6.79
673.393	7.31
673.718	6.84
674.043	6.9
674.368	7.29
674.693	8.14
675.018	7.32
675.343	6.61
675.667	6.91
675.992	7.26
676.317	7.14
676.641	7.6
676.966	8.31
677.29	7.25
677.615	7.42
677.939	7.46
678.264	8.02
678.588	7.6
678.912	7.11
679.236	8.2
679.56	6.76
679.885	7.44
680.209	7.32
680.532	7.44
680.856	8.06
681.18	7.82
681.504	7.43
681.828	7.84
682.152	7.25
682.475	7.28
682.799	7.99
683.122	7.53
683.446	7.44
683.769	7.93
684.093	7.49
684.416	7.88
684.739	7.96
685.062	7.76
685.386	8
685.709	7.28
686.032	7.38
686.355	8.09
686.678	7.2
687.001	7.53
687.324	8.36
687.646	6.84
687.969	7.39
688.292	7.04
688.614	7.31
688.937	8.18
689.26	6.96
689.582	8.14
689.904	7.36
690.227	7.77
690.549	7.62
690.871	8.61
691.194	7.72
691.516	8.06
691.838	7.43
692.16	7.42
692.482	7.82
692.804	7.97
693.126	7.82
693.448	7.65
693.769	8.4
694.091	7.52
694.413	7.86
694.735	7.38
695.056	7.94
695.378	7.73
695.699	8.33
696.021	7.57
696.342	6.92
696.663	6.99
696.984	7.47
697.306	7.33
697.627	8.49
697.948	8.41
698.269	8.26
698.59	7.88
698.911	6.81
699.232	7.67
699.553	8.18
699.873	7.99
700.194	9.15
700.515	8.55
700.835	7.37
701.156	8.29
701.477	8.24
701.797	7.62
702.117	8.09
702.438	7.98
702.758	8.08
703.078	7.24
703.398	7.38
703.719	8.39
704.039	6.81
704.359	9.01
704.679	8.29
704.999	7.73
705.319	8.27
705.638	7.24
705.958	7.79
706.278	7.9
706.597	7.92
706.917	7.64
707.237	8.15
707.556	8.56
707.876	7.99
708.195	8.07
708.514	8.13
708.834	8.21
709.153	7.89
709.472	7.61
709.791	8.15
710.11	7.41
710.429	8.56
710.748	8.48
711.067	7.48
711.386	7.63
711.705	7.27
712.023	8.74
712.342	7.73
712.661	7.62
712.979	6.9
713.298	8.96
713.616	8.84
713.935	8.52
714.253	7.01
714.572	8.36
714.89	7.8
715.208	9.59
715.526	7.93
715.844	8.42
716.162	8.52
716.48	7.72
716.798	9.52
717.116	8.57
717.434	8.02
717.752	5.98
718.069	8.06
718.387	8.01
718.705	8.59
719.022	6.35
719.34	7.45
719.657	7.93
719.975	8.11
720.292	7.25
720.609	8.19
720.927	9.11
721.244	9.46
721.561	8.54
721.878	8.53
722.195	7.67
722.512	8.33
722.829	9.32
723.146	7.67
723.463	8.95
723.779	7.62
724.096	9.7
724.413	8.8
724.729	8.6
725.046	6.39
725.362	8.43
725.679	9.37
725.995	7.96
726.311	7.07
726.628	8.2
726.944	8.88
727.26	9.51
727.576	8.72
727.892	8.93
728.208	8.43
728.524	7.71
728.84	7.71
729.156	9.48
729.472	7.85
729.787	8.07
730.103	9.12
730.419	8.32
730.734	7.94
731.05	7.73
731.365	8.08
731.681	9.15
731.996	8.58
732.311	9.04
732.626	8.62
732.942	6.74
733.257	10.24
733.572	8.13
733.887	8.74
734.202	9.16
734.517	9.48
734.832	8.31
735.146	8.43
735.461	9.11
735.776	8.36
736.091	9.18
736.405	8.94
736.72	7.63
737.034	8.58
737.349	10.84
737.663	9.41
737.977	9.89
738.292	7.79
738.606	9.64
738.92	10.47
739.234	9.71
739.548	8.76
739.862	7.61
740.176	9.57
740.49	8.91
740.804	10.03
741.117	9.15
741.431	8.94
741.745	8.6
742.058	9.36
742.372	7.4
742.685	8.8
742.999	7.74
743.312	8.36
743.626	9.11
743.939	8.9
744.252	10.04
744.565	8.53
744.878	10.12
745.191	7.71
745.505	6.15
745.817	10.18
746.13	8.92
746.443	8.95
746.756	9.61
747.069	9.51
747.381	7.74
747.694	7.89
748.007	9.85
748.319	9.21
748.632	10.41
748.944	9.42
749.256	11.32
749.569	8.75
749.881	9.35
750.193	10.63
750.505	9.28
750.817	10.12
751.129	9.73
751.441	6.42
751.753	9.6
752.065	10.97
752.377	10.42
752.689	10.22
753	9.35
753.312	7.67
753.624	7.06
753.935	9.93
754.247	9.79
754.558	9.08
754.869	8.92
755.181	9.92
755.492	10.79
755.803	9.67
756.114	10.94
756.425	8.24
756.736	9.64
757.047	9.87
757.358	10.06
757.669	9.27
757.98	8.34
758.291	8.07
758.601	8.86
758.912	7.65
759.223	8.58
759.533	8.91
759.844	8.76
760.154	10.17
760.464	11.46
760.775	8.78
761.085	9.14
761.395	8.69
761.705	7.1
762.016	8.96
762.326	8.03
762.636	8.95
762.945	8.72
763.255	10.81
763.565	8.04
763.875	8.76
764.185	10.29
764.494	8.89
764.804	10.18
765.113	9.8
765.423	8.83
765.732	9.03
766.042	8.97
766.351	10.1
766.66	9.27
766.97	11.76
767.279	10.1
767.588	11.08
767.897	9.79
768.206	8.97
768.515	8.78
768.824	9.95
769.133	8.71
769.441	7.96
769.75	7.24
770.059	10.77
770.367	9.43
770.676	8.64
770.984	9.42
771.293	9.21
771.601	10.57
771.91	8.6
772.218	11.08
772.526	9.4
772.834	10.5
773.142	7.53
773.45	8.88
773.758	7.04
774.066	12.07
774.374	7.19
774.682	9.55
774.99	10.72
775.298	9.47
775.605	8.49
775.913	9.65
776.22	15.36
776.528	11.35
776.835	14.36
777.143	11.07
777.45	9.02
777.757	11.43
778.065	12.37
778.372	8.32
778.679	11.13
778.986	12.27
779.293	6.64
779.6	12.31
779.907	12.2
780.214	13.52
780.52	12.15
780.827	13.16
781.134	10.56
781.44	7.05
781.747	8.69
782.053	10.9
782.36	7.84
782.666	12.13
782.973	10.47
783.279	10.67
783.585	12.05
783.891	12.27
784.197	8.21
784.503	12.4
784.809	7.54
785.115	9.17
785.421	13.48
785.727	8.35
786.033	6.49
786.339	6.89
786.644	10.56
786.95	11.28
787.255	12.71
787.561	13.98
787.866	10.61
788.172	6.29
788.477	7.5
788.782	11.94
789.088	10.99
789.393	10.35
789.698	10.55
790.003	11.59
790.308	10.68
790.613	8.17
790.918	9.02
791.223	9.87
791.527	7.67
791.832	13.43
792.137	7.11
792.441	9.62
792.746	11.12
793.05	8.88
793.355	8.48
793.659	10.96
793.963	11.22
794.268	12.95
794.572	11.1
794.876	7.94
795.18	11.05
795.484	7.53
795.788	9.99
796.092	11.92
796.396	11.58
796.7	11.6
797.004	11.59
797.307	9.46
797.611	10.18
797.915	10.33
798.218	11.37
798.522	10.83
798.825	9.17
799.128	8.71
799.432	8.07
799.735	9.35
800.038	16.06
800.341	10.48
800.644	8.33
800.947	15.38
801.25	12.75
801.553	7.4
801.856	6.25
802.159	12.27
802.462	9.08
802.764	12.1
803.067	5.79
803.37	12.52
803.672	10.66
803.975	7.4
804.277	3.67
804.579	5.1
804.882	6.85
805.184	9.41
805.486	6.3
805.788	10.88
806.09	12.18
806.392	2.32
806.694	17.17
806.996	14.15
807.298	8.76
807.6	9.9
807.902	13.47
808.203	10.9
808.505	7.78
808.807	6.76
809.108	8.38
809.409	10.31
809.711	9.67
810.012	7.14
810.313	13.96
810.615	11.08
810.916	6.62
811.217	7.33
811.518	8.56
811.819	8.45
812.12	5.77
812.421	5.8
812.722	7.95
813.023	15.9
813.323	13.33
813.624	4.4
813.925	18.58
814.225	8.55
814.526	12.04
814.826	13.35
815.126	11.48
815.427	11.55
815.727	10.29
816.027	5.82
816.327	9.78
816.627	3.97
816.927	10.01
817.227	10.27
817.527	10.27
817.827	16.22
818.127	13.25
818.427	9.56
818.727	3.52
819.026	6.21
819.326	16.97
819.625	11.28
819.925	9.19
820.224	7.88
820.524	16.21
820.823	12.6
821.122	9.4
821.421	10.26
821.72	6.54
822.019	5.94
822.318	14.42
822.617	6.31
822.916	10.78
823.215	10.36
823.514	13.79
823.813	8.62
824.111	9.54
824.41	12.31
824.709	11.82
825.007	12.32
825.306	11.82
825.604	12.49
825.902	12.51
826.201	12.15
826.499	11.28
826.797	12.28
827.095	12.61
827.393	12.73
827.691	12.94
827.989	9.55
828.287	13.12
828.585	10.77
828.882	11.41
829.18	12.69
829.478	12.67
829.775	14.58
830.073	13.09
830.37	12.89
830.668	9.66
830.965	14.35
831.263	9.39
831.56	10.8
831.857	10.09
832.154	12.32
832.451	12.75
832.748	14.59
833.045	12.51
833.342	14.06
833.639	6.22
833.936	8.21
834.232	14.71
834.529	11.56
834.826	4.99
835.122	11.15
835.419	9.04
835.715	16.09
836.012	14.59
836.308	7.48
836.604	11.06
836.901	9.07
837.197	9.45
837.493	10
837.789	12.63
838.085	12.2
838.381	9.85
838.677	10.24
838.972	12.25
839.268	11.06
839.564	15.94
839.86	6.1
840.155	6.07
840.451	11.69
840.746	18.02
841.042	6.51
841.337	8.38
841.632	10.09
841.928	23.33
842.223	12.87
842.518	5.89
842.813	19.45
843.108	7.88
843.403	24.05
843.698	14.33
843.993	10.33
844.287	13.14
844.582	3.68
844.877	8.64
845.171	12.54
845.466	13.9
845.761	11.11
846.055	14.13
846.349	7.51
846.644	-0.08
846.938	-16.12
847.232	16.66
847.526	22.16
847.82	12.06
848.114	-13.66
848.408	8.06
848.702	8.7
848.996	17.51
849.29	11.63
849.584	20.58
849.877	12.54
850.171	8.73
850.465	4.22
850.758	22.51
851.052	2.6
851.345	7.12
851.638	30.07
851.932	-10.44
852.225	-26.81
852.518	14.69
852.811	9.38
853.104	-19.13
853.397	6.14
853.69	8.86
853.983	0.66
854.276	11.5
854.569	11.15
854.861	-4.76
855.154	3.07
855.447	-2.61
855.739	37.75
856.032	5.93
856.324	28.01
856.616	22.84
856.909	26.66
857.201	24.71
857.493	8.03
857.785	1.54
858.077	24.49
858.369	9.57
858.661	15.03
858.953	-8.62
859.245	2.34
859.537	20.23
859.829	23.44
860.12	8.19
860.412	9.8
860.703	-3
860.995	-7.69
861.286	1.66
861.578	-10.86
861.869	8.71
862.16	-1.56
862.452	28.36
862.743	-20.06
863.034	13.34
863.325	-15.99
863.616	5.68
863.907	-10.27
864.198	-19.72
864.488	23.61
864.779	-8.02
865.07	8.22
865.36	16.85
865.651	26.36
865.941	-5.49
866.232	15.86
866.522	-25.96
866.813	5.07
867.103	28.43
867.393	-2.95
867.683	20.82
867.973	12.06
868.263	15.74
868.553	17.3
868.843	33.59
869.133	-3.83
869.423	-14.93
869.713	29.41
870.002	29.71
870.292	28.78
870.582	24.26
870.871	-10.63
871.161	-4.35
871.45	6.37
871.739	1.97
872.029	-2.66
872.318	15.73
872.607	44.54
872.896	-15.44
873.185	15.95
873.474	-35.4
873.763	-3.97
874.052	-20.96
874.341	11.17
874.63	28.77
874.918	19.08
875.207	21.48
875.496	-9.93
875.784	25.69
876.073	-21.57
876.361	-61.03
876.649	8.17
876.938	28.09
877.226	15.28
877.514	17.87
877.802	19.34
878.09	-16.3
878.378	16.83
878.666	-4.3
878.954	3.71
879.242	24.79
879.53	11.37
879.817	8.31
880.105	-3.11
880.392	28.88
880.68	-24.85
880.967	-27.4
881.255	5.84
881.542	6.53
881.83	-25.3
882.117	22.05
882.404	-22.22
882.691	32.87
882.978	7.82
883.265	13.83
883.552	3.3
883.839	-2.14
884.126	-0.1
884.413	23.08
884.699	20.96
884.986	26.29
885.273	12.17
885.559	12.17
885.846	12.17
