Data from 1832-1_chest_Reflection__1__17.txt Node

Date: Fri Sep 30 17:52:05 CDT 2022
User: ToomeyLab
Spectrometer: FLMS14357
Trigger mode: 0
Integration Time (sec): 1.000000E-2
Scans to average: 100
Electric dark correction enabled: true
Nonlinearity correction enabled: false
Boxcar width: 0
XAxis mode: Wavelengths
Number of Pixels in Spectrum: 2048
>>>>>Begin Spectral Data<<<<<
189.047	5.75
189.435	5.75
189.823	5.75
190.211	143.85
190.599	-50.86
190.987	39.21
191.375	13100
191.763	-64.42
192.151	-60.58
192.538	-3.49
192.926	246.41
193.314	-73.36
193.702	46.41
194.089	-226.75
194.477	114.27
194.864	-75.74
195.252	-104.74
195.639	154.98
196.027	-101.79
196.414	60.32
196.801	74.3
197.189	51.75
197.576	119.83
197.963	32.97
198.351	-15.97
198.738	-6.44
199.125	29.97
199.512	7.04
199.899	3.97
200.286	45.03
200.673	19.47
201.06	33.53
201.447	13.29
201.833	14.12
202.22	18.66
202.607	16.37
202.994	46.6
203.38	27.28
203.767	-31.45
204.154	11.75
204.54	53.35
204.927	39.3
205.313	-4.91
205.699	6.2
206.086	-5.3
206.472	8.76
206.858	7.09
207.245	22.23
207.631	-19.26
208.017	-25.7
208.403	15.51
208.789	3.65
209.175	19.48
209.561	30.96
209.947	7.79
210.333	-35.57
210.719	-6.26
211.105	-17.38
211.491	29.48
211.876	6.7
212.262	23.43
212.648	24.78
213.034	-0.26
213.419	22.43
213.805	-1.76
214.19	15.31
214.576	25.86
214.961	17.93
215.346	24.6
215.732	9.35
216.117	20.08
216.502	19.95
216.888	21.31
217.273	-9.4
217.658	14.22
218.043	-3.74
218.428	25.05
218.813	36.51
219.198	21.1
219.583	3.14
219.968	25.18
220.353	10.11
220.738	12.32
221.122	1.64
221.507	18.12
221.892	17.72
222.276	-8
222.661	11.65
223.046	-3.5
223.43	5.44
223.815	0.22
224.199	0.53
224.583	2.28
224.968	0.85
225.352	-8.12
225.736	7.28
226.121	14.57
226.505	2.9
226.889	-0.16
227.273	-2.34
227.657	4.81
228.041	2.21
228.425	9.14
228.809	2.47
229.193	3.08
229.577	-0.11
229.961	2.82
230.344	1.63
230.728	1.43
231.112	1.84
231.495	1.36
231.879	4.49
232.263	2.36
232.646	2.76
233.03	3.96
233.413	1.83
233.797	2.45
234.18	2.61
234.563	2.14
234.946	3.71
235.33	0.3
235.713	2.78
236.096	3.02
236.479	2.9
236.862	2.58
237.245	2.95
237.628	1.59
238.011	3.33
238.394	2.9
238.777	1.8
239.16	1.44
239.543	2.76
239.925	0.53
240.308	1.57
240.691	2.83
241.073	2.59
241.456	1.64
241.838	2.45
242.221	3.26
242.603	3.16
242.986	2.79
243.368	1.48
243.75	2.03
244.133	2.94
244.515	2.42
244.897	2.82
245.279	3.03
245.661	2.75
246.043	1.16
246.425	2.06
246.807	2.61
247.189	2.22
247.571	3.23
247.953	2.93
248.335	2.3
248.717	2.26
249.098	2.44
249.48	2.1
249.862	2.35
250.243	2.21
250.625	2.9
251.006	2.51
251.388	1.58
251.769	3.59
252.151	2.74
252.532	2.45
252.913	2.23
253.295	2.42
253.676	2.15
254.057	2.8
254.438	2.43
254.819	2.54
255.2	2.03
255.581	3.57
255.962	2.59
256.343	2.68
256.724	2.2
257.105	2.73
257.486	2.53
257.867	3.47
258.247	2.78
258.628	2.89
259.009	3.45
259.389	2.1
259.77	2.93
260.15	1.77
260.531	2.6
260.911	2.6
261.292	2.38
261.672	2.31
262.052	2.32
262.432	2.32
262.813	2.73
263.193	2.31
263.573	2.01
263.953	1.91
264.333	2.87
264.713	1.83
265.093	2.79
265.473	2.61
265.853	2.39
266.233	1.78
266.612	2.39
266.992	1.68
267.372	1.79
267.752	1.85
268.131	2.36
268.511	1.93
268.89	1.81
269.27	2.58
269.649	2.44
270.029	2.69
270.408	2.03
270.787	1.95
271.167	2.19
271.546	2.13
271.925	2.69
272.304	2.34
272.683	2.38
273.062	2.14
273.441	2.08
273.82	1.87
274.199	2.32
274.578	1.72
274.957	2.43
275.336	2.34
275.715	2.06
276.093	2.03
276.472	2.07
276.851	2.39
277.229	2.25
277.608	2.1
277.986	1.99
278.365	2.39
278.743	1.4
279.122	2.2
279.5	1.95
279.878	2.26
280.257	2.02
280.635	2.56
281.013	2.64
281.391	1.79
281.769	2.11
282.147	2.11
282.525	2.12
282.903	2.5
283.281	1.82
283.659	2.08
284.037	2.19
284.415	1.96
284.792	2.36
285.17	1.54
285.548	2.52
285.925	2.44
286.303	1.96
286.68	1.78
287.058	1.83
287.435	1.82
287.813	2.24
288.19	2.18
288.567	2.06
288.945	1.94
289.322	2.05
289.699	2.18
290.076	1.9
290.453	2.35
290.83	1.88
291.207	1.81
291.584	2.06
291.961	2.24
292.338	2.22
292.715	2.56
293.092	2.01
293.469	2.53
293.845	2.53
294.222	2.31
294.599	2.8
294.975	2.52
295.352	2.41
295.728	2.39
296.105	2.62
296.481	2.44
296.858	2.8
297.234	2.82
297.61	2.32
297.986	2.15
298.363	2.44
298.739	2.23
299.115	2.43
299.491	2.79
299.867	2.53
300.243	2.6
300.619	2.56
300.995	3.23
301.371	2.54
301.746	2.54
302.122	2.53
302.498	2.75
302.874	2.47
303.249	2.84
303.625	3.41
304	2.9
304.376	2.54
304.751	3
305.127	2.77
305.502	2.68
305.878	2.85
306.253	2.63
306.628	2.87
307.003	2.83
307.378	3.1
307.754	2.98
308.129	2.85
308.504	2.5
308.879	3.3
309.254	2.55
309.629	3.15
310.003	2.84
310.378	2.73
310.753	2.78
311.128	2.98
311.502	3.13
311.877	2.88
312.252	3.12
312.626	3.29
313.001	2.89
313.375	2.92
313.75	3.19
314.124	3.33
314.498	2.98
314.873	3.27
315.247	2.92
315.621	3.61
315.995	3.68
316.369	2.9
316.743	3.03
317.117	3.71
317.491	3.94
317.865	3.7
318.239	3.36
318.613	3.3
318.987	2.91
319.361	3.02
319.734	2.82
320.108	3.23
320.482	2.75
320.855	3.41
321.229	3.26
321.602	3.16
321.976	3.55
322.349	3.4
322.723	3.05
323.096	4.11
323.469	4.07
323.843	2.75
324.216	3.37
324.589	3.39
324.962	3.02
325.335	3.2
325.708	3.09
326.081	3.92
326.454	3.73
326.827	3.32
327.2	3.2
327.573	3.17
327.945	3.1
328.318	3.14
328.691	3.7
329.063	3.57
329.436	3.29
329.809	4.24
330.181	3.26
330.553	3.26
330.926	3.47
331.298	3.24
331.671	3.55
332.043	2.97
332.415	3.38
332.787	3.35
333.159	3.24
333.532	3.4
333.904	3.24
334.276	3.9
334.648	3.11
335.02	3.44
335.391	3.83
335.763	3.68
336.135	3.79
336.507	3.82
336.879	3.27
337.25	2.78
337.622	3.4
337.993	3.13
338.365	3.02
338.736	3.45
339.108	3.56
339.479	3.89
339.851	3.25
340.222	3.65
340.593	3.56
340.964	3.09
341.336	3.5
341.707	3.18
342.078	3.66
342.449	3.35
342.82	3.35
343.191	3.4
343.562	3.56
343.933	3.58
344.303	3.01
344.674	3.51
345.045	3.56
345.416	3.78
345.786	3.69
346.157	3.78
346.527	3.32
346.898	3.57
347.268	3.37
347.639	3.1
348.009	3.69
348.38	3.72
348.75	3.64
349.12	3.63
349.49	3.79
349.861	3.33
350.231	3.81
350.601	3.98
350.971	3.31
351.341	3.61
351.711	3.59
352.081	3.34
352.45	3.61
352.82	3.98
353.19	3.77
353.56	3.8
353.929	2.94
354.299	3.62
354.669	3.58
355.038	3.63
355.408	3.48
355.777	3.3
356.147	3.63
356.516	4.03
356.885	3.14
357.254	3.74
357.624	3.68
357.993	3.1
358.362	3.48
358.731	3.49
359.1	3.3
359.469	3.23
359.838	3.84
360.207	3.21
360.576	3.35
360.945	3.54
361.314	3.3
361.682	3.26
362.051	3.2
362.42	3.49
362.788	3.39
363.157	3.57
363.525	3.28
363.894	3.29
364.262	3.42
364.631	3.84
364.999	3.64
365.367	3.71
365.735	3.29
366.104	3.22
366.472	3.91
366.84	3.66
367.208	3.44
367.576	3.88
367.944	3.68
368.312	3.26
368.68	3.4
369.048	3.53
369.416	3.68
369.783	3.47
370.151	3.85
370.519	3.5
370.886	3.74
371.254	3.28
371.621	3.82
371.989	3.92
372.356	3.6
372.724	3.56
373.091	3.58
373.458	3.34
373.826	3.69
374.193	3.75
374.56	3.97
374.927	4.15
375.294	3.91
375.661	3.36
376.028	3.65
376.395	3.86
376.762	3.46
377.129	3.93
377.496	3.8
377.863	3.34
378.229	3.98
378.596	3.58
378.963	3.66
379.329	3.4
379.696	3.75
380.062	3.75
380.429	3.8
380.795	3.57
381.161	3.63
381.528	3.62
381.894	3.55
382.26	3.65
382.626	3.65
382.993	3.77
383.359	3.44
383.725	3.53
384.091	3.62
384.457	3.7
384.823	3.76
385.188	3.88
385.554	3.39
385.92	3.71
386.286	3.63
386.651	3.77
387.017	3.71
387.383	3.65
387.748	3.41
388.114	3.7
388.479	3.47
388.845	3.57
389.21	3.46
389.575	3.55
389.94	3.72
390.306	3.82
390.671	3.47
391.036	3.56
391.401	3.55
391.766	3.59
392.131	3.81
392.496	3.88
392.861	3.7
393.226	3.57
393.591	3.52
393.956	3.75
394.32	3.64
394.685	3.62
395.05	3.58
395.414	3.48
395.779	3.56
396.143	3.9
396.508	3.42
396.872	3.85
397.236	3.56
397.601	3.65
397.965	3.83
398.329	3.55
398.694	3.88
399.058	3.51
399.422	3.68
399.786	3.61
400.15	3.74
400.514	3.48
400.878	3.66
401.242	3.47
401.605	3.54
401.969	3.77
402.333	3.71
402.697	3.65
403.06	3.53
403.424	3.74
403.787	3.57
404.151	3.77
404.514	3.72
404.878	3.74
405.241	3.76
405.604	3.72
405.968	3.65
406.331	3.65
406.694	3.77
407.057	3.49
407.42	3.86
407.783	3.5
408.146	3.56
408.509	3.5
408.872	3.53
409.235	3.71
409.598	3.53
409.961	3.5
410.323	3.87
410.686	3.66
411.049	3.33
411.411	3.6
411.774	3.67
412.136	3.4
412.499	3.32
412.861	3.42
413.223	3.36
413.586	3.63
413.948	3.72
414.31	3.6
414.672	3.67
415.035	3.81
415.397	3.78
415.759	3.85
416.121	3.51
416.483	3.53
416.845	3.62
417.206	3.69
417.568	3.72
417.93	3.64
418.292	3.7
418.653	3.56
419.015	3.71
419.377	3.69
419.738	3.43
420.1	3.66
420.461	3.62
420.822	3.63
421.184	3.65
421.545	3.4
421.906	3.37
422.267	3.49
422.629	3.54
422.99	3.49
423.351	3.45
423.712	3.63
424.073	3.5
424.434	3.65
424.795	3.56
425.155	3.6
425.516	3.58
425.877	3.63
426.238	3.68
426.598	3.68
426.959	3.61
427.32	3.73
427.68	3.77
428.041	3.67
428.401	3.73
428.761	3.87
429.122	3.8
429.482	3.79
429.842	3.88
430.202	3.72
430.563	3.79
430.923	3.72
431.283	3.69
431.643	3.86
432.003	3.63
432.363	3.87
432.722	3.92
433.082	3.84
433.442	3.83
433.802	3.85
434.161	3.69
434.521	3.74
434.881	3.74
435.24	3.84
435.6	3.87
435.959	3.84
436.319	3.86
436.678	3.86
437.037	3.91
437.396	4.05
437.756	3.8
438.115	3.75
438.474	3.86
438.833	3.82
439.192	3.82
439.551	3.93
439.91	3.86
440.269	3.85
440.628	3.86
440.987	3.9
441.345	3.97
441.704	3.85
442.063	3.96
442.421	3.82
442.78	3.84
443.138	3.85
443.497	3.95
443.855	4.03
444.214	3.98
444.572	3.96
444.93	3.93
445.288	4
445.647	3.97
446.005	3.9
446.363	4.04
446.721	3.86
447.079	3.87
447.437	3.96
447.795	3.82
448.153	3.77
448.51	3.88
448.868	3.87
449.226	3.91
449.584	3.88
449.941	3.85
450.299	3.94
450.656	3.98
451.014	4.1
451.371	4.11
451.729	3.96
452.086	4.04
452.443	4.03
452.801	4.06
453.158	4.12
453.515	3.83
453.872	4.17
454.229	4.08
454.586	4.09
454.943	4.05
455.3	3.95
455.657	4.2
456.014	3.97
456.371	4.09
456.727	4.08
457.084	4.07
457.441	4.14
457.797	3.94
458.154	3.8
458.51	4.05
458.867	4.07
459.223	4
459.58	4.11
459.936	4.14
460.292	4.11
460.648	3.94
461.005	4.03
461.361	3.98
461.717	3.95
462.073	4.11
462.429	4.17
462.785	4.17
463.141	4.06
463.496	4.23
463.852	4.08
464.208	4.29
464.564	4.13
464.919	4.29
465.275	4.22
465.631	4.38
465.986	4.29
466.342	4.24
466.697	4.22
467.052	4.25
467.408	4.11
467.763	4.12
468.118	4.24
468.473	4.21
468.829	4.22
469.184	4.26
469.539	4.26
469.894	4.33
470.249	4.29
470.603	4.27
470.958	4.32
471.313	4.29
471.668	4.32
472.023	4.32
472.377	4.3
472.732	4.35
473.086	4.29
473.441	4.52
473.795	4.18
474.15	4.26
474.504	4.34
474.859	4.32
475.213	4.34
475.567	4.29
475.921	4.37
476.275	4.27
476.63	4.42
476.984	4.34
477.338	4.25
477.692	4.36
478.045	4.36
478.399	4.25
478.753	4.41
479.107	4.39
479.461	4.37
479.814	4.22
480.168	4.31
480.521	4.24
480.875	4.4
481.228	4.33
481.582	4.4
481.935	4.38
482.289	4.37
482.642	4.35
482.995	4.25
483.348	4.23
483.701	4.3
484.055	4.22
484.408	4.12
484.761	4.04
485.114	3.99
485.466	3.93
485.819	3.99
486.172	4.13
486.525	4.23
486.878	4.28
487.23	4.27
487.583	4.27
487.936	4.3
488.288	4.22
488.641	4.11
488.993	4.12
489.345	4.11
489.698	4.12
490.05	4.22
490.402	4.27
490.754	4.34
491.107	4.36
491.459	4.37
491.811	4.31
492.163	4.42
492.515	4.25
492.866	4.23
493.218	4.14
493.57	4.14
493.922	4.25
494.274	4.38
494.625	4.44
494.977	4.5
495.328	4.55
495.68	4.5
496.031	4.58
496.383	4.51
496.734	4.47
497.086	4.54
497.437	4.52
497.788	4.48
498.139	4.32
498.49	4.38
498.842	4.46
499.193	4.48
499.544	4.55
499.894	4.54
500.245	4.44
500.596	4.47
500.947	4.55
501.298	4.72
501.648	4.44
501.999	4.65
502.35	4.59
502.7	4.65
503.051	4.65
503.401	4.66
503.752	4.67
504.102	4.75
504.452	4.66
504.803	4.7
505.153	4.7
505.503	4.62
505.853	4.57
506.203	4.51
506.553	4.7
506.903	4.77
507.253	4.61
507.603	4.8
507.953	4.69
508.303	4.79
508.652	4.63
509.002	4.75
509.352	4.72
509.701	4.68
510.051	4.73
510.4	4.61
510.75	4.67
511.099	4.66
511.449	4.72
511.798	4.69
512.147	4.66
512.496	4.77
512.846	4.71
513.195	4.7
513.544	4.72
513.893	4.7
514.242	4.68
514.591	4.76
514.939	4.75
515.288	4.84
515.637	4.74
515.986	4.84
516.334	4.84
516.683	4.7
517.032	4.8
517.38	4.77
517.729	4.97
518.077	4.84
518.426	4.8
518.774	4.82
519.122	4.71
519.47	4.8
519.819	4.8
520.167	4.78
520.515	4.68
520.863	4.78
521.211	4.9
521.559	4.93
521.907	4.88
522.255	4.94
522.602	4.92
522.95	5.01
523.298	5.01
523.645	4.95
523.993	5.02
524.341	4.99
524.688	4.93
525.036	4.95
525.383	4.84
525.73	4.99
526.078	5
526.425	4.9
526.772	4.93
527.119	4.79
527.466	4.75
527.814	4.87
528.161	4.85
528.508	4.93
528.854	4.89
529.201	4.86
529.548	4.66
529.895	4.72
530.242	4.64
530.588	4.69
530.935	4.79
531.282	4.85
531.628	4.96
531.975	5
532.321	5.03
532.667	5.01
533.014	5.06
533.36	5.01
533.706	5.05
534.052	5.02
534.399	4.98
534.745	4.86
535.091	4.86
535.437	4.97
535.783	5.02
536.129	5.12
536.474	5.11
536.82	5.11
537.166	5.16
537.512	5.13
537.857	5.15
538.203	5.1
538.549	5.05
538.894	5.17
539.239	5.26
539.585	5.29
539.93	5.31
540.276	5.26
540.621	5.32
540.966	5.3
541.311	5.26
541.656	5.26
542.001	5.25
542.346	5.18
542.691	4.98
543.036	5.05
543.381	5.05
543.726	5.15
544.071	5.26
544.415	5.28
544.76	5.32
545.105	5.32
545.449	5.41
545.794	5.48
546.138	5.4
546.483	5.58
546.827	5.49
547.171	5.49
547.516	5.43
547.86	5.45
548.204	5.42
548.548	5.43
548.892	5.5
549.236	5.48
549.58	5.52
549.924	5.69
550.268	5.77
550.612	5.79
550.956	5.6
551.3	5.75
551.643	5.77
551.987	5.63
552.33	5.89
552.674	5.74
553.017	5.64
553.361	5.71
553.704	5.95
554.048	5.71
554.391	5.78
554.734	5.7
555.077	5.79
555.42	5.99
555.764	5.78
556.107	5.91
556.45	5.82
556.793	5.8
557.135	5.97
557.478	6.09
557.821	6.03
558.164	6.16
558.507	6.02
558.849	6.03
559.192	5.93
559.534	6.04
559.877	6.15
560.219	6.13
560.562	6.15
560.904	6.05
561.246	6.06
561.589	6.1
561.931	6.25
562.273	6.14
562.615	6.02
562.957	6.09
563.299	6.19
563.641	6.15
563.983	6.34
564.325	6.31
564.667	6.5
565.008	6.13
565.35	6.23
565.692	6.45
566.033	6.04
566.375	6.07
566.716	6.42
567.058	6.27
567.399	6.28
567.741	6.27
568.082	6.37
568.423	6.5
568.764	6.52
569.105	6.41
569.447	6.51
569.788	6.51
570.129	6.43
570.47	6.57
570.811	6.61
571.151	6.57
571.492	6.77
571.833	6.56
572.174	6.46
572.514	6.6
572.855	6.45
573.195	6.64
573.536	6.65
573.876	6.65
574.217	6.62
574.557	6.64
574.898	6.8
575.238	7.01
575.578	6.79
575.918	6.76
576.258	6.92
576.598	6.69
576.938	6.89
577.278	6.9
577.618	7.01
577.958	6.87
578.298	6.96
578.638	7.15
578.977	7.08
579.317	6.84
579.657	7.08
579.996	6.96
580.336	7.15
580.675	7.04
581.014	7.14
581.354	7.07
581.693	7.45
582.032	7.26
582.372	7.13
582.711	7.13
583.05	7.37
583.389	7.12
583.728	7.3
584.067	7.5
584.406	7.34
584.745	7.27
585.083	7.12
585.422	7.61
585.761	7.33
586.1	7.35
586.438	7.41
586.777	7.57
587.115	7.54
587.454	7.51
587.792	7.34
588.13	7.53
588.469	7.55
588.807	7.68
589.145	7.6
589.483	7.82
589.821	7.64
590.159	7.87
590.497	7.39
590.835	7.62
591.173	7.63
591.511	7.87
591.849	7.83
592.187	7.57
592.524	7.66
592.862	7.82
593.2	7.7
593.537	7.72
593.875	8.12
594.212	7.69
594.55	7.9
594.887	8.15
595.224	8.13
595.561	7.89
595.899	7.65
596.236	8.09
596.573	8.07
596.91	7.97
597.247	7.83
597.584	8.04
597.921	7.86
598.258	7.81
598.594	7.95
598.931	7.91
599.268	7.97
599.604	8.04
599.941	8.13
600.277	8.19
600.614	8.4
600.95	8.4
601.287	8.19
601.623	8.58
601.959	8.13
602.296	8.49
602.632	8.41
602.968	8.68
603.304	8.41
603.64	8.55
603.976	8.34
604.312	8.33
604.648	8.39
604.984	8.57
605.319	8.52
605.655	8.38
605.991	8.35
606.326	8.45
606.662	8.38
606.998	8.41
607.333	8.52
607.668	8.77
608.004	8.84
608.339	8.93
608.674	8.65
609.01	8.92
609.345	8.68
609.68	9.01
610.015	8.91
610.35	8.77
610.685	8.57
611.02	8.7
611.355	8.61
611.689	8.67
612.024	8.88
612.359	8.98
612.694	9.15
613.028	9.31
613.363	9.13
613.697	9.15
614.032	9.28
614.366	9.24
614.7	9.21
615.035	9.41
615.369	9.36
615.703	9.27
616.037	9.24
616.371	9.27
616.705	9.51
617.039	9.51
617.373	9.64
617.707	9.19
618.041	9.46
618.375	9.23
618.709	9.72
619.042	9.39
619.376	10.01
619.71	9.58
620.043	9.84
620.377	9.83
620.71	9.55
621.043	9.84
621.377	9.74
621.71	9.43
622.043	9.82
622.376	9.66
622.709	9.85
623.043	9.65
623.376	9.6
623.709	9.9
624.041	10.06
624.374	9.95
624.707	9.76
625.04	10.38
625.373	9.99
625.705	9.78
626.038	9.75
626.37	10.24
626.703	10.27
627.035	10.19
627.368	10.28
627.7	9.98
628.032	9.82
628.365	9.92
628.697	9.94
629.029	9.85
629.361	10.17
629.693	10.49
630.025	9.94
630.357	10.36
630.689	10.31
631.021	10.17
631.353	10.17
631.684	10.35
632.016	10.55
632.348	10.15
632.679	10.19
633.011	10.49
633.342	10.25
633.674	10.72
634.005	10.37
634.336	10.32
634.668	11.01
634.999	10.75
635.33	10.56
635.661	10.84
635.992	10.7
636.323	10.7
636.654	10.76
636.985	10.43
637.316	11.28
637.647	10.73
637.977	11.11
638.308	10.47
638.639	10.76
638.969	11.07
639.3	10.89
639.63	10.56
639.961	10.85
640.291	10.81
640.622	11.15
640.952	11.06
641.282	11.04
641.612	11.35
641.943	11.13
642.273	11.2
642.603	10.96
642.933	10.96
643.263	11.12
643.592	11.17
643.922	10.9
644.252	11.64
644.582	11.49
644.911	11.69
645.241	11.44
645.571	11.3
645.9	11.38
646.23	11.55
646.559	11.24
646.888	11.9
647.218	11.88
647.547	11.56
647.876	11.31
648.205	11.62
648.534	11.83
648.863	12.08
649.192	11.65
649.521	11.48
649.85	11.83
650.179	11.84
650.508	11.48
650.837	11.86
651.165	11.23
651.494	11.71
651.822	12.09
652.151	11.8
652.479	12.1
652.808	12.11
653.136	11.77
653.465	11.97
653.793	11.9
654.121	11.91
654.449	12.49
654.777	12.09
655.105	12.4
655.433	11.88
655.761	12.39
656.089	12.47
656.417	12.11
656.745	12.14
657.073	12.09
657.4	12.47
657.728	12.34
658.056	12.48
658.383	12.55
658.711	12.68
659.038	11.96
659.365	12.47
659.693	12.2
660.02	12.4
660.347	12.42
660.674	12.43
661.001	12.15
661.329	12.28
661.656	12.25
661.982	12.84
662.309	12.89
662.636	12.62
662.963	12.6
663.29	12.58
663.616	12.3
663.943	12.76
664.27	12.61
664.596	12.95
664.923	12.77
665.249	12.99
665.576	12.81
665.902	12.96
666.228	13.19
666.554	13.16
666.881	12.9
667.207	13.37
667.533	12.82
667.859	12.67
668.185	13.69
668.511	12.72
668.837	12.73
669.162	13.19
669.488	13.69
669.814	13.41
670.139	12.99
670.465	13.69
670.791	13
671.116	13.21
671.442	13.35
671.767	13.45
672.092	13.22
672.418	13.22
672.743	13.44
673.068	13.83
673.393	14.07
673.718	13.28
674.043	13.81
674.368	14.23
674.693	13.56
675.018	13.91
675.343	14.3
675.667	14.15
675.992	13.2
676.317	14.19
676.641	13.59
676.966	13.71
677.29	13.13
677.615	13.68
677.939	14.39
678.264	13.39
678.588	14.09
678.912	13.74
679.236	13.86
679.56	13.58
679.885	13.88
680.209	13.79
680.532	14.14
680.856	13.72
681.18	14.16
681.504	14.09
681.828	14.15
682.152	13.41
682.475	13.69
682.799	13.67
683.122	14.29
683.446	14.25
683.769	14.51
684.093	14.54
684.416	14.88
684.739	14.05
685.062	14.51
685.386	14.32
685.709	14.91
686.032	14.51
686.355	14.64
686.678	14.34
687.001	15.21
687.324	14.87
687.646	14.29
687.969	14.19
688.292	15.1
688.614	14.41
688.937	15.2
689.26	14.57
689.582	15.04
689.904	14.73
690.227	14.71
690.549	14.35
690.871	14.78
691.194	15.25
691.516	14.89
691.838	14.27
692.16	15.27
692.482	15.06
692.804	15.68
693.126	15.57
693.448	14.75
693.769	15.7
694.091	14.41
694.413	15.66
694.735	15
695.056	15.64
695.378	15.16
695.699	14.93
696.021	14.6
696.342	15.54
696.663	15.48
696.984	15.56
697.306	16.01
697.627	15.58
697.948	16.16
698.269	15.61
698.59	15.59
698.911	15.25
699.232	15.61
699.553	15.66
699.873	14.69
700.194	15.47
700.515	15.48
700.835	15.15
701.156	15.47
701.477	16.07
701.797	15.76
702.117	16.26
702.438	15.69
702.758	16.78
703.078	16.18
703.398	16.76
703.719	16.43
704.039	16.01
704.359	15.66
704.679	15.73
704.999	15.17
705.319	15.85
705.638	16.53
705.958	15.81
706.278	16.1
706.597	16.42
706.917	17.25
707.237	15.56
707.556	16.27
707.876	16.97
708.195	16.51
708.514	15.12
708.834	16.72
709.153	15.69
709.472	16.77
709.791	16.72
710.11	16.84
710.429	16.24
710.748	17.24
711.067	16.6
711.386	16.87
711.705	16.28
712.023	16.77
712.342	16.89
712.661	16.89
712.979	16.12
713.298	16.82
713.616	17.4
713.935	17.42
714.253	17.15
714.572	16.6
714.89	17.09
715.208	17.12
715.526	17.17
715.844	18.24
716.162	16.53
716.48	17.12
716.798	16.51
717.116	17.7
717.434	17.01
717.752	16.6
718.069	17.64
718.387	16.73
718.705	17.34
719.022	17.08
719.34	17.4
719.657	17.65
719.975	18.53
720.292	17.33
720.609	16.73
720.927	17.09
721.244	18.07
721.561	17.31
721.878	18.11
722.195	17.79
722.512	17.42
722.829	17.95
723.146	16.79
723.463	17.64
723.779	18.18
724.096	17.17
724.413	16.83
724.729	16.16
725.046	17.85
725.362	17.89
725.679	17.87
725.995	17.61
726.311	17.74
726.628	18.45
726.944	17.96
727.26	17.34
727.576	17.68
727.892	18.81
728.208	18.61
728.524	17.32
728.84	18.56
729.156	19.15
729.472	18.86
729.787	18.59
730.103	18.78
730.419	17.68
730.734	18.94
731.05	18.93
731.365	18.6
731.681	18.3
731.996	18.23
732.311	18.47
732.626	19.59
732.942	18.47
733.257	19.42
733.572	19.08
733.887	18.72
734.202	20
734.517	18.13
734.832	18.63
735.146	19.18
735.461	18.35
735.776	18.15
736.091	19.77
736.405	19.11
736.72	18.39
737.034	20.62
737.349	18.64
737.663	19.93
737.977	19.18
738.292	19.08
738.606	19.11
738.92	19.58
739.234	18.15
739.548	18.7
739.862	19.15
740.176	20.07
740.49	20.86
740.804	20.8
741.117	19.49
741.431	19.18
741.745	18.88
742.058	19.34
742.372	19.67
742.685	19.29
742.999	21.14
743.312	19.73
743.626	19.95
743.939	19.71
744.252	19.51
744.565	19.37
744.878	20.19
745.191	19.96
745.505	18.99
745.817	19.74
746.13	20.45
746.443	18.71
746.756	18.97
747.069	20.24
747.381	19.03
747.694	18.46
748.007	18.48
748.319	18.96
748.632	19.58
748.944	21.02
749.256	20.55
749.569	19.25
749.881	18.53
750.193	20.01
750.505	19.82
750.817	19.46
751.129	20.92
751.441	20.36
751.753	20.93
752.065	18.98
752.377	20.16
752.689	21.45
753	19.62
753.312	22.01
753.624	19.99
753.935	20.09
754.247	19.75
754.558	20.38
754.869	20.68
755.181	19.73
755.492	20.8
755.803	20.64
756.114	19.17
756.425	21.7
756.736	19.68
757.047	19.48
757.358	21.35
757.669	21.26
757.98	21.44
758.291	21.54
758.601	19.98
758.912	19.7
759.223	20.86
759.533	19.27
759.844	21.41
760.154	20.53
760.464	21.75
760.775	21.95
761.085	20.79
761.395	19.81
761.705	21.3
762.016	21.46
762.326	21.47
762.636	21.46
762.945	22.13
763.255	20.95
763.565	21.01
763.875	20.48
764.185	20.89
764.494	20.93
764.804	22.3
765.113	22.44
765.423	20.94
765.732	20.62
766.042	21.43
766.351	22.1
766.66	21.81
766.97	23.16
767.279	22.74
767.588	19.73
767.897	21.48
768.206	21.15
768.515	19.97
768.824	22.6
769.133	21.62
769.441	21.13
769.75	21.24
770.059	22.52
770.367	21.12
770.676	21.14
770.984	23
771.293	20.85
771.601	22.94
771.91	19.51
772.218	24.68
772.526	20.7
772.834	22.6
773.142	25.06
773.45	21.99
773.758	18.47
774.066	22.14
774.374	22.86
774.682	18.73
774.99	19.97
775.298	24.1
775.605	22.19
775.913	23.03
776.22	19.98
776.528	22.01
776.835	21.06
777.143	21.64
777.45	21.32
777.757	21.41
778.065	21.76
778.372	20.58
778.679	24.19
778.986	23.68
779.293	24.06
779.6	23.07
779.907	24
780.214	23.76
780.52	20.69
780.827	22.63
781.134	21.61
781.44	26.91
781.747	23.05
782.053	22.12
782.36	25.62
782.666	23.1
782.973	23.23
783.279	22.29
783.585	22.62
783.891	23.03
784.197	21.68
784.503	23.39
784.809	25.24
785.115	23.93
785.421	22.23
785.727	27.03
786.033	21.94
786.339	24.3
786.644	23.78
786.95	26.15
787.255	22.48
787.561	22.15
787.866	21.97
788.172	21.97
788.477	24.19
788.782	24.1
789.088	21.62
789.393	23.4
789.698	23.75
790.003	23.68
790.308	23.25
790.613	21.69
790.918	20.98
791.223	24.86
791.527	25.34
791.832	26.56
792.137	24.94
792.441	20.78
792.746	21.25
793.05	22.95
793.355	24.28
793.659	24.25
793.963	23.76
794.268	26.51
794.572	24.73
794.876	20.7
795.18	25
795.484	26.13
795.788	25.03
796.092	26.14
796.396	21.89
796.7	22.96
797.004	22.49
797.307	21.41
797.611	23.59
797.915	20.94
798.218	25.71
798.522	23.06
798.825	24.69
799.128	25.42
799.432	24.17
799.735	27.44
800.038	25.62
800.341	22.09
800.644	21.64
800.947	26.27
801.25	23.38
801.553	25.99
801.856	22.34
802.159	21.19
802.462	25
802.764	24.09
803.067	24.66
803.37	23.21
803.672	24.61
803.975	26.39
804.277	23.28
804.579	24.5
804.882	26.16
805.184	26.13
805.486	24.81
805.788	19.25
806.09	19.77
806.392	23.11
806.694	28.13
806.996	28.52
807.298	24.68
807.6	23.79
807.902	23.3
808.203	19.71
808.505	23.68
808.807	31.31
809.108	24.23
809.409	22.41
809.711	25.36
810.012	24.73
810.313	24.94
810.615	21.91
810.916	28.51
811.217	23.37
811.518	25.33
811.819	27.8
812.12	25.1
812.421	29.25
812.722	31.14
813.023	23.28
813.323	29.44
813.624	29.66
813.925	25.2
814.225	27.07
814.526	21.02
814.826	24.65
815.126	29.08
815.427	29.95
815.727	28.83
816.027	27.25
816.327	27.75
816.627	28.4
816.927	29.54
817.227	26.12
817.527	19.71
817.827	28.89
818.127	27.47
818.427	23.08
818.727	28.35
819.026	28.91
819.326	27.12
819.625	35.08
819.925	32.05
820.224	28.66
820.524	27.02
820.823	27.23
821.122	30.36
821.421	29.78
821.72	30.93
822.019	22.35
822.318	25.38
822.617	29.74
822.916	25.02
823.215	26.92
823.514	27.53
823.813	27.26
824.111	26.96
824.41	27.49
824.709	27.1
825.007	27.15
825.306	26.68
825.604	26.27
825.902	27.38
826.201	27.53
826.499	27.56
826.797	25.67
827.095	27.41
827.393	26.79
827.691	29.01
827.989	26.17
828.287	26.6
828.585	26.93
828.882	25.99
829.18	25.53
829.478	27.2
829.775	27.44
830.073	28.18
830.37	28.6
830.668	27.86
830.965	26.88
831.263	28.88
831.56	26.87
831.857	29.97
832.154	28.82
832.451	29.99
832.748	29.2
833.045	28.15
833.342	26.77
833.639	24.63
833.936	31.83
834.232	32.08
834.529	22.74
834.826	29.28
835.122	27.2
835.419	28.12
835.715	27.83
836.012	31.27
836.308	30.6
836.604	28.32
836.901	30.1
837.197	28.07
837.493	25.25
837.789	28.52
838.085	25.48
838.381	28.56
838.677	26.3
838.972	29.42
839.268	30.69
839.564	28.65
839.86	33.72
840.155	26.33
840.451	33.84
840.746	31.89
841.042	31.74
841.337	26.94
841.632	27.01
841.928	34.49
842.223	23.72
842.518	31.95
842.813	32
843.108	32.45
843.403	27.24
843.698	27.77
843.993	27.87
844.287	24.47
844.582	24.62
844.877	22.35
845.171	23.55
845.466	27.66
845.761	33.33
846.055	35.22
846.349	18.17
846.644	23.82
846.938	23.45
847.232	30.07
847.526	27.46
847.82	17.53
848.114	37.1
848.408	34.84
848.702	30.35
848.996	18.67
849.29	17.54
849.584	12.72
849.877	14.46
850.171	40.3
850.465	31.8
850.758	26.18
851.052	34.01
851.345	25.59
851.638	21.09
851.932	33.7
852.225	21.83
852.518	40.05
852.811	24.36
853.104	5.05
853.397	36.57
853.69	30.06
853.983	17.54
854.276	22.79
854.569	33.32
854.861	41.6
855.154	30.53
855.447	48.16
855.739	33.35
856.032	22.88
856.324	38.71
856.616	23.85
856.909	23.4
857.201	20.95
857.493	7.66
857.785	36.6
858.077	17.99
858.369	20.99
858.661	35.2
858.953	45.65
859.245	34.74
859.537	20.15
859.829	13.79
860.12	30.89
860.412	30.46
860.703	32.48
860.995	20.33
861.286	24.58
861.578	8.33
861.869	38.51
862.16	36.19
862.452	26.42
862.743	14.03
863.034	56.95
863.325	36.8
863.616	28.8
863.907	43.7
864.198	3.78
864.488	30.38
864.779	16.06
865.07	41.62
865.36	31.23
865.651	27.16
865.941	37.9
866.232	47.16
866.522	36.57
866.813	27.06
867.103	45.85
867.393	28
867.683	35.84
867.973	42.1
868.263	46.85
868.553	23.96
868.843	18.95
869.133	45.59
869.423	35.24
869.713	17.43
870.002	17.86
870.292	43.85
870.582	0.28
870.871	5.28
871.161	11.99
871.45	18.25
871.739	9.13
872.029	46.28
872.318	49.71
872.607	45.57
872.896	43.91
873.185	21.53
873.474	53.48
873.763	15.31
874.052	22.12
874.341	26.62
874.63	37.43
874.918	50.17
875.207	21.63
875.496	20.13
875.784	32.14
876.073	31.56
876.361	20
876.649	51.36
876.938	28.06
877.226	32.45
877.514	14.46
877.802	37.46
878.09	40.06
878.378	29.57
878.666	19.63
878.954	17.83
879.242	33.4
879.53	12.38
879.817	8.7
880.105	26.8
880.392	37.18
880.68	9.7
880.967	30.57
881.255	42.86
881.542	8.53
881.83	55.63
882.117	40.16
882.404	14.53
882.691	46
882.978	51.62
883.265	35.85
883.552	32.46
883.839	41.05
884.126	32.93
884.413	33.31
884.699	35.7
884.986	37.45
885.273	29.27
885.559	29.27
885.846	29.27
