Data from 1832-1_forehead_Reflection__0__21.txt Node

Date: Fri Sep 30 17:55:11 CDT 2022
User: ToomeyLab
Spectrometer: FLMS14357
Trigger mode: 0
Integration Time (sec): 1.000000E-2
Scans to average: 100
Electric dark correction enabled: true
Nonlinearity correction enabled: false
Boxcar width: 0
XAxis mode: Wavelengths
Number of Pixels in Spectrum: 2048
>>>>>Begin Spectral Data<<<<<
189.047	121.02
189.435	121.02
189.823	121.02
190.211	108.33
190.599	30.79
190.987	92.73
191.375	561700
191.763	467.55
192.151	61.92
192.538	-107.88
192.926	-933.49
193.314	46.27
193.702	46.88
194.089	-264.77
194.477	60.01
194.864	-49.57
195.252	1.27
195.639	309.21
196.027	15.74
196.414	-84.26
196.801	60.61
197.189	265.07
197.576	-11.09
197.963	-149.72
198.351	-19.05
198.738	48.39
199.125	40.75
199.512	44.77
199.899	38.38
200.286	-5.51
200.673	56.74
201.06	37.4
201.447	7.43
201.833	41.87
202.22	75.75
202.607	57.99
202.994	58.52
203.38	37.17
203.767	33.66
204.154	57.98
204.54	54.58
204.927	35.6
205.313	23.62
205.699	24.39
206.086	-14.69
206.472	-8.02
206.858	32.63
207.245	56.58
207.631	23.45
208.017	-19.41
208.403	28.95
208.789	44.31
209.175	40.32
209.561	45.93
209.947	6.6
210.333	16.43
210.719	20.9
211.105	8.53
211.491	32.18
211.876	13.84
212.262	26.37
212.648	35.99
213.034	5.56
213.419	21.18
213.805	4.69
214.19	31.94
214.576	38.63
214.961	25.34
215.346	10.77
215.732	32.03
216.117	4.19
216.502	26.33
216.888	17.8
217.273	-9.98
217.658	26.66
218.043	18.94
218.428	30.28
218.813	29.47
219.198	21.31
219.583	29.34
219.968	25.46
220.353	2.84
220.738	34.16
221.122	18.99
221.507	22
221.892	7.08
222.276	-6.92
222.661	16.82
223.046	14.08
223.43	5.25
223.815	9.17
224.199	16.45
224.583	2.35
224.968	7.43
225.352	8.07
225.736	0.71
226.121	8.23
226.505	7.15
226.889	7.95
227.273	4.51
227.657	6.99
228.041	3.71
228.425	10.55
228.809	6.78
229.193	7.05
229.577	4.14
229.961	4.84
230.344	4.42
230.728	3.9
231.112	3.88
231.495	3.76
231.879	7.15
232.263	3.46
232.646	4.05
233.03	5.37
233.413	3.91
233.797	4.77
234.18	4.88
234.563	5.06
234.946	7.01
235.33	3.63
235.713	5.52
236.096	5.74
236.479	5.31
236.862	5.19
237.245	5.01
237.628	4.61
238.011	5.86
238.394	5.35
238.777	4.6
239.16	3.72
239.543	3.65
239.925	5.24
240.308	4.37
240.691	5.82
241.073	5.56
241.456	4.87
241.838	4.96
242.221	4.91
242.603	4.51
242.986	5.22
243.368	4.39
243.75	4.63
244.133	4.8
244.515	4.51
244.897	4.69
245.279	5.4
245.661	4.49
246.043	4.35
246.425	4.42
246.807	5.2
247.189	4.72
247.571	4.7
247.953	4.75
248.335	4.42
248.717	4.37
249.098	4.4
249.48	4.3
249.862	4.32
250.243	4.43
250.625	4.55
251.006	4.79
251.388	4.2
251.769	5.41
252.151	5.26
252.532	4.84
252.913	4.61
253.295	4.93
253.676	4.7
254.057	4.76
254.438	4.14
254.819	5.19
255.2	4.48
255.581	5.36
255.962	4.7
256.343	4.83
256.724	5.52
257.105	5.53
257.486	5.13
257.867	5.89
258.247	4.41
258.628	4.35
259.009	5.55
259.389	3.89
259.77	5.27
260.15	4.6
260.531	4.86
260.911	4.64
261.292	4.58
261.672	4.35
262.052	4.24
262.432	4.46
262.813	5.04
263.193	4.47
263.573	4.45
263.953	4.06
264.333	4.89
264.713	4.2
265.093	4.71
265.473	4.4
265.853	4.69
266.233	4.19
266.612	4.62
266.992	4.38
267.372	4.37
267.752	4.52
268.131	4.34
268.511	4.12
268.89	3.97
269.27	4.58
269.649	4.25
270.029	4.41
270.408	4.47
270.787	4.31
271.167	4.58
271.546	4.88
271.925	5.04
272.304	4.29
272.683	4.44
273.062	4.64
273.441	4.45
273.82	3.88
274.199	4.56
274.578	4.32
274.957	4.29
275.336	4.38
275.715	4.25
276.093	4.68
276.472	4.6
276.851	4.56
277.229	4.54
277.608	4.6
277.986	4.44
278.365	4.52
278.743	4.67
279.122	4.46
279.5	4.34
279.878	4.61
280.257	5.06
280.635	4.66
281.013	5.02
281.391	4.63
281.769	4.94
282.147	4.51
282.525	4.52
282.903	4.16
283.281	4.04
283.659	4.4
284.037	4.44
284.415	4.3
284.792	4.85
285.17	4.48
285.548	4.24
285.925	4.57
286.303	4.34
286.68	4.3
287.058	4.33
287.435	4.41
287.813	4.36
288.19	4.59
288.567	4.58
288.945	4.02
289.322	4.01
289.699	4.6
290.076	4.26
290.453	4.61
290.83	4.63
291.207	4.68
291.584	4.57
291.961	4.84
292.338	4.65
292.715	5.06
293.092	4.55
293.469	4.79
293.845	5.21
294.222	4.68
294.599	5.58
294.975	5.01
295.352	4.84
295.728	4.98
296.105	4.97
296.481	5.37
296.858	5.38
297.234	4.84
297.61	4.91
297.986	4.86
298.363	5.24
298.739	4.94
299.115	4.9
299.491	5.02
299.867	5.08
300.243	5.12
300.619	5.54
300.995	5.64
301.371	5.48
301.746	5.17
302.122	5.97
302.498	5.55
302.874	5.6
303.249	5.86
303.625	5.86
304	6.02
304.376	5.9
304.751	6.01
305.127	6.18
305.502	5.97
305.878	5.76
306.253	5.67
306.628	5.89
307.003	5.89
307.378	6.22
307.754	5.94
308.129	6.58
308.504	5.96
308.879	6.71
309.254	6.07
309.629	6.26
310.003	6.41
310.378	6.56
310.753	6.75
311.128	6.44
311.502	6.67
311.877	6.92
312.252	7
312.626	6.82
313.001	6.72
313.375	6.78
313.75	7.05
314.124	7.12
314.498	6.84
314.873	7.07
315.247	6.97
315.621	7.59
315.995	7.94
316.369	7.26
316.743	7.57
317.117	7.81
317.491	8.36
317.865	8.2
318.239	8.27
318.613	7.71
318.987	7.69
319.361	7.91
319.734	7.39
320.108	8.28
320.482	7.44
320.855	8.02
321.229	8.01
321.602	7.87
321.976	7.95
322.349	7.91
322.723	8.15
323.096	8.7
323.469	8.32
323.843	7.98
324.216	8.75
324.589	8.86
324.962	8.44
325.335	8.92
325.708	8.85
326.081	9.32
326.454	8.83
326.827	8.79
327.2	8.44
327.573	8.85
327.945	8.67
328.318	8.93
328.691	8.76
329.063	8.74
329.436	8.83
329.809	9.08
330.181	9
330.553	9.23
330.926	9.08
331.298	9.09
331.671	9.26
332.043	9.64
332.415	9.39
332.787	8.99
333.159	9.69
333.532	9.58
333.904	9.2
334.276	9.39
334.648	9.25
335.02	9.69
335.391	9.78
335.763	9.72
336.135	9.85
336.507	9.98
336.879	9.85
337.25	9.4
337.622	9.7
337.993	9.76
338.365	10
338.736	9.88
339.108	10.19
339.479	10.43
339.851	9.54
340.222	10.43
340.593	10.17
340.964	10.09
341.336	9.94
341.707	10.22
342.078	10.41
342.449	10.37
342.82	10.16
343.191	10.44
343.562	10.12
343.933	10.24
344.303	10.21
344.674	10.4
345.045	10.35
345.416	10.7
345.786	10.47
346.157	10.86
346.527	10.48
346.898	10.24
347.268	10.56
347.639	10.04
348.009	10.49
348.38	11.14
348.75	10.5
349.12	10.86
349.49	10.73
349.861	10.62
350.231	10.96
350.601	11.14
350.971	10.95
351.341	11.12
351.711	11.14
352.081	10.87
352.45	11.4
352.82	11.2
353.19	11.45
353.56	10.86
353.929	11
354.299	11.26
354.669	11.14
355.038	11.37
355.408	11.37
355.777	10.89
356.147	11.47
356.516	11.52
356.885	11.29
357.254	11.64
357.624	11.49
357.993	10.95
358.362	11.65
358.731	11.43
359.1	11.64
359.469	11.36
359.838	11.98
360.207	11.82
360.576	11.67
360.945	11.93
361.314	11.71
361.682	11.84
362.051	11.87
362.42	11.86
362.788	11.93
363.157	11.86
363.525	11.72
363.894	11.82
364.262	11.99
364.631	12.25
364.999	12.04
365.367	12.23
365.735	12.17
366.104	12.07
366.472	12.55
366.84	12.27
367.208	12.35
367.576	12.67
367.944	12.26
368.312	12.21
368.68	12.41
369.048	12.32
369.416	12.6
369.783	12.33
370.151	12.18
370.519	12.63
370.886	12.95
371.254	12.79
371.621	13.05
371.989	13.22
372.356	12.76
372.724	13.09
373.091	12.56
373.458	12.58
373.826	13.14
374.193	12.99
374.56	13.36
374.927	13.27
375.294	13.36
375.661	13.02
376.028	13.64
376.395	13.13
376.762	13.04
377.129	13.68
377.496	13.41
377.863	13.17
378.229	13.37
378.596	13.56
378.963	13.6
379.329	13.42
379.696	13.53
380.062	13.65
380.429	13.83
380.795	13.55
381.161	13.63
381.528	13.6
381.894	13.45
382.26	13.65
382.626	13.76
382.993	13.65
383.359	13.76
383.725	13.72
384.091	13.93
384.457	14.03
384.823	14.06
385.188	14.1
385.554	14.2
385.92	14.22
386.286	13.99
386.651	14.32
387.017	14.03
387.383	13.8
387.748	13.77
388.114	14.36
388.479	14.46
388.845	14.15
389.21	14.42
389.575	14.1
389.94	14.43
390.306	14.48
390.671	14.42
391.036	14.61
391.401	14.43
391.766	14.56
392.131	14.51
392.496	14.54
392.861	14.61
393.226	14.38
393.591	14.54
393.956	14.53
394.32	14.61
394.685	14.64
395.05	14.83
395.414	14.85
395.779	14.94
396.143	15.02
396.508	14.79
396.872	14.93
397.236	14.74
397.601	15.12
397.965	15.14
398.329	15.08
398.694	15.3
399.058	15.13
399.422	15.39
399.786	15
400.15	15.27
400.514	15.42
400.878	15.25
401.242	15.1
401.605	15.41
401.969	15.43
402.333	15.47
402.697	15.48
403.06	15.37
403.424	15.38
403.787	15.84
404.151	15.91
404.514	15.54
404.878	15.28
405.241	15.74
405.604	15.65
405.968	15.48
406.331	15.62
406.694	15.7
407.057	15.5
407.42	15.6
407.783	15.61
408.146	15.45
408.509	15.74
408.872	15.82
409.235	15.9
409.598	15.98
409.961	15.7
410.323	16.11
410.686	16.17
411.049	16.03
411.411	16.1
411.774	16.37
412.136	16.31
412.499	16.02
412.861	16.13
413.223	15.86
413.586	16.05
413.948	16.48
414.31	16.25
414.672	16.38
415.035	16.7
415.397	16.34
415.759	16.33
416.121	16.38
416.483	16.42
416.845	16.43
417.206	16.61
417.568	16.61
417.93	16.49
418.292	16.47
418.653	16.45
419.015	16.78
419.377	16.72
419.738	16.6
420.1	16.66
420.461	16.54
420.822	16.59
421.184	16.55
421.545	16.52
421.906	16.49
422.267	16.62
422.629	16.7
422.99	16.67
423.351	16.49
423.712	16.47
424.073	16.59
424.434	16.7
424.795	16.82
425.155	16.9
425.516	16.97
425.877	16.88
426.238	16.81
426.598	17.07
426.959	16.8
427.32	17.12
427.68	16.98
428.041	17.06
428.401	17.15
428.761	17.32
429.122	17.39
429.482	17.39
429.842	17.41
430.202	17.37
430.563	17.59
430.923	17.6
431.283	17.6
431.643	17.88
432.003	17.72
432.363	17.94
432.722	17.8
433.082	17.96
433.442	17.82
433.802	18.07
434.161	18.07
434.521	18.13
434.881	17.96
435.24	18.11
435.6	18.09
435.959	17.98
436.319	17.84
436.678	17.92
437.037	18.12
437.396	18.09
437.756	18.39
438.115	18.08
438.474	18.39
438.833	18.44
439.192	18.45
439.551	18.56
439.91	18.48
440.269	18.33
440.628	18.49
440.987	18.57
441.345	18.63
441.704	18.53
442.063	18.71
442.421	18.71
442.78	18.41
443.138	18.3
443.497	18.36
443.855	18.68
444.214	18.47
444.572	18.73
444.93	18.73
445.288	18.93
445.647	18.89
446.005	18.87
446.363	19.27
446.721	18.83
447.079	19.01
447.437	19.04
447.795	18.92
448.153	18.99
448.51	18.87
448.868	18.87
449.226	18.98
449.584	18.9
449.941	18.86
450.299	19.14
450.656	19.19
451.014	19.23
451.371	19.45
451.729	19.28
452.086	19.43
452.443	19.57
452.801	19.53
453.158	19.7
453.515	19.65
453.872	19.85
454.229	19.63
454.586	19.76
454.943	19.62
455.3	19.7
455.657	19.58
456.014	19.83
456.371	19.9
456.727	19.89
457.084	19.8
457.441	19.95
457.797	20.04
458.154	19.76
458.51	20.29
458.867	20.26
459.223	20.16
459.58	20.18
459.936	20.32
460.292	20.42
460.648	20.34
461.005	20.31
461.361	20.24
461.717	20.14
462.073	20.05
462.429	19.93
462.785	20.09
463.141	20.24
463.496	20.35
463.852	20.57
464.208	20.73
464.564	20.53
464.919	20.72
465.275	20.68
465.631	20.96
465.986	20.91
466.342	20.88
466.697	21.01
467.052	20.88
467.408	20.78
467.763	20.71
468.118	20.93
468.473	21.11
468.829	21.13
469.184	21.1
469.539	21.3
469.894	21.32
470.249	21.35
470.603	21.28
470.958	21.15
471.313	21.31
471.668	21.36
472.023	21.41
472.377	21.39
472.732	21.44
473.086	21.4
473.441	21.68
473.795	21.56
474.15	21.46
474.504	21.72
474.859	21.77
475.213	21.58
475.567	21.78
475.921	21.52
476.275	21.62
476.63	21.79
476.984	21.69
477.338	21.93
477.692	21.87
478.045	21.95
478.399	21.89
478.753	21.85
479.107	21.77
479.461	21.97
479.814	21.97
480.168	21.9
480.521	22.14
480.875	21.96
481.228	22.18
481.582	22.12
481.935	22.05
482.289	22.28
482.642	22.3
482.995	22.06
483.348	22.17
483.701	22.22
484.055	22.09
484.408	22.08
484.761	22.08
485.114	21.95
485.466	22.07
485.819	21.87
486.172	21.59
486.525	21.4
486.878	21.43
487.23	21.44
487.583	21.66
487.936	22.03
488.288	22.24
488.641	22.23
488.993	22.18
489.345	22.18
489.698	22.06
490.05	22
490.402	21.92
490.754	22
491.107	22.1
491.459	22.4
491.811	22.39
492.163	22.71
492.515	22.79
492.866	22.92
493.218	22.74
493.57	22.65
493.922	22.37
494.274	22.26
494.625	22.45
494.977	22.69
495.328	22.88
495.68	22.98
496.031	23.35
496.383	23.39
496.734	23.43
497.086	23.36
497.437	23.52
497.788	23.71
498.139	23.5
498.49	23.47
498.842	23.44
499.193	23.51
499.544	23.52
499.894	23.51
500.245	23.59
500.596	23.63
500.947	23.77
501.298	23.93
501.648	23.72
501.999	23.95
502.35	24.03
502.7	24.05
503.051	24.17
503.401	24.24
503.752	24.21
504.102	24.33
504.452	24.35
504.803	24.45
505.153	24.4
505.503	24.32
505.853	24.42
506.203	24.32
506.553	24.4
506.903	24.58
507.253	24.44
507.603	24.8
507.953	24.73
508.303	24.83
508.652	24.76
509.002	24.73
509.352	24.79
509.701	24.77
510.051	24.63
510.4	24.73
510.75	24.58
511.099	24.7
511.449	24.83
511.798	24.71
512.147	24.8
512.496	24.91
512.846	24.85
513.195	24.9
513.544	24.93
513.893	25.11
514.242	25.05
514.591	25.04
514.939	25.03
515.288	25.28
515.637	25.34
515.986	25.29
516.334	25.33
516.683	25.3
517.032	25.41
517.38	25.37
517.729	25.62
518.077	25.44
518.426	25.6
518.774	25.65
519.122	25.6
519.47	25.75
519.819	25.61
520.167	25.74
520.515	25.54
520.863	25.52
521.211	25.48
521.559	25.49
521.907	25.61
522.255	25.61
522.602	25.86
522.95	25.96
523.298	26.06
523.645	26.11
523.993	26.3
524.341	26.23
524.688	26.31
525.036	26.3
525.383	26.28
525.73	26.44
526.078	26.35
526.425	26.22
526.772	26.45
527.119	26.35
527.466	26.27
527.814	26.22
528.161	26.17
528.508	26.18
528.854	26.25
529.201	26.27
529.548	26.29
529.895	26.36
530.242	26.56
530.588	26.31
530.935	26.08
531.282	25.83
531.628	25.76
531.975	26.07
532.321	26.06
532.667	26.32
533.014	26.52
533.36	26.61
533.706	26.81
534.052	26.85
534.399	26.92
534.745	26.91
535.091	26.95
535.437	26.72
535.783	26.59
536.129	26.58
536.474	26.64
536.82	26.79
537.166	26.96
537.512	27.32
537.857	27.35
538.203	27.63
538.549	27.27
538.894	27.23
539.239	27.23
539.585	27.19
539.93	27.41
540.276	27.52
540.621	27.77
540.966	27.85
541.311	27.83
541.656	27.9
542.001	27.9
542.346	27.92
542.691	27.77
543.036	27.9
543.381	27.67
543.726	27.43
544.071	27.4
544.415	27.43
544.76	27.59
545.105	27.78
545.449	27.91
545.794	27.94
546.138	28
546.483	28.21
546.827	28.22
547.171	28.42
547.516	28.45
547.86	28.4
548.204	28.56
548.548	28.59
548.892	28.51
549.236	28.51
549.58	28.6
549.924	28.63
550.268	28.82
550.612	28.85
550.956	29.18
551.3	29.29
551.643	29.22
551.987	29.09
552.33	29.27
552.674	29.47
553.017	29.36
553.361	29.36
553.704	29.56
554.048	29.63
554.391	29.73
554.734	29.54
555.077	29.58
555.42	29.58
555.764	29.32
556.107	29.84
556.45	30.04
556.793	29.72
557.135	30.09
557.478	30.03
557.821	29.89
558.164	30.06
558.507	29.97
558.849	30.07
559.192	30.05
559.534	30.07
559.877	30.05
560.219	30.3
560.562	30.39
560.904	30.3
561.246	30.43
561.589	30.35
561.931	30.64
562.273	30.49
562.615	30.5
562.957	30.52
563.299	30.67
563.641	30.79
563.983	30.54
564.325	30.77
564.667	30.89
565.008	30.79
565.35	30.81
565.692	30.84
566.033	30.75
566.375	30.76
566.716	30.88
567.058	31.25
567.399	30.98
567.741	30.93
568.082	31.13
568.423	31.15
568.764	31
569.105	30.82
569.447	30.95
569.788	31.03
570.129	31.2
570.47	31.31
570.811	31.41
571.151	31.41
571.492	31.62
571.833	31.44
572.174	31.61
572.514	31.53
572.855	31.78
573.195	31.74
573.536	31.82
573.876	31.97
574.217	31.68
574.557	31.74
574.898	31.57
575.238	31.67
575.578	31.82
575.918	31.77
576.258	32.16
576.598	31.99
576.938	32.1
577.278	32.06
577.618	32.12
577.958	31.93
578.298	32.21
578.638	32.26
578.977	32.08
579.317	32.29
579.657	32.32
579.996	32.34
580.336	32.42
580.675	32.42
581.014	32.52
581.354	32.74
581.693	32.58
582.032	32.75
582.372	32.7
582.711	32.64
583.05	32.9
583.389	32.99
583.728	33.13
584.067	32.62
584.406	33.01
584.745	33.02
585.083	33.12
585.422	33.09
585.761	33.21
586.1	33.16
586.438	33.26
586.777	33.39
587.115	33.52
587.454	33.43
587.792	33.22
588.13	33.68
588.469	33.28
588.807	33.58
589.145	33.59
589.483	33.53
589.821	33.78
590.159	33.48
590.497	33.67
590.835	33.53
591.173	33.71
591.511	33.78
591.849	33.82
592.187	33.92
592.524	33.71
592.862	33.89
593.2	33.94
593.537	33.9
593.875	34.17
594.212	33.85
594.55	34.34
594.887	34.37
595.224	34.03
595.561	34.24
595.899	34.28
596.236	34.52
596.573	34.29
596.91	34.38
597.247	34.25
597.584	34.33
597.921	34.16
598.258	34.28
598.594	34.66
598.931	34.59
599.268	34.27
599.604	34.22
599.941	34.15
600.277	34.23
600.614	34.6
600.95	34.67
601.287	34.7
601.623	34.69
601.959	34.63
602.296	34.87
602.632	34.99
602.968	35.01
603.304	34.98
603.64	35.04
603.976	35.16
604.312	35.22
604.648	35.39
604.984	35.28
605.319	35.61
605.655	35.22
605.991	35.18
606.326	35.15
606.662	35.07
606.998	35.22
607.333	35.19
607.668	34.97
608.004	35.29
608.339	35.02
608.674	35.24
609.01	35.25
609.345	35.68
609.68	36.04
610.015	35.84
610.35	35.45
610.685	35.62
611.02	35.59
611.355	35.74
611.689	35.41
612.024	35.66
612.359	35.94
612.694	35.64
613.028	35.87
613.363	35.73
613.697	35.91
614.032	36.08
614.366	36.25
614.7	36.39
615.035	35.94
615.369	36.23
615.703	36.47
616.037	36.22
616.371	36.5
616.705	36.25
617.039	36.79
617.373	36.65
617.707	36.71
618.041	36.71
618.375	36.73
618.709	36.67
619.042	36.93
619.376	36.83
619.71	36.82
620.043	36.94
620.377	36.89
620.71	36.78
621.043	37.38
621.377	36.72
621.71	36.94
622.043	37.33
622.376	37.28
622.709	37.62
623.043	37.44
623.376	36.84
623.709	36.92
624.041	37.32
624.374	37.16
624.707	37.23
625.04	37.38
625.373	37.32
625.705	37.24
626.038	37.3
626.37	37.42
626.703	37.43
627.035	37.53
627.368	37.65
627.7	37.56
628.032	37.57
628.365	37.4
628.697	37.71
629.029	37.57
629.361	37.78
629.693	37.92
630.025	37.33
630.357	37.8
630.689	37.81
631.021	37.71
631.353	38.12
631.684	37.73
632.016	38.36
632.348	37.97
632.679	37.65
633.011	38.04
633.342	38.06
633.674	38.52
634.005	38.32
634.336	38.37
634.668	38.68
634.999	38.71
635.33	38.72
635.661	38.53
635.992	38.04
636.323	38.38
636.654	38.34
636.985	38.71
637.316	39.01
637.647	38.46
637.977	38.72
638.308	38.4
638.639	38.54
638.969	38.86
639.3	38.81
639.63	38.55
639.961	38.76
640.291	38.78
640.622	39.38
640.952	38.69
641.282	39.04
641.612	38.98
641.943	39
642.273	38.55
642.603	38.77
642.933	38.69
643.263	39.25
643.592	39.64
643.922	39.15
644.252	39.08
644.582	39.11
644.911	39.85
645.241	39.6
645.571	39.26
645.9	39.33
646.23	39.2
646.559	39.05
646.888	40
647.218	39.61
647.547	39.77
647.876	39.63
648.205	39.75
648.534	39.83
648.863	39.72
649.192	39.66
649.521	39.34
649.85	39.73
650.179	40.16
650.508	39.77
650.837	40.07
651.165	39.86
651.494	40.08
651.822	40.2
652.151	40.62
652.479	40.64
652.808	39.62
653.136	40.31
653.465	40.03
653.793	40.04
654.121	40.33
654.449	40.55
654.777	39.57
655.105	40.27
655.433	40.26
655.761	40.28
656.089	40.53
656.417	39.68
656.745	40.59
657.073	40.11
657.4	40.42
657.728	40.28
658.056	40.21
658.383	40.51
658.711	40.32
659.038	40.16
659.365	40.67
659.693	40.33
660.02	40.88
660.347	40.69
660.674	40.87
661.001	40.86
661.329	40.96
661.656	40.66
661.982	41.12
662.309	41.4
662.636	40.89
662.963	40.72
663.29	40.72
663.616	40.78
663.943	41.01
664.27	40.87
664.596	41.01
664.923	40.92
665.249	41.38
665.576	40.49
665.902	41.13
666.228	41.43
666.554	42.12
666.881	41.42
667.207	41.43
667.533	41.5
667.859	41.02
668.185	42.04
668.511	41.89
668.837	41.64
669.162	41.83
669.488	42.31
669.814	41.94
670.139	41.32
670.465	42.09
670.791	41.66
671.116	42.17
671.442	42.05
671.767	41.59
672.092	42.29
672.418	41.31
672.743	42.31
673.068	42.09
673.393	42.44
673.718	41.73
674.043	42.6
674.368	41.95
674.693	41.38
675.018	42.01
675.343	42.22
675.667	42.25
675.992	41.85
676.317	42.06
676.641	42.44
676.966	41.99
677.29	42.24
677.615	42.27
677.939	42.94
678.264	41.63
678.588	41.97
678.912	42.03
679.236	42.49
679.56	42.69
679.885	42.5
680.209	42.34
680.532	42.56
680.856	41.96
681.18	42.85
681.504	42.51
681.828	42.47
682.152	42.24
682.475	42.58
682.799	42.56
683.122	42.68
683.446	42.92
683.769	42.99
684.093	43.94
684.416	42.54
684.739	42.88
685.062	42.54
685.386	42.66
685.709	41.97
686.032	42.63
686.355	43.81
686.678	43.11
687.001	43.03
687.324	43.07
687.646	42.98
687.969	43.15
688.292	43.02
688.614	43.19
688.937	43.66
689.26	42.4
689.582	43.4
689.904	43.42
690.227	43.87
690.549	43.06
690.871	42.83
691.194	43.46
691.516	43.33
691.838	43.35
692.16	43.47
692.482	43.68
692.804	43.99
693.126	43.83
693.448	42.86
693.769	43.06
694.091	42.47
694.413	43.44
694.735	43.32
695.056	43.73
695.378	43.74
695.699	43.77
696.021	43.03
696.342	43.26
696.663	43.84
696.984	42.93
697.306	43.5
697.627	43.28
697.948	44.03
698.269	43.49
698.59	44.62
698.911	43.61
699.232	44.36
699.553	44.4
699.873	43.84
700.194	44.19
700.515	44.33
700.835	44.62
701.156	43.9
701.477	43.71
701.797	43.73
702.117	44.32
702.438	43.75
702.758	44.02
703.078	43.73
703.398	44.08
703.719	44.08
704.039	44.4
704.359	44.43
704.679	43.65
704.999	43.39
705.319	44.57
705.638	44.63
705.958	44.1
706.278	44.66
706.597	45.35
706.917	45.68
707.237	44.87
707.556	44.15
707.876	45.21
708.195	46.8
708.514	44.28
708.834	44.54
709.153	44.49
709.472	44.92
709.791	44.75
710.11	45.04
710.429	44.43
710.748	44.65
711.067	44.53
711.386	45.77
711.705	44.29
712.023	44.97
712.342	45.35
712.661	45.05
712.979	45.98
713.298	44.88
713.616	45.52
713.935	45.4
714.253	45.56
714.572	45.2
714.89	45.61
715.208	44.94
715.526	45.27
715.844	46.15
716.162	45.87
716.48	45.11
716.798	45.25
717.116	45.46
717.434	46.04
717.752	45.18
718.069	46.3
718.387	45.28
718.705	45.76
719.022	45.1
719.34	45.91
719.657	45.22
719.975	46.07
720.292	46.01
720.609	45.41
720.927	44.79
721.244	45.93
721.561	46.39
721.878	47
722.195	45.64
722.512	45.61
722.829	46.21
723.146	45.07
723.463	46.11
723.779	45.47
724.096	45
724.413	46.11
724.729	46.09
725.046	45.48
725.362	46.01
725.679	46.22
725.995	46.8
726.311	45.88
726.628	45.12
726.944	45.4
727.26	46.69
727.576	46.12
727.892	46.72
728.208	46.56
728.524	45.02
728.84	45.22
729.156	46.75
729.472	46.06
729.787	46.25
730.103	47.38
730.419	45.98
730.734	46.52
731.05	48.1
731.365	46.39
731.681	46.24
731.996	47.16
732.311	45.43
732.626	47.15
732.942	47.4
733.257	46.8
733.572	47.56
733.887	46.4
734.202	47.17
734.517	46.81
734.832	46.72
735.146	47.1
735.461	45.33
735.776	47.58
736.091	47.59
736.405	47.63
736.72	46.6
737.034	46.63
737.349	45.37
737.663	46.19
737.977	46.11
738.292	47.14
738.606	46.56
738.92	46.1
739.234	45.63
739.548	47.54
739.862	47.91
740.176	47.14
740.49	48.14
740.804	48.25
741.117	47.52
741.431	47.01
741.745	47.53
742.058	47.6
742.372	46.14
742.685	46.35
742.999	47.83
743.312	47.03
743.626	47.32
743.939	48.45
744.252	46.75
744.565	45.95
744.878	47.63
745.191	45.75
745.505	48.43
745.817	48.1
746.13	46.66
746.443	46.84
746.756	47.62
747.069	46.67
747.381	46.67
747.694	46.68
748.007	46.2
748.319	49.43
748.632	47.41
748.944	45.91
749.256	47.65
749.569	46.81
749.881	46.32
750.193	46.78
750.505	48.32
750.817	47.82
751.129	47.11
751.441	47.45
751.753	48.16
752.065	46.04
752.377	48.79
752.689	48.27
753	46.93
753.312	48.04
753.624	45.63
753.935	48.87
754.247	48.74
754.558	47.8
754.869	48.04
755.181	47.17
755.492	47.74
755.803	47.88
756.114	47.89
756.425	48.59
756.736	46.5
757.047	49.88
757.358	49.62
757.669	48.79
757.98	48.29
758.291	47.85
758.601	47.73
758.912	47.77
759.223	48.72
759.533	48.82
759.844	48.34
760.154	44.75
760.464	48.33
760.775	48.42
761.085	47.84
761.395	48.41
761.705	48.28
762.016	47.75
762.326	48
762.636	47.86
762.945	48.43
763.255	46.54
763.565	48.39
763.875	48.52
764.185	49.29
764.494	47.85
764.804	49.61
765.113	48.31
765.423	50.36
765.732	49.78
766.042	47.79
766.351	47.89
766.66	48.93
766.97	48.42
767.279	48.69
767.588	48.67
767.897	47.38
768.206	46.73
768.515	47.35
768.824	46.65
769.133	48.72
769.441	50.07
769.75	48.96
770.059	48.87
770.367	49.18
770.676	47.97
770.984	50
771.293	49.68
771.601	45.98
771.91	48.78
772.218	51.35
772.526	46.54
772.834	49.79
773.142	51.46
773.45	52.01
773.758	48.19
774.066	48.21
774.374	48.93
774.682	47.66
774.99	49.72
775.298	52.61
775.605	46.89
775.913	49.98
776.22	47.61
776.528	48.23
776.835	50.21
777.143	47.9
777.45	53.09
777.757	48.93
778.065	49.71
778.372	49.3
778.679	52.67
778.986	46.11
779.293	52.41
779.6	48.04
779.907	51.19
780.214	49.72
780.52	45.62
780.827	48.53
781.134	52.02
781.44	49.15
781.747	48.71
782.053	46.58
782.36	48.17
782.666	49.23
782.973	50.1
783.279	49.43
783.585	48.82
783.891	46.13
784.197	48.2
784.503	50.74
784.809	50.42
785.115	45.48
785.421	47.2
785.727	45.14
786.033	47.83
786.339	49.58
786.644	44.38
786.95	51.69
787.255	47.65
787.561	47.22
787.866	47.91
788.172	47.08
788.477	51.18
788.782	51.93
789.088	50.29
789.393	48.04
789.698	51.16
790.003	49.67
790.308	47.31
790.613	48.05
790.918	46.6
791.223	50.17
791.527	53.27
791.832	52.08
792.137	48.63
792.441	51.74
792.746	49.45
793.05	51.27
793.355	51.42
793.659	48.29
793.963	50.93
794.268	50.07
794.572	49.99
794.876	47.14
795.18	49.1
795.484	51.79
795.788	48.2
796.092	54.09
796.396	48.4
796.7	47.26
797.004	52.99
797.307	48.15
797.611	47.55
797.915	50.9
798.218	53.6
798.522	49.8
798.825	50.37
799.128	48.96
799.432	50.52
799.735	53.52
800.038	47.92
800.341	52.07
800.644	52.27
800.947	48.48
801.25	48.65
801.553	52.9
801.856	48.46
802.159	48.82
802.462	52
802.764	51.82
803.067	49.69
803.37	50.09
803.672	49.77
803.975	50.47
804.277	48.98
804.579	45.64
804.882	51.81
805.184	46.77
805.486	51.85
805.788	49.74
806.09	45.76
806.392	51.74
806.694	54.9
806.996	56.11
807.298	48.73
807.6	47.64
807.902	48.21
808.203	47.26
808.505	51.23
808.807	53.22
809.108	49.25
809.409	49.29
809.711	49.09
810.012	50.85
810.313	51.39
810.615	53.75
810.916	54.93
811.217	50.9
811.518	48.76
811.819	45.33
812.12	54.08
812.421	54.77
812.722	55.09
813.023	48.94
813.323	51.52
813.624	54.2
813.925	48.48
814.225	48.45
814.526	47.2
814.826	50.43
815.126	47.34
815.427	49.12
815.727	52.76
816.027	51.55
816.327	51.65
816.627	51.12
816.927	52.95
817.227	49.74
817.527	49.36
817.827	50.92
818.127	54.25
818.427	50.23
818.727	49.89
819.026	52.06
819.326	56.2
819.625	48.43
819.925	48.58
820.224	55.65
820.524	51.89
820.823	53.42
821.122	55.34
821.421	55.97
821.72	49.01
822.019	49.31
822.318	48
822.617	49.95
822.916	52.74
823.215	53.37
823.514	54.97
823.813	51.26
824.111	52.31
824.41	52.23
824.709	50.83
825.007	52.02
825.306	51.27
825.604	51.19
825.902	50.52
826.201	51.3
826.499	50.29
826.797	49.27
827.095	49.49
827.393	51.32
827.691	50.28
827.989	48.08
828.287	50.27
828.585	49.53
828.882	50
829.18	50.49
829.478	50.69
829.775	52.91
830.073	52.23
830.37	51.24
830.668	50.88
830.965	49.63
831.263	50.08
831.56	51.74
831.857	51.97
832.154	52.31
832.451	51.08
832.748	50.5
833.045	51.48
833.342	51.53
833.639	49.28
833.936	52.53
834.232	50.55
834.529	46.53
834.826	51.77
835.122	48.65
835.419	52.99
835.715	50.91
836.012	52.56
836.308	52.7
836.604	51.36
836.901	49.83
837.197	50.66
837.493	50.78
837.789	48.63
838.085	49.09
838.381	52.22
838.677	50.06
838.972	49.31
839.268	50.76
839.564	47.22
839.86	53.81
840.155	50.29
840.451	54.64
840.746	49.58
841.042	46.98
841.337	56.16
841.632	44.57
841.928	55.63
842.223	47.96
842.518	55.12
842.813	43.9
843.108	53.79
843.403	52.42
843.698	52.6
843.993	48.87
844.287	54.86
844.582	46.32
844.877	50.47
845.171	47.14
845.466	57.46
845.761	52.4
846.055	41.37
846.349	42.87
846.644	49.53
846.938	45.28
847.232	45.7
847.526	43.06
847.82	47.33
848.114	43.39
848.408	43.8
848.702	52.29
848.996	47.27
849.29	46.98
849.584	52.96
849.877	44.06
850.171	46.01
850.465	62.25
850.758	58.04
851.052	48.81
851.345	34.43
851.638	34.54
851.932	60.48
852.225	54.57
852.518	64.47
852.811	51.9
853.104	44.51
853.397	63.08
853.69	42.35
853.983	46.62
854.276	47.95
854.569	46.85
854.861	49.67
855.154	40.62
855.447	50.25
855.739	69.33
856.032	29.36
856.324	49.13
856.616	55.15
856.909	49.73
857.201	52.61
857.493	37.2
857.785	66.49
858.077	50.44
858.369	49.06
858.661	66.4
858.953	40.38
859.245	64.03
859.537	22.88
859.829	42.2
860.12	46.13
860.412	51.74
860.703	39.36
860.995	41.3
861.286	46.51
861.578	47.49
861.869	55.59
862.16	59.87
862.452	49.53
862.743	32.76
863.034	57.13
863.325	59.93
863.616	56.72
863.907	55.87
864.198	54.46
864.488	63.68
864.779	50.42
865.07	40.04
865.36	47.32
865.651	41.2
865.941	66.45
866.232	48.08
866.522	54.93
866.813	40.21
867.103	35.57
867.393	44.34
867.683	83.2
867.973	41.12
868.263	42.24
868.553	52.46
868.843	17.17
869.133	45.37
869.423	69.16
869.713	49.8
870.002	48.98
870.292	62.69
870.582	61.91
870.871	30.31
871.161	53.88
871.45	54.72
871.739	54.77
872.029	53.35
872.318	47.54
872.607	61.3
872.896	60.06
873.185	58.61
873.474	58.15
873.763	65.34
874.052	63.03
874.341	47.11
874.63	58.52
874.918	61.18
875.207	49.23
875.496	65.47
875.784	82.64
876.073	46.73
876.361	85.86
876.649	55.59
876.938	60.1
877.226	31.94
877.514	47.27
877.802	65.33
878.09	66.72
878.378	47.33
878.666	30.39
878.954	62.88
879.242	82.18
879.53	55.25
879.817	32.71
880.105	38.92
880.392	40.31
880.68	56.03
880.967	31.24
881.255	30.53
881.542	34.86
881.83	38.11
882.117	62.59
882.404	40.5
882.691	60.59
882.978	61.69
883.265	49.29
883.552	36.16
883.839	56.14
884.126	55.66
884.413	53.68
884.699	60.22
884.986	54.43
885.273	52.26
885.559	52.26
885.846	52.26
