Data from 1832-1_crown_Reflection__2__28.txt Node

Date: Fri Sep 30 17:57:18 CDT 2022
User: ToomeyLab
Spectrometer: FLMS14357
Trigger mode: 0
Integration Time (sec): 1.000000E-2
Scans to average: 100
Electric dark correction enabled: true
Nonlinearity correction enabled: false
Boxcar width: 0
XAxis mode: Wavelengths
Number of Pixels in Spectrum: 2048
>>>>>Begin Spectral Data<<<<<
189.047	264.37
189.435	264.37
189.823	264.37
190.211	-55.56
190.599	67.59
190.987	32.14
191.375	172200
191.763	-44.77
192.151	25.36
192.538	10.59
192.926	1091.87
193.314	-109.9
193.702	41.25
194.089	132.18
194.477	-54.82
194.864	-29.46
195.252	-33.1
195.639	27.64
196.027	108.36
196.414	163.65
196.801	63.59
197.189	13.48
197.576	126.77
197.963	4.17
198.351	-10.14
198.738	-21.61
199.125	55.76
199.512	27.34
199.899	-8.37
200.286	-31.27
200.673	20.22
201.06	27.76
201.447	-11.27
201.833	40.34
202.22	64.78
202.607	45.41
202.994	46.83
203.38	0.69
203.767	-0.59
204.154	-12.46
204.54	30.63
204.927	24.27
205.313	-16.11
205.699	7.7
206.086	-24.12
206.472	-2.2
206.858	6.82
207.245	12.22
207.631	-21.72
208.017	-29.17
208.403	12.65
208.789	10.84
209.175	42.15
209.561	-27.29
209.947	1.68
210.333	-31.6
210.719	5.96
211.105	-26.71
211.491	6.61
211.876	15.5
212.262	5.65
212.648	24.89
213.034	12.57
213.419	13.01
213.805	-12.86
214.19	1.31
214.576	10.21
214.961	5.57
215.346	8.57
215.732	18.92
216.117	5.37
216.502	8.65
216.888	21.08
217.273	10.43
217.658	13.01
218.043	-12.42
218.428	6.33
218.813	4.61
219.198	16.2
219.583	10.22
219.968	4.9
220.353	24.33
220.738	10.57
221.122	9
221.507	4.46
221.892	11.07
222.276	0.1
222.661	6.31
223.046	-15.6
223.43	-1.95
223.815	-3.18
224.199	6.48
224.583	-6.01
224.968	-7.44
225.352	0.41
225.736	5.38
226.121	11.39
226.505	2.06
226.889	6.33
227.273	-0.94
227.657	6.94
228.041	2.39
228.425	5.57
228.809	4.45
229.193	6.67
229.577	3.43
229.961	3.76
230.344	2.75
230.728	3.73
231.112	4.29
231.495	4.03
231.879	5
232.263	3.18
232.646	3.37
233.03	3.92
233.413	4.15
233.797	4.43
234.18	3.63
234.563	3.75
234.946	4.72
235.33	3.98
235.713	3.66
236.096	3.67
236.479	5.03
236.862	2.37
237.245	4.34
237.628	3.11
238.011	5.86
238.394	3.35
238.777	2.96
239.16	2.04
239.543	3.2
239.925	2.12
240.308	2.83
240.691	4.92
241.073	4.17
241.456	2.62
241.838	3.28
242.221	3.53
242.603	4.28
242.986	4.35
243.368	2.55
243.75	3.15
244.133	4.25
244.515	3.74
244.897	4.07
245.279	4.41
245.661	3.46
246.043	3.35
246.425	2.9
246.807	3.96
247.189	3.98
247.571	4.09
247.953	3.85
248.335	3.36
248.717	3.47
249.098	3.86
249.48	3.61
249.862	3.82
250.243	3.17
250.625	3.85
251.006	3.66
251.388	2.73
251.769	4.27
252.151	3.48
252.532	4.27
252.913	3.87
253.295	2.78
253.676	3.15
254.057	3.66
254.438	3.08
254.819	3.89
255.2	2.73
255.581	3.44
255.962	3.36
256.343	3.56
256.724	4.35
257.105	4.79
257.486	3.62
257.867	3.88
258.247	3.44
258.628	4.14
259.009	4.36
259.389	3.06
259.77	2.85
260.15	3.04
260.531	3.58
260.911	3.52
261.292	3.23
261.672	3.29
262.052	3.45
262.432	3.54
262.813	4.14
263.193	2.85
263.573	3.45
263.953	3.36
264.333	3.93
264.713	3.08
265.093	3.46
265.473	3.02
265.853	3.45
266.233	2.26
266.612	2.96
266.992	3.06
267.372	2.93
267.752	2.77
268.131	3.07
268.511	3.34
268.89	3.19
269.27	3.78
269.649	3.37
270.029	3.32
270.408	2.92
270.787	3.16
271.167	3.52
271.546	3.25
271.925	4.01
272.304	3.32
272.683	2.9
273.062	3.39
273.441	3.29
273.82	2.73
274.199	3.24
274.578	2.85
274.957	3.22
275.336	2.91
275.715	3.5
276.093	3.2
276.472	2.94
276.851	3.46
277.229	3.15
277.608	3.36
277.986	2.51
278.365	3.59
278.743	3.36
279.122	3
279.5	3.49
279.878	3.05
280.257	2.96
280.635	3.09
281.013	3.53
281.391	2.55
281.769	3.44
282.147	2.81
282.525	3.31
282.903	3.17
283.281	3.11
283.659	3.25
284.037	2.8
284.415	2.85
284.792	3.13
285.17	2.98
285.548	3.34
285.925	3.24
286.303	2.78
286.68	2.86
287.058	3.14
287.435	3.09
287.813	3.22
288.19	3.21
288.567	3.26
288.945	2.46
289.322	2.57
289.699	3.13
290.076	2.67
290.453	3.24
290.83	3.37
291.207	3.25
291.584	2.82
291.961	2.79
292.338	2.97
292.715	3.34
293.092	2.8
293.469	2.98
293.845	3.64
294.222	3.28
294.599	3.33
294.975	3.42
295.352	3.18
295.728	3.29
296.105	3.05
296.481	3.26
296.858	3.42
297.234	3.3
297.61	3
297.986	2.68
298.363	3.19
298.739	3.22
299.115	2.9
299.491	3.1
299.867	3.25
300.243	3.27
300.619	2.72
300.995	3.48
301.371	3.42
301.746	3.02
302.122	3.48
302.498	3.07
302.874	3.21
303.249	3.13
303.625	3.16
304	3.05
304.376	3.73
304.751	3.78
305.127	3.11
305.502	3.35
305.878	3.23
306.253	3.09
306.628	3.29
307.003	3.11
307.378	2.97
307.754	3.42
308.129	3.27
308.504	2.82
308.879	3.35
309.254	3.03
309.629	3.45
310.003	3.11
310.378	2.7
310.753	3.07
311.128	3.18
311.502	3.25
311.877	3.36
312.252	3.44
312.626	3.43
313.001	3.31
313.375	2.94
313.75	3.58
314.124	3.23
314.498	3.22
314.873	3.16
315.247	3.04
315.621	3.06
315.995	3.52
316.369	2.68
316.743	3.23
317.117	3.65
317.491	3.58
317.865	3.84
318.239	3.39
318.613	3.39
318.987	3.44
319.361	3.66
319.734	2.69
320.108	3
320.482	3.31
320.855	3.03
321.229	3.28
321.602	3.53
321.976	3.84
322.349	2.95
322.723	3.18
323.096	3.34
323.469	3.78
323.843	3.21
324.216	3.52
324.589	3.8
324.962	3.25
325.335	3.47
325.708	3.3
326.081	3.94
326.454	3.48
326.827	3.39
327.2	3.28
327.573	3.11
327.945	3.1
328.318	3.03
328.691	3.39
329.063	3.54
329.436	3.15
329.809	3.51
330.181	3.59
330.553	3.33
330.926	3.58
331.298	3.14
331.671	3.53
332.043	3.24
332.415	2.96
332.787	3.48
333.159	3.01
333.532	3.57
333.904	3.94
334.276	3.43
334.648	3.05
335.02	3.66
335.391	3.54
335.763	3.67
336.135	3.34
336.507	3.6
336.879	3.52
337.25	2.86
337.622	3.65
337.993	2.99
338.365	3.56
338.736	3.56
339.108	3.26
339.479	3.72
339.851	3.39
340.222	3.58
340.593	3.36
340.964	2.67
341.336	3.39
341.707	2.72
342.078	3.35
342.449	3.67
342.82	3.45
343.191	3.76
343.562	3.48
343.933	3.08
344.303	3.41
344.674	2.87
345.045	3.33
345.416	3.43
345.786	3.56
346.157	3.7
346.527	3.35
346.898	3.01
347.268	3.18
347.639	3.16
348.009	3.25
348.38	3.9
348.75	3.85
349.12	3.62
349.49	3.67
349.861	3.29
350.231	3.2
350.601	3.31
350.971	3.36
351.341	3.22
351.711	3.19
352.081	3.29
352.45	3.48
352.82	3.65
353.19	3.41
353.56	3.4
353.929	3.19
354.299	3.73
354.669	3.41
355.038	3.34
355.408	3.72
355.777	3.12
356.147	3.07
356.516	3.52
356.885	3.21
357.254	3.57
357.624	3.46
357.993	3.14
358.362	3.67
358.731	3.48
359.1	3.45
359.469	3.39
359.838	3.59
360.207	3.35
360.576	3.34
360.945	3.49
361.314	3.4
361.682	3.21
362.051	3.27
362.42	3.29
362.788	3.32
363.157	3.44
363.525	3.03
363.894	3.48
364.262	3.51
364.631	3.78
364.999	3.53
365.367	3.78
365.735	3.44
366.104	2.99
366.472	3.61
366.84	3.58
367.208	3.61
367.576	4.04
367.944	3.41
368.312	3.34
368.68	3.57
369.048	3.25
369.416	3.66
369.783	3.59
370.151	3.83
370.519	3.32
370.886	3.72
371.254	3.37
371.621	3.41
371.989	3.63
372.356	3.43
372.724	3.81
373.091	3.5
373.458	3.46
373.826	3.52
374.193	3.97
374.56	3.76
374.927	3.63
375.294	3.68
375.661	3.56
376.028	3.47
376.395	3.37
376.762	3.61
377.129	3.74
377.496	3.59
377.863	3.35
378.229	3.69
378.596	3.61
378.963	3.54
379.329	3.66
379.696	3.6
380.062	3.76
380.429	3.72
380.795	3.54
381.161	3.61
381.528	3.56
381.894	3.71
382.26	3.34
382.626	3.34
382.993	3.7
383.359	3.41
383.725	3.38
384.091	3.57
384.457	3.67
384.823	3.69
385.188	3.59
385.554	3.83
385.92	3.86
386.286	3.8
386.651	3.78
387.017	3.66
387.383	3.53
387.748	3.48
388.114	3.69
388.479	3.69
388.845	3.22
389.21	3.73
389.575	3.63
389.94	3.72
390.306	3.96
390.671	3.56
391.036	3.82
391.401	3.58
391.766	3.71
392.131	3.57
392.496	3.91
392.861	3.67
393.226	3.55
393.591	3.38
393.956	3.83
394.32	3.69
394.685	3.68
395.05	3.71
395.414	3.59
395.779	3.38
396.143	3.78
396.508	3.62
396.872	3.68
397.236	3.62
397.601	3.72
397.965	3.64
398.329	3.59
398.694	3.88
399.058	3.68
399.422	3.9
399.786	3.77
400.15	3.64
400.514	3.7
400.878	3.74
401.242	3.58
401.605	3.63
401.969	3.75
402.333	3.72
402.697	3.8
403.06	3.89
403.424	3.55
403.787	3.74
404.151	3.88
404.514	3.92
404.878	3.53
405.241	3.74
405.604	3.97
405.968	3.87
406.331	3.86
406.694	3.8
407.057	3.82
407.42	3.85
407.783	3.69
408.146	3.62
408.509	3.69
408.872	3.79
409.235	3.84
409.598	3.66
409.961	3.55
410.323	3.89
410.686	3.96
411.049	3.73
411.411	3.85
411.774	4
412.136	4.02
412.499	3.66
412.861	3.88
413.223	3.65
413.586	3.67
413.948	4.04
414.31	3.85
414.672	4
415.035	3.97
415.397	3.75
415.759	3.91
416.121	3.8
416.483	3.81
416.845	3.73
417.206	3.87
417.568	3.85
417.93	3.74
418.292	3.74
418.653	3.65
419.015	3.82
419.377	3.71
419.738	3.75
420.1	3.79
420.461	3.75
420.822	3.81
421.184	3.78
421.545	3.7
421.906	3.55
422.267	3.72
422.629	3.64
422.99	3.74
423.351	3.71
423.712	3.79
424.073	3.7
424.434	3.78
424.795	3.8
425.155	3.75
425.516	3.72
425.877	3.77
426.238	3.79
426.598	3.82
426.959	3.7
427.32	3.88
427.68	3.86
428.041	3.82
428.401	4.01
428.761	4.01
429.122	3.85
429.482	3.79
429.842	3.92
430.202	3.8
430.563	3.8
430.923	3.84
431.283	3.88
431.643	3.96
432.003	3.86
432.363	3.71
432.722	4.03
433.082	4.1
433.442	3.91
433.802	4.05
434.161	3.88
434.521	3.94
434.881	3.78
435.24	3.86
435.6	4.04
435.959	3.91
436.319	3.9
436.678	3.92
437.037	3.96
437.396	3.94
437.756	3.93
438.115	3.89
438.474	3.92
438.833	3.94
439.192	4.08
439.551	4.08
439.91	3.91
440.269	3.78
440.628	3.88
440.987	4.07
441.345	3.89
441.704	3.91
442.063	4.04
442.421	3.87
442.78	3.8
443.138	3.84
443.497	3.96
443.855	4.04
444.214	4.04
444.572	4.07
444.93	3.88
445.288	3.97
445.647	3.99
446.005	3.95
446.363	3.94
446.721	3.95
447.079	3.91
447.437	3.94
447.795	3.88
448.153	3.84
448.51	3.93
448.868	3.86
449.226	3.94
449.584	3.94
449.941	4
450.299	3.98
450.656	3.99
451.014	4.06
451.371	4.03
451.729	4.11
452.086	4
452.443	4.1
452.801	4.13
453.158	3.97
453.515	3.98
453.872	4.06
454.229	4.12
454.586	4.19
454.943	4.02
455.3	4.07
455.657	4.11
456.014	4.07
456.371	4.08
456.727	4.02
457.084	3.97
457.441	4.14
457.797	4.02
458.154	3.93
458.51	3.99
458.867	4.21
459.223	4.04
459.58	4.12
459.936	4.05
460.292	4.01
460.648	3.89
461.005	4.01
461.361	3.96
461.717	3.98
462.073	4.09
462.429	4.09
462.785	4.12
463.141	4.13
463.496	4.14
463.852	4.13
464.208	4.2
464.564	3.94
464.919	4.16
465.275	4.16
465.631	4.31
465.986	4.04
466.342	4.22
466.697	4.27
467.052	4.27
467.408	4.13
467.763	4.06
468.118	4.27
468.473	4.15
468.829	3.98
469.184	4.21
469.539	4.29
469.894	4.19
470.249	4.23
470.603	4.23
470.958	4.2
471.313	4.28
471.668	4.19
472.023	4.25
472.377	4.01
472.732	4.32
473.086	4.16
473.441	4.19
473.795	4.21
474.15	4.26
474.504	4.21
474.859	4.28
475.213	4.21
475.567	4.26
475.921	4.17
476.275	4.18
476.63	4.26
476.984	4.21
477.338	4.2
477.692	4.17
478.045	4.26
478.399	4.25
478.753	4.38
479.107	4.19
479.461	4.23
479.814	4.09
480.168	4.16
480.521	4.32
480.875	4.39
481.228	4.31
481.582	4.21
481.935	4.28
482.289	4.27
482.642	4.25
482.995	4.05
483.348	4.15
483.701	4.21
484.055	4.03
484.408	4.05
484.761	4
485.114	3.9
485.466	3.83
485.819	3.89
486.172	4.08
486.525	4.18
486.878	4.21
487.23	4.23
487.583	4.19
487.936	4.14
488.288	4.14
488.641	4.02
488.993	4.04
489.345	3.97
489.698	4.07
490.05	4.14
490.402	4.2
490.754	4.27
491.107	4.23
491.459	4.24
491.811	4.25
492.163	4.32
492.515	4.18
492.866	4.11
493.218	4.04
493.57	4.14
493.922	4.14
494.274	4.29
494.625	4.3
494.977	4.37
495.328	4.37
495.68	4.3
496.031	4.43
496.383	4.33
496.734	4.37
497.086	4.43
497.437	4.41
497.788	4.36
498.139	4.14
498.49	4.31
498.842	4.37
499.193	4.4
499.544	4.39
499.894	4.43
500.245	4.31
500.596	4.33
500.947	4.38
501.298	4.42
501.648	4.36
501.999	4.41
502.35	4.47
502.7	4.39
503.051	4.44
503.401	4.45
503.752	4.41
504.102	4.4
504.452	4.24
504.803	4.44
505.153	4.48
505.503	4.36
505.853	4.4
506.203	4.4
506.553	4.4
506.903	4.57
507.253	4.47
507.603	4.6
507.953	4.57
508.303	4.61
508.652	4.45
509.002	4.51
509.352	4.46
509.701	4.5
510.051	4.43
510.4	4.34
510.75	4.45
511.099	4.42
511.449	4.42
511.798	4.45
512.147	4.39
512.496	4.48
512.846	4.43
513.195	4.51
513.544	4.5
513.893	4.5
514.242	4.47
514.591	4.49
514.939	4.45
515.288	4.52
515.637	4.47
515.986	4.63
516.334	4.48
516.683	4.43
517.032	4.45
517.38	4.38
517.729	4.56
518.077	4.53
518.426	4.56
518.774	4.43
519.122	4.39
519.47	4.44
519.819	4.42
520.167	4.42
520.515	4.39
520.863	4.56
521.211	4.57
521.559	4.5
521.907	4.52
522.255	4.52
522.602	4.59
522.95	4.6
523.298	4.61
523.645	4.55
523.993	4.53
524.341	4.56
524.688	4.56
525.036	4.53
525.383	4.36
525.73	4.66
526.078	4.53
526.425	4.46
526.772	4.41
527.119	4.33
527.466	4.34
527.814	4.42
528.161	4.39
528.508	4.46
528.854	4.42
529.201	4.47
529.548	4.28
529.895	4.27
530.242	4.24
530.588	4.28
530.935	4.37
531.282	4.47
531.628	4.52
531.975	4.57
532.321	4.49
532.667	4.56
533.014	4.56
533.36	4.54
533.706	4.55
534.052	4.5
534.399	4.44
534.745	4.39
535.091	4.36
535.437	4.5
535.783	4.55
536.129	4.63
536.474	4.62
536.82	4.56
537.166	4.66
537.512	4.53
537.857	4.58
538.203	4.52
538.549	4.41
538.894	4.56
539.239	4.67
539.585	4.66
539.93	4.59
540.276	4.72
540.621	4.75
540.966	4.73
541.311	4.54
541.656	4.58
542.001	4.6
542.346	4.5
542.691	4.36
543.036	4.33
543.381	4.45
543.726	4.48
544.071	4.6
544.415	4.65
544.76	4.57
545.105	4.65
545.449	4.66
545.794	4.62
546.138	4.75
546.483	4.71
546.827	4.64
547.171	4.72
547.516	4.74
547.86	4.67
548.204	4.64
548.548	4.6
548.892	4.69
549.236	4.76
549.58	4.93
549.924	4.72
550.268	4.81
550.612	4.92
550.956	4.79
551.3	4.8
551.643	4.68
551.987	4.72
552.33	4.93
552.674	4.81
553.017	4.68
553.361	4.75
553.704	4.86
554.048	4.74
554.391	4.74
554.734	4.71
555.077	4.67
555.42	4.87
555.764	4.83
556.107	4.89
556.45	4.87
556.793	4.7
557.135	4.96
557.478	4.87
557.821	4.88
558.164	4.84
558.507	4.92
558.849	4.89
559.192	4.87
559.534	4.82
559.877	4.87
560.219	4.95
560.562	5.06
560.904	4.68
561.246	4.93
561.589	4.79
561.931	4.9
562.273	4.92
562.615	4.77
562.957	4.89
563.299	5
563.641	4.88
563.983	4.84
564.325	4.96
564.667	5.11
565.008	4.95
565.35	4.89
565.692	4.86
566.033	4.68
566.375	4.83
566.716	4.93
567.058	4.98
567.399	4.77
567.741	4.89
568.082	4.93
568.423	4.84
568.764	4.85
569.105	4.8
569.447	4.9
569.788	4.96
570.129	4.82
570.47	4.85
570.811	4.91
571.151	5.01
571.492	4.97
571.833	4.88
572.174	4.81
572.514	4.97
572.855	4.75
573.195	4.91
573.536	4.98
573.876	4.89
574.217	4.88
574.557	5.06
574.898	4.97
575.238	5.02
575.578	5.05
575.918	4.97
576.258	5.08
576.598	5.04
576.938	5.02
577.278	5.01
577.618	5.07
577.958	4.97
578.298	5.01
578.638	5.18
578.977	5.03
579.317	5.08
579.657	5
579.996	5.01
580.336	5.2
580.675	5.23
581.014	5.12
581.354	5.09
581.693	5.15
582.032	5.04
582.372	4.95
582.711	4.98
583.05	4.91
583.389	4.95
583.728	5.09
584.067	5.18
584.406	4.91
584.745	5.04
585.083	5.12
585.422	5.07
585.761	4.96
586.1	5.1
586.438	5.34
586.777	5.38
587.115	5.23
587.454	5.22
587.792	4.89
588.13	5.16
588.469	5.08
588.807	4.95
589.145	4.98
589.483	5.29
589.821	5.13
590.159	5.43
590.497	5.17
590.835	5.05
591.173	4.98
591.511	5.1
591.849	5.23
592.187	5.43
592.524	5.12
592.862	5.24
593.2	5.24
593.537	4.97
593.875	5.31
594.212	5.24
594.55	5.2
594.887	5.34
595.224	5.16
595.561	5.21
595.899	4.93
596.236	5.44
596.573	5.07
596.91	5.33
597.247	4.82
597.584	5.13
597.921	5.12
598.258	4.97
598.594	4.97
598.931	5.08
599.268	5
599.604	5.14
599.941	4.95
600.277	5.14
600.614	5.47
600.95	5.2
601.287	5.3
601.623	5.38
601.959	5.19
602.296	5.43
602.632	5.27
602.968	5.4
603.304	5.04
603.64	5.2
603.976	5.01
604.312	5.02
604.648	5.34
604.984	5.35
605.319	5.13
605.655	5.18
605.991	5.16
606.326	5.28
606.662	5.15
606.998	5.03
607.333	5.24
607.668	5.3
608.004	5.4
608.339	5.3
608.674	5.32
609.01	5.19
609.345	5.11
609.68	5.48
610.015	5.51
610.35	5
610.685	5.22
611.02	5.19
611.355	5.09
611.689	5.15
612.024	5.57
612.359	5.4
612.694	5.37
613.028	5.33
613.363	5.27
613.697	5.23
614.032	5.39
614.366	5.38
614.7	5.19
615.035	5.42
615.369	5.34
615.703	5.33
616.037	5.26
616.371	5.25
616.705	5.23
617.039	5.4
617.373	5.63
617.707	5.08
618.041	5.41
618.375	5.32
618.709	5.28
619.042	5.42
619.376	5.46
619.71	5.38
620.043	5.78
620.377	5.38
620.71	5.16
621.043	5.29
621.377	5.46
621.71	5.23
622.043	5.41
622.376	5.33
622.709	5.17
623.043	5.44
623.376	5.16
623.709	5.4
624.041	5.4
624.374	5.38
624.707	5.18
625.04	5.37
625.373	5.27
625.705	5.31
626.038	5.27
626.37	5.49
626.703	6.04
627.035	5.56
627.368	5.66
627.7	5.44
628.032	5.46
628.365	5.3
628.697	5.47
629.029	5.41
629.361	5.3
629.693	5.9
630.025	5.39
630.357	5.52
630.689	5.57
631.021	5.3
631.353	5.62
631.684	5.62
632.016	5.89
632.348	5.4
632.679	5.21
633.011	5.46
633.342	5.67
633.674	5.81
634.005	5.43
634.336	5.44
634.668	5.57
634.999	5.59
635.33	6.02
635.661	5.49
635.992	5.41
636.323	5.47
636.654	5.62
636.985	5.68
637.316	5.85
637.647	5.34
637.977	5.53
638.308	5.16
638.639	5.4
638.969	5.5
639.3	5.81
639.63	5.45
639.961	5.73
640.291	5.5
640.622	5.92
640.952	5.97
641.282	5.66
641.612	5.29
641.943	5.46
642.273	5.77
642.603	5.46
642.933	5.42
643.263	5.77
643.592	5.91
643.922	5.64
644.252	5.66
644.582	5.82
644.911	5.96
645.241	5.8
645.571	5.75
645.9	5.62
646.23	5.29
646.559	5.65
646.888	5.82
647.218	5.6
647.547	5.5
647.876	5.26
648.205	5.62
648.534	5.81
648.863	5.99
649.192	5.54
649.521	5.5
649.85	6.14
650.179	6.03
650.508	5.8
650.837	5.56
651.165	5.83
651.494	5.77
651.822	6.09
652.151	5.78
652.479	5.93
652.808	5.94
653.136	5.64
653.465	6.02
653.793	5.65
654.121	5.52
654.449	6.01
654.777	5.44
655.105	6.18
655.433	6.09
655.761	6.2
656.089	5.87
656.417	5.71
656.745	5.8
657.073	5.68
657.4	5.78
657.728	5.54
658.056	5.59
658.383	5.9
658.711	6.03
659.038	5.56
659.365	5.77
659.693	5.86
660.02	6.13
660.347	5.89
660.674	5.8
661.001	5.78
661.329	6.02
661.656	5.66
661.982	5.95
662.309	6.15
662.636	6.09
662.963	5.95
663.29	6.1
663.616	5.59
663.943	6.07
664.27	5.6
664.596	5.56
664.923	5.82
665.249	6.68
665.576	6.11
665.902	6.37
666.228	6.62
666.554	5.98
666.881	5.84
667.207	6.2
667.533	6.05
667.859	6.42
668.185	6.6
668.511	5.72
668.837	6.16
669.162	6.49
669.488	6.13
669.814	6.23
670.139	5.65
670.465	6.64
670.791	6.2
671.116	6
671.442	6.08
671.767	6.04
672.092	6.26
672.418	6.12
672.743	6.06
673.068	6.67
673.393	6.4
673.718	5.87
674.043	6.49
674.368	5.67
674.693	5.8
675.018	6.04
675.343	6.05
675.667	6.48
675.992	6.34
676.317	6.07
676.641	6.28
676.966	5.83
677.29	5.45
677.615	5.82
677.939	6.04
678.264	5.66
678.588	5.58
678.912	6.03
679.236	5.88
679.56	6.06
679.885	6.15
680.209	6.44
680.532	6.17
680.856	5.94
681.18	6.17
681.504	5.9
681.828	5.94
682.152	5.8
682.475	6.15
682.799	6.25
683.122	6.26
683.446	6.59
683.769	7.06
684.093	7.05
684.416	6.72
684.739	6.43
685.062	6.41
685.386	6.56
685.709	6.28
686.032	6.16
686.355	6.37
686.678	6.26
687.001	6.41
687.324	6.97
687.646	6.28
687.969	5.83
688.292	6.83
688.614	6.09
688.937	6.08
689.26	6.65
689.582	6.3
689.904	6.47
690.227	6.29
690.549	6.15
690.871	6.89
691.194	5.89
691.516	6.35
691.838	5.81
692.16	6.13
692.482	6.3
692.804	6.57
693.126	6.49
693.448	6.35
693.769	6.66
694.091	5.82
694.413	6.52
694.735	6.81
695.056	6.67
695.378	6.29
695.699	6.09
696.021	6.18
696.342	6.61
696.663	5.83
696.984	6.54
697.306	6.6
697.627	6.93
697.948	6.72
698.269	6.64
698.59	6.96
698.911	6.71
699.232	7.26
699.553	7.27
699.873	6.41
700.194	6.17
700.515	6.14
700.835	5.99
701.156	5.93
701.477	6.5
701.797	6.65
702.117	6.53
702.438	6.49
702.758	7.17
703.078	6.66
703.398	6.14
703.719	6.68
704.039	6.41
704.359	7.64
704.679	6.47
704.999	6.8
705.319	6.11
705.638	6.68
705.958	6.39
706.278	6.31
706.597	6.93
706.917	6.79
707.237	6.07
707.556	6.52
707.876	7.08
708.195	7.01
708.514	5.62
708.834	6.82
709.153	7.09
709.472	6.71
709.791	6.5
710.11	6.89
710.429	6.62
710.748	7.34
711.067	6.82
711.386	6.72
711.705	6.46
712.023	6.46
712.342	6.99
712.661	6.93
712.979	6.68
713.298	6.86
713.616	6.94
713.935	6.59
714.253	7.29
714.572	6.04
714.89	6.85
715.208	6.09
715.526	6.85
715.844	8.33
716.162	7.11
716.48	6.8
716.798	7.07
717.116	6.91
717.434	7.57
717.752	6.11
718.069	6.12
718.387	5.74
718.705	7.67
719.022	6.66
719.34	6.48
719.657	7.28
719.975	6.68
720.292	7.12
720.609	6.99
720.927	5.43
721.244	7.38
721.561	7.5
721.878	7.64
722.195	8.15
722.512	5.96
722.829	7.15
723.146	5
723.463	7.43
723.779	8.06
724.096	6.71
724.413	7.77
724.729	7.14
725.046	5.7
725.362	7.57
725.679	7.3
725.995	8.64
726.311	6.89
726.628	8.65
726.944	7.63
727.26	7.22
727.576	6.16
727.892	7.71
728.208	7.61
728.524	6
728.84	6.89
729.156	7.3
729.472	6.72
729.787	8.01
730.103	8.36
730.419	6.13
730.734	7.43
731.05	7.44
731.365	7.42
731.681	6.94
731.996	7.69
732.311	8.05
732.626	7.75
732.942	7.3
733.257	8.18
733.572	7.89
733.887	7.46
734.202	7.82
734.517	7.46
734.832	8.44
735.146	7.86
735.461	6.34
735.776	7.56
736.091	7.37
736.405	7.19
736.72	5.91
737.034	8.05
737.349	7.71
737.663	7.9
737.977	7.73
738.292	7.36
738.606	6.77
738.92	8.41
739.234	7.13
739.548	7.41
739.862	7.9
740.176	7.44
740.49	6.81
740.804	8.53
741.117	8.02
741.431	8.31
741.745	7.16
742.058	8.32
742.372	8.34
742.685	6.62
742.999	8.72
743.312	8.07
743.626	8.92
743.939	7.69
744.252	7.48
744.565	8.2
744.878	7.54
745.191	8.49
745.505	7.3
745.817	5.88
746.13	7.75
746.443	5.03
746.756	6.87
747.069	6.5
747.381	6.08
747.694	5.34
748.007	8.68
748.319	8.5
748.632	8.64
748.944	7.06
749.256	8.33
749.569	5.93
749.881	5.87
750.193	7.72
750.505	8.29
750.817	6.99
751.129	6.56
751.441	8.89
751.753	7.7
752.065	8.38
752.377	8.2
752.689	8.59
753	8.19
753.312	6.66
753.624	5.22
753.935	8.63
754.247	7.75
754.558	8.33
754.869	7.65
755.181	7
755.492	7.6
755.803	8.23
756.114	8.72
756.425	8.48
756.736	7.41
757.047	4.97
757.358	7.29
757.669	8.99
757.98	9.06
758.291	8.72
758.601	7.03
758.912	8.16
759.223	9.51
759.533	6.15
759.844	8.72
760.154	7.35
760.464	8.58
760.775	8.66
761.085	8.05
761.395	9.55
761.705	8.67
762.016	8.97
762.326	6.56
762.636	9.28
762.945	8.81
763.255	6.37
763.565	8.37
763.875	7.69
764.185	7.16
764.494	6.15
764.804	9.48
765.113	7.97
765.423	7.84
765.732	7.97
766.042	8.73
766.351	8.67
766.66	8.55
766.97	8.14
767.279	10.48
767.588	7.82
767.897	7.25
768.206	8.27
768.515	8.15
768.824	9.2
769.133	7.91
769.441	8.66
769.75	7.46
770.059	7.77
770.367	7.75
770.676	6.81
770.984	11.06
771.293	9.96
771.601	9.22
771.91	7.99
772.218	9.23
772.526	7.64
772.834	7.6
773.142	10.73
773.45	9.58
773.758	6.04
774.066	5.8
774.374	9.72
774.682	6.68
774.99	6.94
775.298	10.42
775.605	8.44
775.913	11.34
776.22	7.84
776.528	9.85
776.835	11.08
777.143	10.5
777.45	9.4
777.757	11.1
778.065	6.5
778.372	9.5
778.679	10.53
778.986	7.87
779.293	8.36
779.6	8.01
779.907	10.51
780.214	8.41
780.52	6.08
780.827	9.14
781.134	7.58
781.44	9.95
781.747	8.77
782.053	7.07
782.36	7.58
782.666	9.45
782.973	7.65
783.279	10.56
783.585	7.64
783.891	5.04
784.197	8.31
784.503	9.39
784.809	9.98
785.115	10.91
785.421	7.72
785.727	7.86
786.033	8.09
786.339	9.94
786.644	9.24
786.95	11.73
787.255	9.82
787.561	2.73
787.866	8.71
788.172	9.39
788.477	8.09
788.782	10.14
789.088	10.34
789.393	7.84
789.698	7.25
790.003	10.02
790.308	6.73
790.613	7.11
790.918	4.93
791.223	11.51
791.527	10.11
791.832	10.49
792.137	11.87
792.441	6.47
792.746	8.65
793.05	9.5
793.355	11.22
793.659	8.72
793.963	10.02
794.268	13.3
794.572	10.55
794.876	6.4
795.18	8.49
795.484	11.28
795.788	7.6
796.092	11.35
796.396	9.36
796.7	9.55
797.004	12.06
797.307	6.45
797.611	9.61
797.915	7.24
798.218	11.45
798.522	7.1
798.825	10.4
799.128	8.06
799.432	7.38
799.735	8.61
800.038	9.96
800.341	5.69
800.644	10.54
800.947	8.17
801.25	10.71
801.553	11.55
801.856	9.94
802.159	8.52
802.462	9.49
802.764	6.7
803.067	8.58
803.37	6.65
803.672	11.89
803.975	7.73
804.277	7.62
804.579	4.57
804.882	12.5
805.184	4.21
805.486	15.97
805.788	10.98
806.09	3.44
806.392	11.59
806.694	11.55
806.996	13.15
807.298	9.69
807.6	8.31
807.902	9.13
808.203	3.38
808.505	9.81
808.807	10.14
809.108	4.14
809.409	11.34
809.711	9.91
810.012	12.65
810.313	11.09
810.615	9.4
810.916	13.72
811.217	9.41
811.518	4.03
811.819	10.69
812.12	4.87
812.421	14.36
812.722	13.84
813.023	7.37
813.323	7.66
813.624	11.38
813.925	5.17
814.225	13.32
814.526	8.08
814.826	9.4
815.126	5.53
815.427	9.29
815.727	11.3
816.027	11.05
816.327	7.43
816.627	11.88
816.927	9.04
817.227	11.92
817.527	3.9
817.827	10.87
818.127	8.63
818.427	8.93
818.727	10.67
819.026	8.29
819.326	11.81
819.625	8.38
819.925	11.51
820.224	10.13
820.524	12.4
820.823	11.62
821.122	7.81
821.421	13.9
821.72	13.18
822.019	5.05
822.318	6.13
822.617	13.2
822.916	7.68
823.215	12
823.514	11
823.813	10.93
824.111	10.67
824.41	9.35
824.709	9.83
825.007	10.12
825.306	10.4
825.604	10.22
825.902	10.09
826.201	10.91
826.499	11.44
826.797	9.53
827.095	11.05
827.393	10.96
827.691	10.79
827.989	9.29
828.287	11.88
828.585	11.19
828.882	10.12
829.18	8.45
829.478	10.09
829.775	11.93
830.073	11.04
830.37	10.25
830.668	8.74
830.965	7.67
831.263	8.73
831.56	7.17
831.857	12.43
832.154	12.25
832.451	11.49
832.748	9.36
833.045	11.55
833.342	13.17
833.639	7.3
833.936	13.95
834.232	8.84
834.529	7.11
834.826	13.9
835.122	11.34
835.419	7.25
835.715	13.21
836.012	11.4
836.308	13.85
836.604	10.57
836.901	9.69
837.197	12.39
837.493	7.92
837.789	12.69
838.085	11.68
838.381	10.92
838.677	9.4
838.972	10.68
839.268	12.02
839.564	12.73
839.86	5.63
840.155	10.62
840.451	12.06
840.746	14.81
841.042	12.86
841.337	13.64
841.632	4.06
841.928	15.21
842.223	17.84
842.518	12.08
842.813	12.01
843.108	16.35
843.403	14.23
843.698	11.42
843.993	4.12
844.287	8.81
844.582	9.2
844.877	9.01
845.171	7.22
845.466	13.05
845.761	19.91
846.055	16.26
846.349	13.89
846.644	2.57
846.938	-5.31
847.232	6.3
847.526	8.95
847.82	17.54
848.114	17.39
848.408	1.55
848.702	14.31
848.996	10.45
849.29	11.75
849.584	15.35
849.877	-9.32
850.171	8.76
850.465	17
850.758	10.19
851.052	9.6
851.345	13.82
851.638	16.62
851.932	15.66
852.225	13.82
852.518	17.39
852.811	-6.42
853.104	9.33
853.397	27.27
853.69	25.99
853.983	9.59
854.276	0.42
854.569	17.28
854.861	24.61
855.154	13.4
855.447	17.48
855.739	-5.5
856.032	0.67
856.324	19.87
856.616	21.64
856.909	42.88
857.201	12.61
857.493	-18.15
857.785	29.87
858.077	10.19
858.369	-7.33
858.661	24.63
858.953	24.79
859.245	18.09
859.537	8.46
859.829	-0.14
860.12	24.2
860.412	13.44
860.703	8.84
860.995	-2.21
861.286	-12.11
861.578	-1.41
861.869	6.15
862.16	16.82
862.452	5.28
862.743	-9.1
863.034	0.06
863.325	12.46
863.616	20.87
863.907	-0.92
864.198	-9.19
864.488	24.61
864.779	13.06
865.07	25.5
865.36	-0.17
865.651	18.54
865.941	27.26
866.232	5.09
866.522	27.58
866.813	19.23
867.103	8.54
867.393	7.93
867.683	19.81
867.973	25.28
868.263	-12.58
868.553	-9.51
868.843	20.5
869.133	12.77
869.423	13.42
869.713	-1.25
870.002	8.01
870.292	30.29
870.582	11.95
870.871	-4.96
871.161	-0.58
871.45	15.48
871.739	17.85
872.029	29.95
872.318	39.95
872.607	10.73
872.896	18.65
873.185	8.72
873.474	30.14
873.763	2.62
874.052	-4.19
874.341	12.88
874.63	31.06
874.918	23.87
875.207	0.59
875.496	-24.75
875.784	52.69
876.073	45.18
876.361	-4.46
876.649	32.59
876.938	0.31
877.226	1.46
877.514	3.81
877.802	5.04
878.09	23.15
878.378	27.15
878.666	12.89
878.954	21.95
879.242	9.13
879.53	3.12
879.817	17.58
880.105	7.87
880.392	11.61
880.68	-11.89
880.967	13.9
881.255	5.4
881.542	-14.4
881.83	23.29
882.117	32.27
882.404	21.2
882.691	13.79
882.978	7.85
883.265	20.94
883.552	4.03
883.839	29.91
884.126	12.83
884.413	13.58
884.699	26.03
884.986	10.39
885.273	13.34
885.559	13.34
885.846	13.34
