Data from 1886-1_chest_Reflection__1__77.txt Node

Date: Fri Sep 30 18:22:14 CDT 2022
User: ToomeyLab
Spectrometer: FLMS14357
Trigger mode: 0
Integration Time (sec): 1.000000E-2
Scans to average: 100
Electric dark correction enabled: true
Nonlinearity correction enabled: false
Boxcar width: 0
XAxis mode: Wavelengths
Number of Pixels in Spectrum: 2048
>>>>>Begin Spectral Data<<<<<
189.047	2168.89
189.435	2168.89
189.823	2168.89
190.211	-82.37
190.599	-580.35
190.987	122.34
191.375	9.27
191.763	2189.47
192.151	0.78
192.538	-50.92
192.926	-267.33
193.314	-1764.1
193.702	193.06
194.089	18.13
194.477	127.58
194.864	250.94
195.252	79.75
195.639	-1477.86
196.027	-74.58
196.414	42.41
196.801	56.65
197.189	-322.84
197.576	-338.39
197.963	147.77
198.351	31.27
198.738	-32.3
199.125	39.53
199.512	18.29
199.899	-37.07
200.286	11.34
200.673	57.02
201.06	11.5
201.447	-12.36
201.833	46.95
202.22	17.44
202.607	17.09
202.994	45.52
203.38	8.18
203.767	-5.02
204.154	43.31
204.54	38.96
204.927	37.85
205.313	-0.14
205.699	41.3
206.086	-29.85
206.472	10.46
206.858	14.57
207.245	13.22
207.631	-14.48
208.017	-11.85
208.403	-3.52
208.789	32.79
209.175	13.52
209.561	-17.79
209.947	-5.72
210.333	-51.09
210.719	-17.75
211.105	-37.07
211.491	-14.74
211.876	27.57
212.262	16.99
212.648	24.3
213.034	-2.11
213.419	15.23
213.805	-26.35
214.19	1.14
214.576	19.76
214.961	14.32
215.346	5.91
215.732	-12.02
216.117	-36.17
216.502	14.59
216.888	29.65
217.273	6.63
217.658	25.77
218.043	12.98
218.428	1.13
218.813	18.01
219.198	10.7
219.583	16.7
219.968	9.17
220.353	11.91
220.738	28.91
221.122	-0.24
221.507	22.01
221.892	11.75
222.276	-3.46
222.661	0.45
223.046	-7.04
223.43	-6.33
223.815	12.2
224.199	2.25
224.583	-1.7
224.968	-0.68
225.352	4.77
225.736	2.46
226.121	6.17
226.505	-7.91
226.889	0
227.273	-7.3
227.657	9.22
228.041	1.49
228.425	4.41
228.809	1.7
229.193	4.19
229.577	0.5
229.961	0.76
230.344	0.76
230.728	0.84
231.112	0.84
231.495	0.41
231.879	1.46
232.263	0.93
232.646	0.19
233.03	1.1
233.413	-0.27
233.797	0.93
234.18	0.74
234.563	1.38
234.946	0.83
235.33	0.71
235.713	3.5
236.096	2.04
236.479	2.22
236.862	0.8
237.245	2.62
237.628	2.33
238.011	2.52
238.394	2.11
238.777	0.45
239.16	-0.79
239.543	0.44
239.925	0.5
240.308	-0.08
240.691	1.65
241.073	1.45
241.456	1.2
241.838	1.59
242.221	1.03
242.603	0.99
242.986	1.46
243.368	0.35
243.75	0.87
244.133	1.31
244.515	1.34
244.897	1.39
245.279	1.83
245.661	1.2
246.043	0.48
246.425	1.01
246.807	1.5
247.189	1.8
247.571	1.75
247.953	1.75
248.335	1.32
248.717	1.27
249.098	1.36
249.48	1.23
249.862	1.36
250.243	1.18
250.625	1.64
251.006	1.12
251.388	0.42
251.769	2.53
252.151	1.46
252.532	1.21
252.913	0.95
253.295	1.53
253.676	1.32
254.057	1.27
254.438	1.17
254.819	1.54
255.2	1.62
255.581	1.63
255.962	1.34
256.343	1.7
256.724	0.67
257.105	2.99
257.486	2.04
257.867	1.19
258.247	1.39
258.628	1.58
259.009	1.92
259.389	1.07
259.77	1.7
260.15	1.25
260.531	1.93
260.911	1.07
261.292	1.14
261.672	1.33
262.052	1.25
262.432	1.26
262.813	1.71
263.193	1.32
263.573	1.49
263.953	1.23
264.333	1.44
264.713	0.86
265.093	1.04
265.473	1.54
265.853	1.39
266.233	0.95
266.612	1.26
266.992	1.6
267.372	0.95
267.752	1.21
268.131	1.53
268.511	1.23
268.89	0.81
269.27	1.48
269.649	1.1
270.029	1.76
270.408	1.03
270.787	0.62
271.167	1.63
271.546	1.43
271.925	1.78
272.304	1.96
272.683	1.35
273.062	1.18
273.441	1.05
273.82	0.84
274.199	1.22
274.578	0.75
274.957	1.33
275.336	1.27
275.715	1.36
276.093	1.04
276.472	1.02
276.851	1.49
277.229	0.9
277.608	1.06
277.986	0.56
278.365	1.79
278.743	0.95
279.122	1.59
279.5	1.69
279.878	0.99
280.257	1.09
280.635	1.56
281.013	1.71
281.391	0.97
281.769	1.64
282.147	1.24
282.525	1.26
282.903	0.97
283.281	0.82
283.659	1.14
284.037	1.26
284.415	1.21
284.792	1.35
285.17	0.76
285.548	1.44
285.925	1.42
286.303	1.09
286.68	0.93
287.058	0.9
287.435	1.31
287.813	1.29
288.19	1.38
288.567	1.04
288.945	1
289.322	1.19
289.699	1.06
290.076	0.92
290.453	1.65
290.83	1.66
291.207	1.14
291.584	0.85
291.961	1.02
292.338	1.17
292.715	1.62
293.092	1.28
293.469	1.23
293.845	2.12
294.222	1.09
294.599	1.81
294.975	2.14
295.352	1.54
295.728	1.38
296.105	1.15
296.481	1.66
296.858	1.15
297.234	1.35
297.61	1.14
297.986	1.13
298.363	1.56
298.739	1.26
299.115	1.21
299.491	1.43
299.867	1.59
300.243	1.2
300.619	1.12
300.995	1.87
301.371	1.62
301.746	1.35
302.122	2.06
302.498	1.8
302.874	2.25
303.249	1.49
303.625	1.65
304	1.75
304.376	1.5
304.751	1.47
305.127	1.51
305.502	1.63
305.878	1.76
306.253	1.55
306.628	1.34
307.003	1.05
307.378	1.6
307.754	1.38
308.129	1.85
308.504	1.1
308.879	1.37
309.254	1.33
309.629	1.65
310.003	1.7
310.378	1.26
310.753	1.3
311.128	1.51
311.502	1.7
311.877	1.65
312.252	1.68
312.626	1.44
313.001	1.51
313.375	1.35
313.75	1.83
314.124	1.86
314.498	1.78
314.873	1.48
315.247	1
315.621	1.99
315.995	1.86
316.369	1.21
316.743	1.52
317.117	2.14
317.491	2.31
317.865	2.47
318.239	1.83
318.613	1.92
318.987	1.69
319.361	1.52
319.734	1.28
320.108	2.16
320.482	1.47
320.855	1.65
321.229	2.18
321.602	1.28
321.976	1.61
322.349	2.1
322.723	1.49
323.096	2.17
323.469	2.45
323.843	1.31
324.216	1.84
324.589	2.45
324.962	1.97
325.335	1.41
325.708	1.17
326.081	1.45
326.454	1.72
326.827	2.09
327.2	1.53
327.573	1.54
327.945	1.49
328.318	1.7
328.691	1.74
329.063	1.76
329.436	1.56
329.809	1.85
330.181	1.58
330.553	1.92
330.926	1.67
331.298	1.31
331.671	1.35
332.043	1.52
332.415	1.53
332.787	1.83
333.159	1.9
333.532	2.26
333.904	2.03
334.276	1.76
334.648	1.53
335.02	2.17
335.391	1.62
335.763	1.76
336.135	1.94
336.507	1.86
336.879	1.79
337.25	1.29
337.622	1.84
337.993	1.51
338.365	1.76
338.736	2.11
339.108	1.71
339.479	2.03
339.851	1.49
340.222	2.15
340.593	1.55
340.964	1.58
341.336	1.72
341.707	1.61
342.078	1.83
342.449	1.67
342.82	1.5
343.191	1.51
343.562	1.64
343.933	1.83
344.303	1.54
344.674	1.36
345.045	1.56
345.416	1.67
345.786	1.53
346.157	2.29
346.527	1.8
346.898	1.66
347.268	1.6
347.639	1.28
348.009	1.89
348.38	1.96
348.75	2.58
349.12	1.79
349.49	2.06
349.861	1.48
350.231	1.73
350.601	1.97
350.971	1.22
351.341	1.93
351.711	1.43
352.081	1.68
352.45	2.26
352.82	1.82
353.19	2.03
353.56	1.56
353.929	1.39
354.299	1.86
354.669	1.51
355.038	1.85
355.408	1.86
355.777	1.83
356.147	1.67
356.516	2
356.885	1.51
357.254	2.15
357.624	1.84
357.993	1.26
358.362	1.94
358.731	1.75
359.1	1.49
359.469	1.62
359.838	1.92
360.207	1.67
360.576	1.66
360.945	1.72
361.314	1.56
361.682	1.46
362.051	1.67
362.42	1.75
362.788	1.82
363.157	1.59
363.525	1.44
363.894	1.64
364.262	1.81
364.631	2.12
364.999	1.87
365.367	2.24
365.735	1.51
366.104	1.51
366.472	2.04
366.84	2.11
367.208	1.89
367.576	2.16
367.944	1.88
368.312	1.6
368.68	1.53
369.048	1.63
369.416	2
369.783	1.78
370.151	1.59
370.519	1.89
370.886	2.07
371.254	1.77
371.621	1.99
371.989	2.11
372.356	1.93
372.724	1.69
373.091	1.49
373.458	1.41
373.826	2.15
374.193	2.16
374.56	2.04
374.927	2.01
375.294	2.07
375.661	1.78
376.028	1.93
376.395	1.72
376.762	1.77
377.129	2.46
377.496	1.94
377.863	1.52
378.229	2.03
378.596	1.91
378.963	2.2
379.329	1.83
379.696	2.1
380.062	1.81
380.429	1.8
380.795	1.68
381.161	1.66
381.528	1.79
381.894	1.61
382.26	1.76
382.626	1.78
382.993	2.19
383.359	2.01
383.725	1.5
384.091	1.86
384.457	2.05
384.823	1.83
385.188	1.9
385.554	1.71
385.92	1.89
386.286	2.09
386.651	2.1
387.017	1.75
387.383	1.99
387.748	1.61
388.114	2.06
388.479	1.98
388.845	1.94
389.21	1.93
389.575	1.97
389.94	1.86
390.306	2.17
390.671	1.91
391.036	2.1
391.401	1.77
391.766	1.86
392.131	1.7
392.496	2
392.861	2.05
393.226	1.73
393.591	1.77
393.956	1.98
394.32	2.13
394.685	1.71
395.05	2
395.414	1.96
395.779	1.77
396.143	2.11
396.508	1.87
396.872	1.98
397.236	1.74
397.601	2.09
397.965	2.25
398.329	1.89
398.694	2.16
399.058	1.99
399.422	2.25
399.786	1.8
400.15	2.04
400.514	1.83
400.878	2.09
401.242	1.7
401.605	2.01
401.969	1.95
402.333	2.1
402.697	2.24
403.06	1.87
403.424	1.95
403.787	2.14
404.151	2.14
404.514	2.11
404.878	1.91
405.241	1.89
405.604	2.14
405.968	1.95
406.331	1.81
406.694	1.94
407.057	1.91
407.42	2.17
407.783	1.88
408.146	1.97
408.509	1.99
408.872	1.85
409.235	2.08
409.598	1.98
409.961	2.07
410.323	2.18
410.686	2.09
411.049	2
411.411	1.88
411.774	2.13
412.136	2.13
412.499	1.77
412.861	1.8
413.223	1.77
413.586	2.14
413.948	2.19
414.31	2.08
414.672	2.07
415.035	2.09
415.397	2.18
415.759	1.94
416.121	1.89
416.483	1.88
416.845	1.99
417.206	2.18
417.568	1.99
417.93	1.89
418.292	2.08
418.653	1.99
419.015	2.12
419.377	1.95
419.738	2.05
420.1	2
420.461	2.19
420.822	2.03
421.184	1.94
421.545	1.83
421.906	1.78
422.267	1.85
422.629	2.01
422.99	1.91
423.351	1.95
423.712	2
424.073	2.02
424.434	2.07
424.795	2.05
425.155	1.97
425.516	2
425.877	2.03
426.238	1.97
426.598	1.99
426.959	1.99
427.32	2.03
427.68	2.12
428.041	1.95
428.401	2.16
428.761	2.08
429.122	2.15
429.482	2.1
429.842	2.09
430.202	2.07
430.563	2.22
430.923	2.06
431.283	1.96
431.643	2.08
432.003	1.97
432.363	2.17
432.722	2.21
433.082	2.25
433.442	2.13
433.802	2.06
434.161	2.17
434.521	2.13
434.881	1.93
435.24	1.99
435.6	2.28
435.959	2.08
436.319	2.14
436.678	2.07
437.037	2.16
437.396	2.17
437.756	1.96
438.115	1.94
438.474	2.25
438.833	2.12
439.192	2.1
439.551	2.1
439.91	2.03
440.269	1.84
440.628	2.17
440.987	2.13
441.345	2.1
441.704	2.06
442.063	2.19
442.421	2.15
442.78	2.04
443.138	1.97
443.497	2.09
443.855	2.22
444.214	2.19
444.572	2.25
444.93	2.01
445.288	2.17
445.647	2.12
446.005	2.2
446.363	2.15
446.721	2.08
447.079	2.09
447.437	2.16
447.795	2.09
448.153	2.11
448.51	2.09
448.868	2.17
449.226	2.12
449.584	2.14
449.941	2.1
450.299	2.18
450.656	2.25
451.014	2.27
451.371	2.26
451.729	2.28
452.086	2.09
452.443	2.27
452.801	2.28
453.158	2.07
453.515	2.24
453.872	2.19
454.229	2.11
454.586	2.34
454.943	2.25
455.3	2.24
455.657	2.31
456.014	2.15
456.371	2.16
456.727	2.18
457.084	2.08
457.441	2.26
457.797	2.28
458.154	2.05
458.51	2.1
458.867	2.27
459.223	2.12
459.58	2.2
459.936	2.29
460.292	2.21
460.648	2.06
461.005	2.31
461.361	2.1
461.717	2.12
462.073	2.2
462.429	2.18
462.785	2.25
463.141	2.38
463.496	2.26
463.852	2.33
464.208	2.37
464.564	2.14
464.919	2.3
465.275	2.32
465.631	2.3
465.986	2.17
466.342	2.26
466.697	2.32
467.052	2.5
467.408	2.41
467.763	2.23
468.118	2.38
468.473	2.3
468.829	2.13
469.184	2.18
469.539	2.43
469.894	2.34
470.249	2.28
470.603	2.36
470.958	2.25
471.313	2.25
471.668	2.14
472.023	2.26
472.377	2.17
472.732	2.37
473.086	2.27
473.441	2.32
473.795	2.24
474.15	2.29
474.504	2.46
474.859	2.47
475.213	2.3
475.567	2.6
475.921	2.26
476.275	2.26
476.63	2.32
476.984	2.2
477.338	2.29
477.692	2.39
478.045	2.44
478.399	2.32
478.753	2.48
479.107	2.27
479.461	2.24
479.814	2.2
480.168	2.42
480.521	2.24
480.875	2.43
481.228	2.25
481.582	2.38
481.935	2.37
482.289	2.4
482.642	2.36
482.995	2.34
483.348	2.32
483.701	2.38
484.055	2.28
484.408	2.29
484.761	2.15
485.114	2.12
485.466	2.08
485.819	2.11
486.172	2.23
486.525	2.27
486.878	2.35
487.23	2.33
487.583	2.25
487.936	2.35
488.288	2.3
488.641	2.26
488.993	2.27
489.345	2.17
489.698	2.24
490.05	2.29
490.402	2.32
490.754	2.34
491.107	2.34
491.459	2.4
491.811	2.36
492.163	2.46
492.515	2.31
492.866	2.22
493.218	2.22
493.57	2.28
493.922	2.29
494.274	2.37
494.625	2.46
494.977	2.48
495.328	2.54
495.68	2.34
496.031	2.42
496.383	2.41
496.734	2.53
497.086	2.44
497.437	2.54
497.788	2.51
498.139	2.4
498.49	2.38
498.842	2.43
499.193	2.51
499.544	2.47
499.894	2.45
500.245	2.5
500.596	2.35
500.947	2.5
501.298	2.65
501.648	2.52
501.999	2.43
502.35	2.55
502.7	2.55
503.051	2.52
503.401	2.55
503.752	2.52
504.102	2.61
504.452	2.59
504.803	2.47
505.153	2.57
505.503	2.48
505.853	2.5
506.203	2.47
506.553	2.62
506.903	2.61
507.253	2.52
507.603	2.66
507.953	2.8
508.303	2.66
508.652	2.51
509.002	2.67
509.352	2.56
509.701	2.49
510.051	2.72
510.4	2.6
510.75	2.54
511.099	2.41
511.449	2.59
511.798	2.5
512.147	2.55
512.496	2.54
512.846	2.57
513.195	2.69
513.544	2.65
513.893	2.6
514.242	2.61
514.591	2.68
514.939	2.65
515.288	2.71
515.637	2.51
515.986	2.72
516.334	2.65
516.683	2.57
517.032	2.66
517.38	2.6
517.729	2.8
518.077	2.66
518.426	2.68
518.774	2.69
519.122	2.62
519.47	2.65
519.819	2.66
520.167	2.75
520.515	2.59
520.863	2.72
521.211	2.68
521.559	2.79
521.907	2.76
522.255	2.63
522.602	2.78
522.95	2.76
523.298	2.74
523.645	2.7
523.993	2.83
524.341	2.73
524.688	2.72
525.036	2.78
525.383	2.63
525.73	2.79
526.078	2.82
526.425	2.66
526.772	2.77
527.119	2.64
527.466	2.62
527.814	2.72
528.161	2.72
528.508	2.74
528.854	2.71
529.201	2.67
529.548	2.67
529.895	2.64
530.242	2.6
530.588	2.62
530.935	2.71
531.282	2.78
531.628	2.8
531.975	2.8
532.321	2.75
532.667	2.85
533.014	2.87
533.36	2.83
533.706	2.85
534.052	2.82
534.399	2.78
534.745	2.85
535.091	2.73
535.437	2.8
535.783	2.84
536.129	2.91
536.474	2.85
536.82	2.9
537.166	3.04
537.512	3.02
537.857	2.95
538.203	2.87
538.549	2.84
538.894	2.94
539.239	2.96
539.585	3.01
539.93	2.97
540.276	2.98
540.621	3.09
540.966	3.06
541.311	2.98
541.656	2.98
542.001	2.93
542.346	2.94
542.691	2.84
543.036	2.87
543.381	2.88
543.726	2.99
544.071	3.08
544.415	3.02
544.76	3.06
545.105	3.09
545.449	3.12
545.794	3.06
546.138	3.19
546.483	3.2
546.827	3.14
547.171	3.13
547.516	3.16
547.86	3.07
548.204	3.12
548.548	3.17
548.892	3.2
549.236	3.19
549.58	3.31
549.924	3.14
550.268	3.33
550.612	3.29
550.956	3.4
551.3	3.33
551.643	3.33
551.987	3.36
552.33	3.3
552.674	3.46
553.017	3.35
553.361	3.28
553.704	3.49
554.048	3.41
554.391	3.52
554.734	3.24
555.077	3.4
555.42	3.47
555.764	3.45
556.107	3.41
556.45	3.47
556.793	3.41
557.135	3.53
557.478	3.6
557.821	3.58
558.164	3.6
558.507	3.54
558.849	3.54
559.192	3.53
559.534	3.51
559.877	3.58
560.219	3.59
560.562	3.72
560.904	3.62
561.246	3.74
561.589	3.45
561.931	3.59
562.273	3.65
562.615	3.66
562.957	3.71
563.299	3.68
563.641	3.61
563.983	3.55
564.325	3.78
564.667	3.88
565.008	3.71
565.35	3.79
565.692	3.79
566.033	3.67
566.375	3.69
566.716	3.86
567.058	3.74
567.399	3.68
567.741	3.76
568.082	3.89
568.423	3.76
568.764	3.84
569.105	3.75
569.447	3.81
569.788	3.96
570.129	3.7
570.47	3.93
570.811	3.93
571.151	3.91
571.492	4.18
571.833	4.07
572.174	3.76
572.514	3.96
572.855	3.84
573.195	3.93
573.536	3.96
573.876	4.01
574.217	3.98
574.557	4.02
574.898	4.02
575.238	4.25
575.578	4.09
575.918	4.08
576.258	4.07
576.598	4.07
576.938	4.12
577.278	4.33
577.618	4.27
577.958	4.17
578.298	4.23
578.638	4.3
578.977	4.27
579.317	4.22
579.657	4.33
579.996	4.32
580.336	4.46
580.675	4.23
581.014	4.11
581.354	4.35
581.693	4.24
582.032	4.49
582.372	4.33
582.711	4.31
583.05	4.55
583.389	4.63
583.728	4.4
584.067	4.36
584.406	4.33
584.745	4.67
585.083	4.37
585.422	4.56
585.761	4.6
586.1	4.59
586.438	4.74
586.777	4.81
587.115	4.55
587.454	4.57
587.792	4.53
588.13	4.68
588.469	4.66
588.807	4.72
589.145	4.81
589.483	5.03
589.821	4.83
590.159	4.87
590.497	4.75
590.835	4.69
591.173	4.74
591.511	4.77
591.849	4.76
592.187	4.71
592.524	4.65
592.862	4.89
593.2	5.14
593.537	4.79
593.875	4.99
594.212	4.82
594.55	5.06
594.887	5.29
595.224	4.94
595.561	4.85
595.899	4.89
596.236	5.11
596.573	4.83
596.91	5.03
597.247	4.78
597.584	5.02
597.921	4.88
598.258	4.85
598.594	4.98
598.931	5
599.268	4.95
599.604	5.17
599.941	5.1
600.277	5.07
600.614	5.19
600.95	5.37
601.287	5.24
601.623	5.42
601.959	5.34
602.296	5.14
602.632	5.33
602.968	5.4
603.304	5.1
603.64	5.44
603.976	5.34
604.312	5.14
604.648	5.56
604.984	5.52
605.319	5.26
605.655	5.37
605.991	5.43
606.326	5.32
606.662	5.43
606.998	5.22
607.333	5.45
607.668	5.47
608.004	5.76
608.339	5.75
608.674	5.64
609.01	5.38
609.345	5.52
609.68	5.72
610.015	5.75
610.35	5.57
610.685	5.27
611.02	5.51
611.355	5.48
611.689	5.54
612.024	5.79
612.359	5.71
612.694	5.97
613.028	5.9
613.363	5.89
613.697	5.91
614.032	5.94
614.366	5.89
614.7	5.77
615.035	6
615.369	5.96
615.703	5.9
616.037	5.75
616.371	5.93
616.705	6.19
617.039	6.11
617.373	6.29
617.707	5.95
618.041	6.06
618.375	5.95
618.709	6.27
619.042	5.94
619.376	6.35
619.71	6.38
620.043	6.36
620.377	6.31
620.71	5.94
621.043	6.31
621.377	6.26
621.71	6.21
622.043	6.23
622.376	6.21
622.709	6.21
623.043	7.02
623.376	5.96
623.709	6.39
624.041	6.28
624.374	6.6
624.707	6.3
625.04	6.43
625.373	6.55
625.705	6.55
626.038	6.37
626.37	6.55
626.703	6.9
627.035	6.75
627.368	6.8
627.7	6.7
628.032	6.36
628.365	6.5
628.697	6.52
629.029	6.73
629.361	6.78
629.693	7.02
630.025	6.89
630.357	6.94
630.689	6.94
631.021	6.75
631.353	6.64
631.684	6.72
632.016	7.04
632.348	6.7
632.679	6.9
633.011	6.96
633.342	7.05
633.674	7.26
634.005	7.42
634.336	7.12
634.668	7.32
634.999	7.17
635.33	7.37
635.661	7.12
635.992	7.29
636.323	7.21
636.654	7.27
636.985	7.13
637.316	7.19
637.647	6.97
637.977	7.58
638.308	7.21
638.639	7.16
638.969	7.51
639.3	7.49
639.63	7.13
639.961	7.45
640.291	7.11
640.622	7.76
640.952	7.68
641.282	7.69
641.612	7.56
641.943	7.34
642.273	7.12
642.603	7.24
642.933	7.32
643.263	7.67
643.592	7.69
643.922	7.47
644.252	8.01
644.582	7.69
644.911	8.12
645.241	7.63
645.571	7.97
645.9	7.76
646.23	7.43
646.559	7.52
646.888	7.74
647.218	7.69
647.547	7.64
647.876	8.02
648.205	7.94
648.534	8.07
648.863	8.3
649.192	7.78
649.521	8.04
649.85	8.09
650.179	8.04
650.508	8.17
650.837	8.3
651.165	8.06
651.494	8.18
651.822	8.21
652.151	8.2
652.479	8.28
652.808	8.5
653.136	8.27
653.465	8.34
653.793	8.3
654.121	8.32
654.449	8.42
654.777	8.44
655.105	8.48
655.433	8.2
655.761	8.85
656.089	8.71
656.417	8.37
656.745	8.32
657.073	8.66
657.4	8.68
657.728	8.7
658.056	8.19
658.383	8.72
658.711	9.02
659.038	7.82
659.365	8.71
659.693	8.59
660.02	8.79
660.347	8.24
660.674	8.38
661.001	8.61
661.329	8.89
661.656	8.52
661.982	8.72
662.309	9.43
662.636	9.05
662.963	8.67
663.29	8.6
663.616	8.79
663.943	8.7
664.27	8.68
664.596	8.58
664.923	8.93
665.249	9.18
665.576	9.15
665.902	8.84
666.228	8.9
666.554	9.18
666.881	8.82
667.207	8.92
667.533	9.45
667.859	9.19
668.185	9.05
668.511	9.24
668.837	8.93
669.162	9.26
669.488	8.96
669.814	9.28
670.139	9.24
670.465	9.87
670.791	9.46
671.116	9.15
671.442	9.42
671.767	9.39
672.092	9.13
672.418	9.09
672.743	9.78
673.068	10.07
673.393	10
673.718	9.13
674.043	9.82
674.368	9.88
674.693	9.26
675.018	9.72
675.343	10.06
675.667	10.26
675.992	9.88
676.317	9.84
676.641	10.02
676.966	9.67
677.29	9.14
677.615	9.22
677.939	9.61
678.264	9.72
678.588	10.03
678.912	10.11
679.236	9.77
679.56	9.75
679.885	10.02
680.209	10.05
680.532	9.88
680.856	10.34
681.18	9.89
681.504	10.01
681.828	9.48
682.152	9.9
682.475	9.91
682.799	10.03
683.122	10.12
683.446	10.19
683.769	10.54
684.093	11.27
684.416	10.6
684.739	10.06
685.062	10.9
685.386	10.62
685.709	10.36
686.032	10.77
686.355	10.68
686.678	10.46
687.001	10.65
687.324	10.43
687.646	10.06
687.969	10.55
688.292	10.5
688.614	10.29
688.937	10.47
689.26	10.25
689.582	10.78
689.904	10.81
690.227	10.77
690.549	10.66
690.871	11.02
691.194	10.55
691.516	10.75
691.838	10.11
692.16	11.31
692.482	10.99
692.804	11.24
693.126	10.96
693.448	10.49
693.769	11.54
694.091	11.13
694.413	10.97
694.735	10.79
695.056	11.91
695.378	11.07
695.699	11.37
696.021	11.11
696.342	10.82
696.663	11.1
696.984	10.96
697.306	10.95
697.627	11.03
697.948	12.08
698.269	11.33
698.59	12.01
698.911	10.83
699.232	11.7
699.553	12.22
699.873	10.82
700.194	11.45
700.515	11.01
700.835	11
701.156	11.07
701.477	11.56
701.797	11.7
702.117	11.26
702.438	11.35
702.758	11.83
703.078	11.32
703.398	11.15
703.719	11.98
704.039	12.16
704.359	11.59
704.679	12.03
704.999	11.27
705.319	12.26
705.638	11.92
705.958	11.67
706.278	12.29
706.597	11.64
706.917	13.17
707.237	10.84
707.556	10.5
707.876	12.22
708.195	12.13
708.514	11.9
708.834	11.81
709.153	11.55
709.472	11.49
709.791	11.84
710.11	12.04
710.429	11.71
710.748	12.39
711.067	12.76
711.386	11.99
711.705	12.05
712.023	11.18
712.342	12.02
712.661	12.01
712.979	12.63
713.298	12.06
713.616	12.84
713.935	13.34
714.253	12.61
714.572	12.92
714.89	12.46
715.208	12.08
715.526	13.16
715.844	13.66
716.162	12.98
716.48	12.55
716.798	11.96
717.116	12.58
717.434	12.66
717.752	11.82
718.069	12.98
718.387	11.67
718.705	13.26
719.022	12.55
719.34	13.76
719.657	12.48
719.975	12.99
720.292	12.88
720.609	12.43
720.927	11.72
721.244	13.34
721.561	12.7
721.878	14.73
722.195	13.86
722.512	10.95
722.829	14.5
723.146	11.82
723.463	12.48
723.779	14.07
724.096	12.95
724.413	13.63
724.729	13.41
725.046	11.85
725.362	14.11
725.679	13.5
725.995	13.68
726.311	11.93
726.628	13.67
726.944	13.71
727.26	13.24
727.576	12.88
727.892	13.32
728.208	12.75
728.524	13.29
728.84	13.56
729.156	14.41
729.472	13.22
729.787	14.44
730.103	13.64
730.419	11.53
730.734	13.47
731.05	14.35
731.365	13.96
731.681	13.32
731.996	14.18
732.311	13.91
732.626	14.33
732.942	15.03
733.257	14.33
733.572	15.07
733.887	13.81
734.202	14.22
734.517	14.13
734.832	14.51
735.146	14
735.461	13.05
735.776	15.04
736.091	15.38
736.405	13.8
736.72	13.84
737.034	15.67
737.349	12.76
737.663	14.88
737.977	14.81
738.292	12.98
738.606	14.44
738.92	15.06
739.234	14.13
739.548	15.16
739.862	14.11
740.176	14.21
740.49	14.19
740.804	14.58
741.117	13.93
741.431	15.1
741.745	13.74
742.058	16.11
742.372	14.53
742.685	13.37
742.999	16.23
743.312	16.68
743.626	14.94
743.939	14.64
744.252	15.41
744.565	15.06
744.878	16.56
745.191	14.18
745.505	15.95
745.817	14.84
746.13	15.23
746.443	14.34
746.756	15.12
747.069	16.42
747.381	13.52
747.694	14.85
748.007	15.15
748.319	13.71
748.632	15.17
748.944	16.67
749.256	15.98
749.569	15.39
749.881	15.3
750.193	15.92
750.505	15.39
750.817	15.69
751.129	14
751.441	16.63
751.753	17.38
752.065	14.48
752.377	14.38
752.689	15.18
753	15.18
753.312	16.43
753.624	13.92
753.935	16.18
754.247	14.55
754.558	16.71
754.869	15.95
755.181	15.22
755.492	16.06
755.803	15.51
756.114	15.48
756.425	16.1
756.736	15.58
757.047	14.87
757.358	18.45
757.669	16.55
757.98	16.76
758.291	17.8
758.601	15.87
758.912	16.05
759.223	17.02
759.533	15.42
759.844	15.89
760.154	15.06
760.464	16.8
760.775	16.69
761.085	15.08
761.395	16.86
761.705	17.62
762.016	16.61
762.326	14.23
762.636	17.04
762.945	16.06
763.255	15.2
763.565	16.38
763.875	15.27
764.185	16.98
764.494	15.75
764.804	17.02
765.113	16.47
765.423	15.85
765.732	16.85
766.042	16.53
766.351	16.44
766.66	17.68
766.97	17.87
767.279	16.9
767.588	15.68
767.897	14.91
768.206	15.73
768.515	15.09
768.824	17.42
769.133	16.44
769.441	15.82
769.75	14.78
770.059	18.15
770.367	14.76
770.676	16.52
770.984	17.84
771.293	16.19
771.601	19.19
771.91	16.11
772.218	18.12
772.526	16.1
772.834	17.99
773.142	20.23
773.45	17.63
773.758	14.23
774.066	18.24
774.374	17.33
774.682	14.82
774.99	16.72
775.298	18
775.605	16.9
775.913	20.34
776.22	15.53
776.528	18.89
776.835	18.19
777.143	19.08
777.45	17.35
777.757	19.03
778.065	15.28
778.372	16.27
778.679	20.93
778.986	16.63
779.293	17.71
779.6	18.33
779.907	17.73
780.214	16.56
780.52	16.59
780.827	18.35
781.134	18.02
781.44	19.7
781.747	17.37
782.053	18.13
782.36	19.56
782.666	16.44
782.973	17.18
783.279	17.87
783.585	18.34
783.891	17.83
784.197	16.75
784.503	17.97
784.809	19.36
785.115	17.2
785.421	18.67
785.727	19.91
786.033	19.93
786.339	18.09
786.644	19.5
786.95	20.87
787.255	21.34
787.561	16.42
787.866	18.57
788.172	16.97
788.477	18.14
788.782	21.21
789.088	18.98
789.393	18.24
789.698	16.86
790.003	18.63
790.308	18.24
790.613	19.04
790.918	16.68
791.223	17
791.527	18.7
791.832	19.15
792.137	20.23
792.441	16.03
792.746	16.4
793.05	16.88
793.355	22.08
793.659	17.3
793.963	19.93
794.268	15.93
794.572	17.98
794.876	15.21
795.18	18.17
795.484	20.55
795.788	17.75
796.092	19.94
796.396	19.88
796.7	15.52
797.004	18.3
797.307	16.31
797.611	21.38
797.915	17.68
798.218	19.17
798.522	15.73
798.825	16.51
799.128	18.26
799.432	20.38
799.735	18.92
800.038	17.9
800.341	16.42
800.644	19.44
800.947	18.28
801.25	12.72
801.553	17.82
801.856	18.93
802.159	18.18
802.462	18.89
802.764	21.42
803.067	21.2
803.37	19.89
803.672	17.66
803.975	17.59
804.277	18.48
804.579	17.39
804.882	25.16
805.184	19.13
805.486	20.79
805.788	22.31
806.09	16.25
806.392	19.18
806.694	21.06
806.996	24.68
807.298	22.47
807.6	18.43
807.902	16
808.203	15.03
808.505	16.01
808.807	20.98
809.108	18.49
809.409	19.53
809.711	17.88
810.012	21.37
810.313	17.99
810.615	19.76
810.916	23.02
811.217	23.65
811.518	17.64
811.819	18.12
812.12	23.28
812.421	20.51
812.722	16.8
813.023	20.62
813.323	24.52
813.624	27.51
813.925	21.01
814.225	16.13
814.526	21.33
814.826	22.79
815.126	22.51
815.427	18.65
815.727	20.12
816.027	17.45
816.327	22.89
816.627	24.81
816.927	18.57
817.227	21.2
817.527	14.8
817.827	19.51
818.127	19.88
818.427	22.29
818.727	19.2
819.026	23.14
819.326	22.22
819.625	24.39
819.925	20.01
820.224	21.7
820.524	26.68
820.823	22.52
821.122	24.46
821.421	24.28
821.72	20.15
822.019	20.29
822.318	20.34
822.617	21.54
822.916	19.45
823.215	21.44
823.514	19.05
823.813	21.39
824.111	22.71
824.41	20.57
824.709	20.96
825.007	21.47
825.306	21.75
825.604	21.96
825.902	21.75
826.201	21.72
826.499	21.48
826.797	21.11
827.095	21.85
827.393	22.56
827.691	23.95
827.989	19.5
828.287	23.04
828.585	22.57
828.882	22.41
829.18	20.82
829.478	22.7
829.775	23.86
830.073	22.36
830.37	22.2
830.668	23.31
830.965	19.48
831.263	20.87
831.56	20.11
831.857	24.58
832.154	23.17
832.451	22.71
832.748	22.98
833.045	25.52
833.342	19.18
833.639	22.1
833.936	24.75
834.232	24.4
834.529	21.29
834.826	25.54
835.122	22.05
835.419	21.75
835.715	21.66
836.012	21.02
836.308	23.55
836.604	23.81
836.901	20.81
837.197	22.71
837.493	21.51
837.789	23
838.085	21.64
838.381	23.56
838.677	21.99
838.972	22.31
839.268	20.61
839.564	21.26
839.86	25.68
840.155	15.47
840.451	23.77
840.746	22.3
841.042	21.82
841.337	23.59
841.632	22.58
841.928	20.89
842.223	19.29
842.518	21.14
842.813	25.98
843.108	24.52
843.403	27.57
843.698	15.1
843.993	24.53
844.287	16.09
844.582	20.26
844.877	15.05
845.171	14.1
845.466	16.02
845.761	35.23
846.055	29.06
846.349	32.8
846.644	28.87
846.938	31.2
847.232	13.43
847.526	12.93
847.82	19.23
848.114	16.9
848.408	14.6
848.702	25.95
848.996	21.29
849.29	25.23
849.584	25.56
849.877	13.54
850.171	26.48
850.465	30.26
850.758	22.11
851.052	19.25
851.345	20.94
851.638	26.28
851.932	32.57
852.225	26.97
852.518	20.04
852.811	28.86
853.104	13.13
853.397	19.36
853.69	41.93
853.983	32.5
854.276	22.1
854.569	10.9
854.861	20.01
855.154	32.54
855.447	51.09
855.739	30.43
856.032	24.81
856.324	30.81
856.616	37.82
856.909	32.88
857.201	24.64
857.493	-8.6
857.785	23.59
858.077	15.5
858.369	4.21
858.661	27.05
858.953	21.87
859.245	27.4
859.537	2.76
859.829	9.4
860.12	28.3
860.412	3.9
860.703	5.72
860.995	4.62
861.286	9.47
861.578	20.61
861.869	20.17
862.16	23.33
862.452	32.61
862.743	30.31
863.034	5.89
863.325	28.07
863.616	27.5
863.907	18.11
864.198	-14.11
864.488	24.7
864.779	11.31
865.07	36.92
865.36	21.25
865.651	23.25
865.941	48.68
866.232	39.1
866.522	53.54
866.813	35.92
867.103	19.91
867.393	5.54
867.683	34.51
867.973	25.15
868.263	10.82
868.553	21.98
868.843	10.15
869.133	39.69
869.423	19.59
869.713	6.99
870.002	14.23
870.292	5.54
870.582	8.46
870.871	15.27
871.161	19.76
871.45	17.74
871.739	45.3
872.029	36.57
872.318	28.93
872.607	25.18
872.896	28.17
873.185	11.72
873.474	36.75
873.763	8.9
874.052	43.83
874.341	35.32
874.63	34.93
874.918	26.9
875.207	11.72
875.496	7.99
875.784	34.01
876.073	22.24
876.361	13.09
876.649	54.03
876.938	1.21
877.226	-1.15
877.514	12.74
877.802	16.62
878.09	28.05
878.378	31.99
878.666	18.06
878.954	16.46
879.242	21.94
879.53	1.16
879.817	31.57
880.105	26.02
880.392	48.86
880.68	-13.84
880.967	24.06
881.255	19.45
881.542	10.96
881.83	32.89
882.117	32.8
882.404	43.45
882.691	34.15
882.978	20.81
883.265	24.13
883.552	30.55
883.839	27.19
884.126	33.38
884.413	34.96
884.699	28.69
884.986	28.51
885.273	26.86
885.559	26.86
885.846	26.86
