Data from 1886-1_forehead_Reflection__3__89.txt Node

Date: Fri Sep 30 18:26:00 CDT 2022
User: ToomeyLab
Spectrometer: FLMS14357
Trigger mode: 0
Integration Time (sec): 1.000000E-2
Scans to average: 100
Electric dark correction enabled: true
Nonlinearity correction enabled: false
Boxcar width: 0
XAxis mode: Wavelengths
Number of Pixels in Spectrum: 2048
>>>>>Begin Spectral Data<<<<<
189.047	-1722.22
189.435	-1722.22
189.823	-1722.22
190.211	2.03
190.599	-622.42
190.987	69.85
191.375	91.92
191.763	6184.21
192.151	104.28
192.538	71.15
192.926	-78.39
193.314	705.13
193.702	187.08
194.089	-102.31
194.477	-600.19
194.864	-23.96
195.252	-39.57
195.639	127.48
196.027	45.39
196.414	93.22
196.801	133.12
197.189	-16.19
197.576	-353.33
197.963	1060.51
198.351	22.52
198.738	16.13
199.125	53.54
199.512	36.22
199.899	36.25
200.286	22.06
200.673	49.97
201.06	37.91
201.447	35.35
201.833	96.98
202.22	17.43
202.607	40.51
202.994	58.85
203.38	38.18
203.767	18.06
204.154	27.5
204.54	56.61
204.927	35.32
205.313	6.49
205.699	23.04
206.086	14.46
206.472	35.5
206.858	33.83
207.245	35.78
207.631	56.63
208.017	13.46
208.403	38.98
208.789	28.6
209.175	40.38
209.561	29.19
209.947	12.59
210.333	-11.19
210.719	12.67
211.105	-6.94
211.491	20.93
211.876	3.88
212.262	30.39
212.648	25.62
213.034	19.63
213.419	15.36
213.805	23.17
214.19	7.1
214.576	37.75
214.961	1.32
215.346	19.2
215.732	15.7
216.117	5.97
216.502	17.13
216.888	15.97
217.273	10.64
217.658	30.74
218.043	18.78
218.428	6.83
218.813	16.79
219.198	16.78
219.583	16.69
219.968	35.6
220.353	22.27
220.738	1.39
221.122	27.8
221.507	20.48
221.892	16.23
222.276	-16.45
222.661	11.35
223.046	-12.56
223.43	5.19
223.815	14.77
224.199	15.14
224.583	2.41
224.968	7.56
225.352	9.88
225.736	16.93
226.121	10.61
226.505	3.4
226.889	10.94
227.273	3.94
227.657	10.37
228.041	8.61
228.425	8.45
228.809	5.23
229.193	3.66
229.577	2.23
229.961	4.9
230.344	2.98
230.728	3.4
231.112	3.52
231.495	2.86
231.879	5.3
232.263	3.79
232.646	2.25
233.03	4.92
233.413	4.16
233.797	2.61
234.18	4.08
234.563	5.53
234.946	4.28
235.33	1.88
235.713	3.79
236.096	3.2
236.479	3.63
236.862	4.23
237.245	2.97
237.628	2.8
238.011	4.94
238.394	3.87
238.777	3.13
239.16	4.14
239.543	3.62
239.925	2.03
240.308	2.9
240.691	5.05
241.073	4.44
241.456	3.07
241.838	3.23
242.221	3.83
242.603	3.9
242.986	3.17
243.368	2.35
243.75	3.16
244.133	3.66
244.515	3.02
244.897	3.5
245.279	3.67
245.661	3.78
246.043	3.26
246.425	2.52
246.807	3.03
247.189	3.34
247.571	3.99
247.953	3.69
248.335	3.33
248.717	3.2
249.098	3.34
249.48	3.23
249.862	3.37
250.243	2.99
250.625	3.77
251.006	4.11
251.388	2.32
251.769	3.71
252.151	3.07
252.532	4.12
252.913	2.97
253.295	3.47
253.676	3.29
254.057	3.24
254.438	2.49
254.819	4.31
255.2	3.62
255.581	4.5
255.962	4.19
256.343	4.07
256.724	4.95
257.105	4.04
257.486	4.22
257.867	4.38
258.247	3.27
258.628	3.87
259.009	4
259.389	3.72
259.77	4.32
260.15	3.07
260.531	4.05
260.911	3.47
261.292	3.25
261.672	3.34
262.052	3.25
262.432	3.36
262.813	4.07
263.193	3.25
263.573	3.35
263.953	2.91
264.333	4.1
264.713	2.89
265.093	3.11
265.473	3.94
265.853	3.27
266.233	3.53
266.612	3.85
266.992	3.63
267.372	2.35
267.752	2.65
268.131	3.49
268.511	3.34
268.89	3.07
269.27	3.47
269.649	2.94
270.029	3.89
270.408	3.19
270.787	3.41
271.167	3.21
271.546	3.37
271.925	3.6
272.304	3.64
272.683	3.25
273.062	3.32
273.441	3.45
273.82	2.84
274.199	3.45
274.578	3.47
274.957	3.18
275.336	3.47
275.715	3.43
276.093	3.38
276.472	3.51
276.851	3.88
277.229	2.99
277.608	3.39
277.986	2.68
278.365	3.43
278.743	3.15
279.122	3.42
279.5	3.56
279.878	3.07
280.257	3.5
280.635	3.75
281.013	3.57
281.391	3.13
281.769	3.38
282.147	2.79
282.525	4
282.903	3.1
283.281	3.05
283.659	3.47
284.037	3.42
284.415	3.17
284.792	3.66
285.17	2.88
285.548	3.48
285.925	3.13
286.303	3.08
286.68	2.99
287.058	3.08
287.435	3.27
287.813	3.31
288.19	3.2
288.567	2.98
288.945	2.66
289.322	3.44
289.699	4.02
290.076	3.06
290.453	3.18
290.83	3.42
291.207	3.2
291.584	3.31
291.961	3.29
292.338	3.5
292.715	3.35
293.092	3.01
293.469	3.59
293.845	4.17
294.222	3.55
294.599	3.96
294.975	4.17
295.352	3.5
295.728	3.88
296.105	3.48
296.481	3.85
296.858	3.63
297.234	3.62
297.61	3.49
297.986	3.29
298.363	3.68
298.739	3.51
299.115	3.53
299.491	3.74
299.867	3.73
300.243	3.93
300.619	3.46
300.995	4.65
301.371	4.27
301.746	4.29
302.122	4.59
302.498	4.25
302.874	4.3
303.249	4.43
303.625	4.52
304	4.73
304.376	4.25
304.751	4.33
305.127	4.48
305.502	4.37
305.878	4.92
306.253	4.16
306.628	4.25
307.003	4.59
307.378	4.59
307.754	4.62
308.129	5.09
308.504	4.96
308.879	5.23
309.254	5.08
309.629	5.26
310.003	4.82
310.378	4.48
310.753	4.9
311.128	4.83
311.502	5.06
311.877	5.31
312.252	5.41
312.626	5.29
313.001	4.95
313.375	5.12
313.75	5.78
314.124	5.79
314.498	5.22
314.873	5.6
315.247	5.13
315.621	5.74
315.995	5.8
316.369	5.17
316.743	5.43
317.117	6.46
317.491	6.87
317.865	7.01
318.239	5.97
318.613	6.28
318.987	6.12
319.361	6.16
319.734	6.21
320.108	6.02
320.482	6.26
320.855	6.71
321.229	6.75
321.602	6.66
321.976	7.12
322.349	6.56
322.723	6.27
323.096	6.86
323.469	6.64
323.843	6.5
324.216	6.28
324.589	7.23
324.962	7.23
325.335	6.67
325.708	6.91
326.081	7.24
326.454	7.15
326.827	7.1
327.2	7.29
327.573	6.42
327.945	6.52
328.318	6.98
328.691	7.25
329.063	7.31
329.436	7.14
329.809	7.64
330.181	7.47
330.553	7.24
330.926	7.45
331.298	7.19
331.671	7.44
332.043	7.24
332.415	7.62
332.787	7.36
333.159	7.22
333.532	7.39
333.904	7.55
334.276	7.78
334.648	7.43
335.02	7.78
335.391	7.83
335.763	8.19
336.135	8.05
336.507	8.17
336.879	7.75
337.25	7.48
337.622	7.98
337.993	7.67
338.365	7.45
338.736	7.87
339.108	7.93
339.479	8.53
339.851	7.55
340.222	8.55
340.593	7.85
340.964	7.95
341.336	8.04
341.707	8.23
342.078	8.46
342.449	8.37
342.82	8.67
343.191	8.24
343.562	8.44
343.933	8.21
344.303	8.76
344.674	8.52
345.045	8.24
345.416	8.64
345.786	8.51
346.157	9.19
346.527	8.25
346.898	8.63
347.268	8.64
347.639	8.41
348.009	8.67
348.38	8.93
348.75	9.01
349.12	9.33
349.49	8.84
349.861	8.24
350.231	8.74
350.601	8.82
350.971	8.61
351.341	9.07
351.711	8.93
352.081	9.07
352.45	9.16
352.82	9.5
353.19	9.16
353.56	9.02
353.929	8.76
354.299	8.78
354.669	9.24
355.038	9.69
355.408	9.46
355.777	9.21
356.147	9.16
356.516	9.78
356.885	9.14
357.254	9.59
357.624	9.28
357.993	9.43
358.362	9.64
358.731	9.59
359.1	9.33
359.469	9.17
359.838	9.78
360.207	9.45
360.576	9.47
360.945	9.74
361.314	10.01
361.682	9.87
362.051	9.75
362.42	9.88
362.788	9.83
363.157	9.81
363.525	9.72
363.894	9.87
364.262	9.91
364.631	10.38
364.999	10.18
365.367	10.08
365.735	9.91
366.104	9.9
366.472	10.16
366.84	10.45
367.208	10.07
367.576	10.63
367.944	10.15
368.312	9.98
368.68	10.1
369.048	9.98
369.416	10.47
369.783	10.43
370.151	10.42
370.519	10.8
370.886	10.5
371.254	10.33
371.621	10.8
371.989	10.76
372.356	10.78
372.724	10.83
373.091	10.6
373.458	10.73
373.826	11.15
374.193	10.72
374.56	11.15
374.927	11.35
375.294	11.06
375.661	10.82
376.028	11.14
376.395	10.67
376.762	11.17
377.129	11.49
377.496	11.26
377.863	11.05
378.229	11.25
378.596	11.16
378.963	11.33
379.329	10.97
379.696	11.78
380.062	11.52
380.429	11.53
380.795	11.2
381.161	10.97
381.528	11.3
381.894	11.32
382.26	11.51
382.626	11.51
382.993	11.61
383.359	11.6
383.725	11.39
384.091	11.83
384.457	11.88
384.823	12.06
385.188	11.92
385.554	11.78
385.92	12.04
386.286	11.98
386.651	12.17
387.017	12.11
387.383	12.01
387.748	11.52
388.114	12.17
388.479	12.16
388.845	11.94
389.21	11.89
389.575	12.23
389.94	12.15
390.306	12.09
390.671	12.06
391.036	12.38
391.401	12.18
391.766	12.51
392.131	12.29
392.496	12.42
392.861	12.67
393.226	12.24
393.591	12.18
393.956	12.61
394.32	12.6
394.685	12.28
395.05	12.56
395.414	12.57
395.779	12.49
396.143	12.61
396.508	12.46
396.872	12.67
397.236	12.72
397.601	12.89
397.965	12.96
398.329	12.87
398.694	13.01
399.058	12.83
399.422	12.98
399.786	12.96
400.15	13.09
400.514	13.01
400.878	12.93
401.242	13.01
401.605	13.12
401.969	13.27
402.333	13.05
402.697	13.42
403.06	13.26
403.424	13.35
403.787	13.18
404.151	13.41
404.514	13.58
404.878	13.36
405.241	13.42
405.604	13.5
405.968	13.5
406.331	13.46
406.694	13.54
407.057	13.47
407.42	13.73
407.783	13.57
408.146	13.63
408.509	13.68
408.872	13.92
409.235	13.92
409.598	13.88
409.961	13.91
410.323	14.14
410.686	14.2
411.049	13.77
411.411	14.02
411.774	14.15
412.136	14.32
412.499	14.06
412.861	14
413.223	14.01
413.586	14.16
413.948	14.39
414.31	14.45
414.672	14.56
415.035	14.49
415.397	14.43
415.759	14.74
416.121	14.46
416.483	14.44
416.845	14.62
417.206	14.47
417.568	14.5
417.93	14.42
418.292	14.56
418.653	14.39
419.015	14.61
419.377	14.51
419.738	14.5
420.1	14.46
420.461	14.5
420.822	14.5
421.184	14.48
421.545	14.45
421.906	14.4
422.267	14.47
422.629	14.4
422.99	14.48
423.351	14.36
423.712	14.67
424.073	14.7
424.434	14.71
424.795	14.72
425.155	14.8
425.516	14.74
425.877	14.68
426.238	14.82
426.598	14.89
426.959	14.86
427.32	15.03
427.68	15.25
428.041	15.16
428.401	15.29
428.761	15.56
429.122	15.43
429.482	15.52
429.842	15.61
430.202	15.6
430.563	15.64
430.923	15.64
431.283	15.75
431.643	15.7
432.003	15.79
432.363	15.95
432.722	15.74
433.082	15.83
433.442	15.97
433.802	16.02
434.161	15.77
434.521	15.89
434.881	15.77
435.24	15.75
435.6	15.94
435.959	15.97
436.319	16.05
436.678	16.1
437.037	16.15
437.396	16.36
437.756	16.28
438.115	16.33
438.474	16.37
438.833	16.51
439.192	16.41
439.551	16.57
439.91	16.31
440.269	16.17
440.628	16.35
440.987	16.59
441.345	16.43
441.704	16.34
442.063	16.54
442.421	16.41
442.78	16.36
443.138	16.37
443.497	16.51
443.855	16.57
444.214	16.82
444.572	16.97
444.93	16.93
445.288	17.04
445.647	16.76
446.005	16.9
446.363	16.89
446.721	16.82
447.079	16.74
447.437	16.75
447.795	16.76
448.153	16.59
448.51	16.59
448.868	16.73
449.226	16.77
449.584	16.91
449.941	17
450.299	17.04
450.656	17.37
451.014	17.23
451.371	17.41
451.729	17.4
452.086	17.47
452.443	17.48
452.801	17.43
453.158	17.38
453.515	17.51
453.872	17.5
454.229	17.58
454.586	17.64
454.943	17.74
455.3	17.46
455.657	17.91
456.014	17.65
456.371	17.76
456.727	17.85
457.084	17.82
457.441	17.94
457.797	18.07
458.154	17.96
458.51	17.79
458.867	18.23
459.223	18.02
459.58	18.06
459.936	18.02
460.292	17.98
460.648	17.74
461.005	17.87
461.361	17.71
461.717	17.64
462.073	17.77
462.429	17.87
462.785	18.12
463.141	18.2
463.496	18.28
463.852	18.31
464.208	18.41
464.564	18.47
464.919	18.43
465.275	18.69
465.631	18.67
465.986	18.68
466.342	18.68
466.697	18.93
467.052	18.87
467.408	18.81
467.763	18.7
468.118	18.94
468.473	18.7
468.829	18.62
469.184	18.71
469.539	18.9
469.894	18.9
470.249	19.02
470.603	19.02
470.958	18.99
471.313	18.8
471.668	19
472.023	19.08
472.377	19.16
472.732	19.49
473.086	19.42
473.441	19.48
473.795	19.36
474.15	19.34
474.504	19.31
474.859	19.4
475.213	19.43
475.567	19.39
475.921	19.51
476.275	19.51
476.63	19.66
476.984	19.57
477.338	19.59
477.692	19.61
478.045	19.73
478.399	19.62
478.753	19.7
479.107	19.67
479.461	19.52
479.814	19.66
480.168	19.86
480.521	19.67
480.875	19.84
481.228	19.82
481.582	19.82
481.935	19.93
482.289	19.88
482.642	19.92
482.995	19.79
483.348	19.78
483.701	19.61
484.055	19.6
484.408	19.49
484.761	19.29
485.114	19.02
485.466	18.87
485.819	19
486.172	19.04
486.525	19.23
486.878	19.39
487.23	19.52
487.583	19.6
487.936	19.79
488.288	19.63
488.641	19.43
488.993	19.39
489.345	19.37
489.698	19.47
490.05	19.52
490.402	19.57
490.754	19.8
491.107	19.93
491.459	20.09
491.811	20.35
492.163	20.25
492.515	20.09
492.866	19.94
493.218	19.68
493.57	19.73
493.922	19.96
494.274	20.11
494.625	20.38
494.977	20.43
495.328	20.71
495.68	20.91
496.031	20.79
496.383	21.01
496.734	20.9
497.086	20.85
497.437	21.13
497.788	20.96
498.139	20.88
498.49	20.76
498.842	20.86
499.193	20.94
499.544	20.87
499.894	21.13
500.245	21.06
500.596	21.23
500.947	21.42
501.298	21.53
501.648	21.29
501.999	21.31
502.35	21.41
502.7	21.64
503.051	21.6
503.401	21.78
503.752	21.62
504.102	21.82
504.452	21.67
504.803	21.83
505.153	21.82
505.503	21.71
505.853	21.64
506.203	21.63
506.553	21.72
506.903	21.9
507.253	21.82
507.603	21.84
507.953	22.11
508.303	22.06
508.652	21.92
509.002	22.08
509.352	22.01
509.701	21.9
510.051	21.98
510.4	21.99
510.75	22.01
511.099	21.97
511.449	21.99
511.798	22.1
512.147	22.08
512.496	22.15
512.846	22.18
513.195	22.15
513.544	22.37
513.893	22.22
514.242	22.11
514.591	22.43
514.939	22.3
515.288	22.44
515.637	22.43
515.986	22.62
516.334	22.54
516.683	22.53
517.032	22.58
517.38	22.58
517.729	22.92
518.077	22.63
518.426	22.9
518.774	22.8
519.122	22.52
519.47	22.59
519.819	22.58
520.167	22.46
520.515	22.45
520.863	22.45
521.211	22.61
521.559	22.74
521.907	22.7
522.255	22.73
522.602	22.95
522.95	23.03
523.298	22.99
523.645	23.16
523.993	23.32
524.341	23.28
524.688	23.25
525.036	23.32
525.383	23.3
525.73	23.28
526.078	23.4
526.425	23.3
526.772	23.14
527.119	22.97
527.466	23
527.814	23.02
528.161	23.05
528.508	23.1
528.854	23.26
529.201	23.06
529.548	22.77
529.895	22.68
530.242	22.54
530.588	22.75
530.935	22.74
531.282	22.88
531.628	22.93
531.975	23.07
532.321	23.21
532.667	23.48
533.014	23.44
533.36	23.53
533.706	23.66
534.052	23.59
534.399	23.44
534.745	23.25
535.091	23.17
535.437	23.38
535.783	23.43
536.129	23.53
536.474	23.65
536.82	23.91
537.166	24.07
537.512	23.99
537.857	24.05
538.203	23.97
538.549	23.75
538.894	24.1
539.239	24.06
539.585	24.1
539.93	24.19
540.276	24.47
540.621	24.49
540.966	24.58
541.311	24.63
541.656	24.45
542.001	24.45
542.346	24.26
542.691	23.91
543.036	23.79
543.381	23.96
543.726	23.91
544.071	24.06
544.415	24.18
544.76	24.22
545.105	24.25
545.449	24.57
545.794	24.59
546.138	24.61
546.483	24.71
546.827	24.68
547.171	24.87
547.516	24.85
547.86	24.86
548.204	24.95
548.548	24.84
548.892	24.92
549.236	25.02
549.58	25.13
549.924	24.98
550.268	25.43
550.612	25.25
550.956	25.48
551.3	25.55
551.643	25.6
551.987	25.63
552.33	25.84
552.674	25.89
553.017	25.51
553.361	25.76
553.704	25.72
554.048	25.87
554.391	25.79
554.734	25.65
555.077	25.69
555.42	25.75
555.764	25.86
556.107	25.84
556.45	25.97
556.793	25.93
557.135	26.25
557.478	26.41
557.821	26.14
558.164	26.23
558.507	26.49
558.849	26.38
559.192	26.23
559.534	26.34
559.877	26.3
560.219	26.39
560.562	26.55
560.904	26.2
561.246	26.48
561.589	26.5
561.931	26.29
562.273	26.58
562.615	26.52
562.957	26.65
563.299	26.53
563.641	26.55
563.983	26.52
564.325	26.63
564.667	26.79
565.008	26.86
565.35	26.9
565.692	26.89
566.033	26.72
566.375	26.85
566.716	26.86
567.058	26.8
567.399	26.78
567.741	26.81
568.082	26.85
568.423	26.64
568.764	26.73
569.105	26.85
569.447	26.95
569.788	27.1
570.129	27.03
570.47	27.43
570.811	27.13
571.151	27.17
571.492	27.35
571.833	27.29
572.174	27.15
572.514	27.25
572.855	27.29
573.195	27.16
573.536	27.1
573.876	27.22
574.217	27.22
574.557	27.25
574.898	27.26
575.238	27.33
575.578	27.34
575.918	27.57
576.258	27.54
576.598	27.4
576.938	27.49
577.278	27.57
577.618	27.72
577.958	27.57
578.298	27.7
578.638	28.09
578.977	27.86
579.317	27.81
579.657	27.72
579.996	27.82
580.336	27.89
580.675	28.03
581.014	28.19
581.354	28.01
581.693	28.49
582.032	28.33
582.372	28.19
582.711	28.16
583.05	28.59
583.389	28.29
583.728	28.47
584.067	28.19
584.406	28.27
584.745	28.59
585.083	28.3
585.422	28.56
585.761	28.43
586.1	28.82
586.438	28.59
586.777	28.8
587.115	28.3
587.454	28.22
587.792	28.5
588.13	28.44
588.469	28.62
588.807	28.7
589.145	28.65
589.483	28.78
589.821	29.19
590.159	28.91
590.497	28.88
590.835	28.72
591.173	28.6
591.511	28.85
591.849	28.98
592.187	28.98
592.524	29.1
592.862	29.21
593.2	29.14
593.537	29.14
593.875	29.26
594.212	29.22
594.55	29
594.887	29.48
595.224	29.47
595.561	29.05
595.899	29.38
596.236	29.54
596.573	29.04
596.91	29.44
597.247	29.23
597.584	29.36
597.921	29.31
598.258	29.6
598.594	29.23
598.931	29.09
599.268	29.2
599.604	29.4
599.941	29.51
600.277	29.39
600.614	29.56
600.95	29.93
601.287	29.49
601.623	29.94
601.959	29.86
602.296	30
602.632	29.88
602.968	29.75
603.304	29.98
603.64	30.14
603.976	29.98
604.312	29.86
604.648	30.34
604.984	29.72
605.319	29.73
605.655	29.97
605.991	30.09
606.326	29.77
606.662	29.81
606.998	29.82
607.333	29.77
607.668	29.87
608.004	30.09
608.339	30.03
608.674	30.28
609.01	30.23
609.345	30.23
609.68	30.32
610.015	30.42
610.35	30.43
610.685	30.27
611.02	29.87
611.355	30.09
611.689	30.32
612.024	30.42
612.359	30.31
612.694	30.41
613.028	30.59
613.363	30.58
613.697	30.48
614.032	30.64
614.366	30.73
614.7	30.46
615.035	30.97
615.369	30.63
615.703	30.76
616.037	30.5
616.371	30.91
616.705	30.88
617.039	30.92
617.373	30.98
617.707	30.77
618.041	31.26
618.375	31.1
618.709	31.24
619.042	30.89
619.376	31.07
619.71	31.49
620.043	31.22
620.377	31.11
620.71	31.09
621.043	31.36
621.377	31.14
621.71	31.33
622.043	31.52
622.376	31.53
622.709	31.1
623.043	31.29
623.376	31.07
623.709	31.59
624.041	31.76
624.374	32.06
624.707	31.18
625.04	31.17
625.373	31.46
625.705	31.41
626.038	31.16
626.37	31.63
626.703	31.6
627.035	31.3
627.368	31.49
627.7	31.79
628.032	31.8
628.365	31.73
628.697	31.74
629.029	31.44
629.361	32.02
629.693	31.75
630.025	31.47
630.357	32.35
630.689	31.9
631.021	31.83
631.353	31.7
631.684	31.83
632.016	32.18
632.348	31.66
632.679	32.14
633.011	31.84
633.342	31.93
633.674	32.4
634.005	32.22
634.336	32.05
634.668	32.29
634.999	32.63
635.33	32.2
635.661	32.09
635.992	31.96
636.323	32.2
636.654	32.18
636.985	32.08
637.316	32.41
637.647	32.38
637.977	32.57
638.308	32.45
638.639	32.07
638.969	32.53
639.3	32.68
639.63	32.48
639.961	32.64
640.291	32.5
640.622	32.55
640.952	32.51
641.282	32.69
641.612	32.58
641.943	32.84
642.273	32.63
642.603	32.54
642.933	32.59
643.263	32.74
643.592	32.97
643.922	33.04
644.252	33.23
644.582	32.65
644.911	33.27
645.241	33.23
645.571	33.3
645.9	33.29
646.23	33.04
646.559	33.22
646.888	32.9
647.218	33.14
647.547	32.93
647.876	33.21
648.205	33.53
648.534	33.2
648.863	33.19
649.192	33.05
649.521	33.29
649.85	33
650.179	33.33
650.508	33.49
650.837	33.76
651.165	33.03
651.494	33.71
651.822	33.44
652.151	33.25
652.479	33.25
652.808	33.63
653.136	33.53
653.465	33.74
653.793	33.24
654.121	33.39
654.449	34.43
654.777	33.34
655.105	33.87
655.433	33.62
655.761	33.85
656.089	33.72
656.417	33.6
656.745	33.44
657.073	33.45
657.4	34.4
657.728	34.26
658.056	33.7
658.383	34.11
658.711	33.89
659.038	33.68
659.365	34.07
659.693	33.9
660.02	33.82
660.347	34.03
660.674	34.09
661.001	33.94
661.329	34.04
661.656	33.85
661.982	34.2
662.309	34.36
662.636	34.05
662.963	33.75
663.29	34
663.616	34.49
663.943	34.26
664.27	33.88
664.596	34.22
664.923	34.02
665.249	34.1
665.576	34.24
665.902	34.38
666.228	34.5
666.554	34.13
666.881	34.74
667.207	34.13
667.533	34.53
667.859	35.06
668.185	34.8
668.511	34.61
668.837	34.57
669.162	34.77
669.488	34.23
669.814	34.73
670.139	34.32
670.465	35.62
670.791	34.87
671.116	34.65
671.442	35.09
671.767	34.43
672.092	34.9
672.418	35
672.743	34.79
673.068	35.5
673.393	34.68
673.718	34.74
674.043	34.85
674.368	35.36
674.693	34.89
675.018	34.97
675.343	35.66
675.667	35.34
675.992	34.97
676.317	35.62
676.641	35.28
676.966	35.07
677.29	34.61
677.615	34.95
677.939	35.2
678.264	35.39
678.588	35.41
678.912	35.53
679.236	35.36
679.56	34.65
679.885	35.6
680.209	34.95
680.532	35.06
680.856	34.91
681.18	35.3
681.504	35.51
681.828	35.11
682.152	35.11
682.475	35.45
682.799	35.7
683.122	35.73
683.446	36.09
683.769	36.42
684.093	36.12
684.416	35.57
684.739	35.67
685.062	36.23
685.386	35.72
685.709	35.54
686.032	36.25
686.355	35.36
686.678	36.35
687.001	35.52
687.324	36.12
687.646	35.7
687.969	35.74
688.292	36.22
688.614	35.43
688.937	35.77
689.26	35.37
689.582	35.45
689.904	36.67
690.227	36.45
690.549	36.05
690.871	36.15
691.194	36.17
691.516	36.36
691.838	36.37
692.16	36.71
692.482	35.69
692.804	36.72
693.126	36.02
693.448	35.78
693.769	36.98
694.091	36.09
694.413	36.71
694.735	36.89
695.056	36.82
695.378	35.78
695.699	36.41
696.021	36.06
696.342	36.19
696.663	36.3
696.984	35.94
697.306	36.32
697.627	36.89
697.948	36.1
698.269	36.22
698.59	36.91
698.911	36.35
699.232	37.77
699.553	36.47
699.873	36.16
700.194	36.71
700.515	36.62
700.835	36.12
701.156	36.17
701.477	36.27
701.797	37.34
702.117	36.57
702.438	36.65
702.758	36.69
703.078	36.91
703.398	37.25
703.719	37.19
704.039	37.34
704.359	36.55
704.679	36.69
704.999	36.36
705.319	37.66
705.638	37.19
705.958	37.28
706.278	38.01
706.597	35.68
706.917	36.98
707.237	36.5
707.556	36.69
707.876	37.43
708.195	37.92
708.514	36.19
708.834	37.7
709.153	36.5
709.472	37.34
709.791	37.35
710.11	37.9
710.429	37.89
710.748	37.01
711.067	37.21
711.386	37.88
711.705	37.23
712.023	36.11
712.342	38.08
712.661	36.55
712.979	36.93
713.298	36.35
713.616	36.8
713.935	37.43
714.253	36.89
714.572	37.16
714.89	37.59
715.208	36.43
715.526	37.69
715.844	37.99
716.162	38.38
716.48	38.2
716.798	37.84
717.116	37.65
717.434	38
717.752	36.96
718.069	37.67
718.387	36.85
718.705	38.89
719.022	37.68
719.34	38.45
719.657	37.33
719.975	38.15
720.292	38.65
720.609	38.32
720.927	38.05
721.244	39.01
721.561	37.96
721.878	38.44
722.195	38.86
722.512	37.27
722.829	37.98
723.146	36.56
723.463	36.98
723.779	38.17
724.096	38.3
724.413	39.47
724.729	38.13
725.046	37.21
725.362	38.95
725.679	37.22
725.995	38.49
726.311	38.38
726.628	38.43
726.944	39.63
727.26	37.69
727.576	37.33
727.892	39.14
728.208	38.49
728.524	38.28
728.84	39
729.156	37.86
729.472	38.17
729.787	39.14
730.103	38.21
730.419	38.54
730.734	37.87
731.05	40.27
731.365	37.79
731.681	38.91
731.996	38.49
732.311	38.87
732.626	38.94
732.942	38.87
733.257	38.72
733.572	38.51
733.887	37.94
734.202	38.22
734.517	38.75
734.832	39.71
735.146	37.93
735.461	38.4
735.776	38.73
736.091	38.83
736.405	39.09
736.72	38.34
737.034	39.65
737.349	37.45
737.663	38.58
737.977	39.43
738.292	39.36
738.606	38.58
738.92	38.67
739.234	38.29
739.548	39.25
739.862	39.73
740.176	38.04
740.49	40.76
740.804	39.26
741.117	39.18
741.431	39.84
741.745	37.45
742.058	38.16
742.372	39.55
742.685	39.7
742.999	39.85
743.312	38.28
743.626	40.02
743.939	40.49
744.252	37.77
744.565	39.18
744.878	40.06
745.191	39.59
745.505	39.37
745.817	40.11
746.13	38.19
746.443	37.77
746.756	39.59
747.069	38.75
747.381	38.81
747.694	37.84
748.007	39.54
748.319	37.8
748.632	40.76
748.944	40.37
749.256	38.68
749.569	38.72
749.881	38.81
750.193	38.74
750.505	39.32
750.817	39.46
751.129	37.96
751.441	40.17
751.753	42.7
752.065	40.78
752.377	40.8
752.689	40.69
753	40.33
753.312	40.06
753.624	40.13
753.935	39.75
754.247	39.95
754.558	40.28
754.869	38.96
755.181	40.77
755.492	38.75
755.803	41.02
756.114	38.13
756.425	40.2
756.736	39.47
757.047	40.19
757.358	40.51
757.669	42.14
757.98	41.91
758.291	40.37
758.601	40.3
758.912	38.99
759.223	41.15
759.533	40.53
759.844	40.45
760.154	39.01
760.464	42.15
760.775	40.01
761.085	39.53
761.395	40.05
761.705	41.8
762.016	41.09
762.326	38.22
762.636	41.43
762.945	40.07
763.255	40.89
763.565	40.84
763.875	40.87
764.185	40.93
764.494	40.11
764.804	41.09
765.113	40.42
765.423	39.92
765.732	39.94
766.042	40.83
766.351	40.12
766.66	39.94
766.97	41.37
767.279	40.84
767.588	40.45
767.897	37.88
768.206	39.57
768.515	39.94
768.824	40.51
769.133	40.83
769.441	39.42
769.75	39.75
770.059	41.58
770.367	41.11
770.676	40.52
770.984	40.49
771.293	39.37
771.601	40.32
771.91	40.63
772.218	39.2
772.526	40.02
772.834	39.77
773.142	40.93
773.45	42.41
773.758	36.67
774.066	40.63
774.374	43.53
774.682	40.01
774.99	36.76
775.298	42.25
775.605	39.36
775.913	44.23
776.22	40.11
776.528	41.45
776.835	41.13
777.143	40.62
777.45	39.9
777.757	40.39
778.065	41.3
778.372	42.01
778.679	42.49
778.986	45.38
779.293	41.49
779.6	42.15
779.907	41.31
780.214	40.58
780.52	42.77
780.827	42.51
781.134	40.84
781.44	43.4
781.747	42.68
782.053	40.84
782.36	44.22
782.666	38.28
782.973	40.55
783.279	39.74
783.585	40.12
783.891	41.04
784.197	37.63
784.503	42.91
784.809	42.77
785.115	42.14
785.421	41.03
785.727	41.37
786.033	43.97
786.339	40.16
786.644	38.05
786.95	43.57
787.255	42.39
787.561	37.58
787.866	39.72
788.172	38.73
788.477	43.17
788.782	42.53
789.088	42.61
789.393	39.64
789.698	45.97
790.003	45.38
790.308	41.04
790.613	38.91
790.918	40.46
791.223	44.29
791.527	42.31
791.832	42.2
792.137	43.68
792.441	38.44
792.746	41.74
793.05	42.6
793.355	41.81
793.659	42.15
793.963	43.15
794.268	42.73
794.572	46.11
794.876	44.76
795.18	40.62
795.484	42.82
795.788	41.99
796.092	43.56
796.396	39.96
796.7	41.35
797.004	44.02
797.307	41.6
797.611	42.83
797.915	39.95
798.218	43.22
798.522	36.54
798.825	41.83
799.128	43.19
799.432	43.86
799.735	40.89
800.038	44.05
800.341	41.69
800.644	43.16
800.947	43.16
801.25	41.89
801.553	42.43
801.856	43.19
802.159	44.9
802.462	40.51
802.764	43.18
803.067	39.35
803.37	40.39
803.672	44.22
803.975	43.45
804.277	42.7
804.579	41.65
804.882	44.41
805.184	40.97
805.486	45.18
805.788	41.62
806.09	43.54
806.392	39.82
806.694	41.24
806.996	42.54
807.298	39.47
807.6	44.67
807.902	41.95
808.203	39.57
808.505	41.64
808.807	45.47
809.108	41.25
809.409	43.19
809.711	39.73
810.012	43.56
810.313	36.31
810.615	41.11
810.916	43.5
811.217	37.63
811.518	35.48
811.819	39.07
812.12	45.03
812.421	43.52
812.722	44.16
813.023	42.14
813.323	49.89
813.624	49.87
813.925	46.89
814.225	41.26
814.526	42.28
814.826	46.64
815.126	37.07
815.427	41.11
815.727	47.37
816.027	38.4
816.327	39.01
816.627	44.33
816.927	38.77
817.227	42.91
817.527	39.85
817.827	43.05
818.127	38.89
818.427	37.22
818.727	42.86
819.026	42.91
819.326	40.41
819.625	39.34
819.925	43.84
820.224	50.77
820.524	46.33
820.823	42.97
821.122	41.03
821.421	42.66
821.72	45.86
822.019	37.21
822.318	45.33
822.617	45.9
822.916	43.41
823.215	43.01
823.514	41.19
823.813	42.57
824.111	45.09
824.41	43.06
824.709	44.04
825.007	44.21
825.306	44.13
825.604	43.73
825.902	43.57
826.201	42.74
826.499	42.08
826.797	42.6
827.095	43.89
827.393	41.3
827.691	43.67
827.989	40.95
828.287	44.49
828.585	44.9
828.882	43.05
829.18	43.53
829.478	43.95
829.775	45.92
830.073	43.24
830.37	44.04
830.668	44.44
830.965	42.79
831.263	42.86
831.56	42.78
831.857	47.08
832.154	41.82
832.451	43.87
832.748	42.63
833.045	43.41
833.342	40.9
833.639	42.67
833.936	41.11
834.232	44.11
834.529	40.02
834.826	42.7
835.122	39.44
835.419	45.91
835.715	44.18
836.012	43.85
836.308	45.81
836.604	43.24
836.901	44.86
837.197	45.06
837.493	41.59
837.789	43.92
838.085	43.11
838.381	42.03
838.677	41.83
838.972	44.6
839.268	44.59
839.564	42.91
839.86	40.5
840.155	46.12
840.451	42.47
840.746	47.94
841.042	41.8
841.337	48.27
841.632	47.55
841.928	47.79
842.223	37.08
842.518	39.55
842.813	39.11
843.108	46.32
843.403	45.18
843.698	46.77
843.993	47.23
844.287	37.37
844.582	38.1
844.877	43.33
845.171	42.38
845.466	29.95
845.761	50.5
846.055	51.14
846.349	42.83
846.644	37.58
846.938	40.49
847.232	42.15
847.526	43.75
847.82	40.01
848.114	41.13
848.408	34.22
848.702	43.82
848.996	47.9
849.29	38.85
849.584	48.77
849.877	37.5
850.171	38.2
850.465	35.96
850.758	35.65
851.052	35.8
851.345	33.34
851.638	32.4
851.932	35.97
852.225	54.22
852.518	38.52
852.811	30.19
853.104	41.15
853.397	48.52
853.69	45.08
853.983	50.37
854.276	50.32
854.569	15.27
854.861	55.26
855.154	55.72
855.447	57.26
855.739	47.77
856.032	31.48
856.324	30.6
856.616	52.8
856.909	46.41
857.201	58.07
857.493	39.83
857.785	40.49
858.077	62.46
858.369	28.39
858.661	52.14
858.953	39.02
859.245	52.76
859.537	32.52
859.829	30.14
860.12	47.49
860.412	33.4
860.703	47.18
860.995	46.87
861.286	36.54
861.578	40.95
861.869	70.33
862.16	46.09
862.452	38.97
862.743	29.78
863.034	42.68
863.325	32.05
863.616	47.5
863.907	58.23
864.198	42.42
864.488	44.36
864.779	29.86
865.07	43.95
865.36	26.14
865.651	43.84
865.941	54.61
866.232	53.96
866.522	47.59
866.813	70.21
867.103	56.17
867.393	51.42
867.683	70.27
867.973	28.14
868.263	47.12
868.553	46.4
868.843	32.37
869.133	65.37
869.423	50.95
869.713	53.97
870.002	43.18
870.292	47.48
870.582	61.82
870.871	21.66
871.161	29.46
871.45	34.08
871.739	42.29
872.029	39.76
872.318	52.69
872.607	57.87
872.896	75.14
873.185	32.64
873.474	56.21
873.763	28.51
874.052	36.28
874.341	53.21
874.63	58.48
874.918	59.19
875.207	32.03
875.496	53.29
875.784	36.38
876.073	42.88
876.361	69.46
876.649	49.43
876.938	42.13
877.226	52.31
877.514	31.7
877.802	53.27
878.09	41.64
878.378	48.36
878.666	37.41
878.954	45.83
879.242	33.23
879.53	58.38
879.817	25.42
880.105	43.4
880.392	53.93
880.68	31.15
880.967	38.19
881.255	26.74
881.542	11.26
881.83	45.03
882.117	68.75
882.404	40.65
882.691	23.55
882.978	39.79
883.265	53.38
883.552	29.71
883.839	49.13
884.126	51.82
884.413	56.76
884.699	47.9
884.986	40.62
885.273	44.59
885.559	44.59
885.846	44.59
