Data from 1886-1_chest_Reflection__4__80.txt Node

Date: Fri Sep 30 18:22:56 CDT 2022
User: ToomeyLab
Spectrometer: FLMS14357
Trigger mode: 0
Integration Time (sec): 1.000000E-2
Scans to average: 100
Electric dark correction enabled: true
Nonlinearity correction enabled: false
Boxcar width: 0
XAxis mode: Wavelengths
Number of Pixels in Spectrum: 2048
>>>>>Begin Spectral Data<<<<<
189.047	2257.78
189.435	2257.78
189.823	2257.78
190.211	7.07
190.599	-380.86
190.987	92.73
191.375	48.49
191.763	11200
192.151	178.38
192.538	-228.57
192.926	-185.84
193.314	1128.21
193.702	165.31
194.089	-30.78
194.477	-205.63
194.864	-92.35
195.252	-10.94
195.639	-647.33
196.027	7.99
196.414	77.32
196.801	71.94
197.189	211.09
197.576	-448.74
197.963	468.79
198.351	24.98
198.738	-16.82
199.125	44.86
199.512	35
199.899	-11.71
200.286	17.45
200.673	43.37
201.06	34.35
201.447	42.18
201.833	68.3
202.22	8.81
202.607	14.88
202.994	66.31
203.38	3.42
203.767	-4.55
204.154	55.84
204.54	18.53
204.927	56.55
205.313	3.32
205.699	59.03
206.086	-65.07
206.472	-29.19
206.858	26.41
207.245	21.51
207.631	-23.19
208.017	9.2
208.403	0.38
208.789	9.49
209.175	13.26
209.561	6.48
209.947	-11.05
210.333	-3.87
210.719	-7.29
211.105	-15.33
211.491	14.16
211.876	-1.81
212.262	17.98
212.648	29.14
213.034	11.56
213.419	36.43
213.805	-0.69
214.19	11.52
214.576	7.68
214.961	-6.88
215.346	8.54
215.732	-9.13
216.117	-16.8
216.502	3.94
216.888	43.15
217.273	0.47
217.658	26.2
218.043	11.38
218.428	7.37
218.813	28.62
219.198	-0.33
219.583	30.59
219.968	22.97
220.353	19.19
220.738	8.87
221.122	13.9
221.507	34.22
221.892	8.96
222.276	-2.98
222.661	-2.98
223.046	-0.81
223.43	1.88
223.815	16.89
224.199	3.86
224.583	-0.53
224.968	8.77
225.352	-0.63
225.736	11.04
226.121	10.9
226.505	2.75
226.889	4.22
227.273	1.02
227.657	8.05
228.041	3.14
228.425	10.23
228.809	6.36
229.193	5.43
229.577	3.72
229.961	4.97
230.344	3.95
230.728	4.81
231.112	4.62
231.495	4.43
231.879	6.51
232.263	3.64
232.646	3.39
233.03	6.18
233.413	4.28
233.797	6.63
234.18	3.67
234.563	4.79
234.946	5.37
235.33	4.47
235.713	5.07
236.096	5.63
236.479	4.68
236.862	6.48
237.245	5.63
237.628	3.78
238.011	7.63
238.394	4.82
238.777	4.36
239.16	2.81
239.543	4.37
239.925	5.15
240.308	4.25
240.691	5.53
241.073	4.81
241.456	4.4
241.838	5.27
242.221	5.75
242.603	4.89
242.986	5.42
243.368	3.98
243.75	4.38
244.133	5
244.515	4.64
244.897	5.03
245.279	5
245.661	4.2
246.043	4.13
246.425	4.34
246.807	4.65
247.189	5.14
247.571	4.59
247.953	5.03
248.335	4.09
248.717	4.44
249.098	4.68
249.48	4.28
249.862	4.29
250.243	4.28
250.625	4.81
251.006	5.25
251.388	4.2
251.769	5.32
252.151	4.34
252.532	4.42
252.913	3.89
253.295	4.95
253.676	3.9
254.057	4.81
254.438	4.84
254.819	5.02
255.2	4.21
255.581	5.38
255.962	4.91
256.343	4.88
256.724	3.72
257.105	4.61
257.486	4.58
257.867	4.77
258.247	4.78
258.628	4.98
259.009	5.44
259.389	5.13
259.77	4.87
260.15	4.26
260.531	4.72
260.911	4.49
261.292	4.09
261.672	4.21
262.052	4.23
262.432	4.23
262.813	4.97
263.193	4.39
263.573	4.33
263.953	4.05
264.333	4.63
264.713	3.72
265.093	4.23
265.473	3.69
265.853	3.91
266.233	3.76
266.612	4.21
266.992	3.77
267.372	3.8
267.752	4.25
268.131	4.25
268.511	4.19
268.89	3.94
269.27	4.22
269.649	3.98
270.029	4.15
270.408	3.66
270.787	4.68
271.167	4.44
271.546	4.78
271.925	4.97
272.304	4.08
272.683	4.29
273.062	4.12
273.441	3.67
273.82	3.87
274.199	4.38
274.578	4.27
274.957	4.45
275.336	4.21
275.715	4.09
276.093	4.49
276.472	3.96
276.851	4.79
277.229	4.07
277.608	4.19
277.986	3.95
278.365	4.7
278.743	3.62
279.122	4.38
279.5	4.52
279.878	4.63
280.257	3.9
280.635	4.56
281.013	4.78
281.391	3.95
281.769	3.73
282.147	3.87
282.525	3.85
282.903	4.07
283.281	4.17
283.659	4.01
284.037	3.92
284.415	4.29
284.792	4.22
285.17	3.64
285.548	4.17
285.925	4.44
286.303	3.77
286.68	3.77
287.058	4.01
287.435	3.96
287.813	3.8
288.19	4.2
288.567	4.1
288.945	3.48
289.322	3.37
289.699	3.89
290.076	3.69
290.453	4.48
290.83	4
291.207	3.49
291.584	3.42
291.961	3.98
292.338	3.93
292.715	3.76
293.092	3.82
293.469	4.53
293.845	4.26
294.222	3.75
294.599	4.33
294.975	4.32
295.352	4.5
295.728	4.07
296.105	4
296.481	3.86
296.858	4.23
297.234	4.13
297.61	4.08
297.986	3.54
298.363	4.01
298.739	3.75
299.115	3.83
299.491	3.98
299.867	3.95
300.243	3.79
300.619	3.51
300.995	4.45
301.371	3.97
301.746	4.01
302.122	4.62
302.498	3.68
302.874	4.17
303.249	4.24
303.625	4.18
304	4.24
304.376	4.02
304.751	3.93
305.127	4.11
305.502	3.91
305.878	4.22
306.253	4.47
306.628	4.19
307.003	3.99
307.378	3.88
307.754	3.73
308.129	4
308.504	4.37
308.879	4.47
309.254	3.84
309.629	4.46
310.003	4.21
310.378	3.78
310.753	3.46
311.128	3.62
311.502	3.92
311.877	4.09
312.252	4.31
312.626	4.01
313.001	3.86
313.375	3.75
313.75	4.16
314.124	3.8
314.498	4.03
314.873	3.71
315.247	4.05
315.621	4.32
315.995	4.19
316.369	3.89
316.743	4.2
317.117	4.34
317.491	4.62
317.865	4.78
318.239	4.32
318.613	4.15
318.987	4
319.361	3.96
319.734	3.57
320.108	4
320.482	3.88
320.855	4.19
321.229	4.11
321.602	3.72
321.976	3.94
322.349	4.1
322.723	3.82
323.096	4.54
323.469	3.89
323.843	3.66
324.216	3.93
324.589	4.19
324.962	4.36
325.335	4.08
325.708	4.15
326.081	4.22
326.454	4.02
326.827	4.19
327.2	3.99
327.573	3.82
327.945	3.39
328.318	4.12
328.691	4.11
329.063	3.66
329.436	3.96
329.809	4.08
330.181	4.35
330.553	4.29
330.926	4.48
331.298	4.14
331.671	4.15
332.043	4.05
332.415	3.71
332.787	3.89
333.159	3.99
333.532	4.18
333.904	4.15
334.276	3.87
334.648	3.58
335.02	4.61
335.391	4.02
335.763	3.93
336.135	4.21
336.507	3.8
336.879	3.61
337.25	3.31
337.622	4.34
337.993	3.7
338.365	4.03
338.736	4.05
339.108	3.76
339.479	4.49
339.851	3.76
340.222	4.81
340.593	3.42
340.964	3.59
341.336	4.31
341.707	3.61
342.078	3.96
342.449	3.98
342.82	3.85
343.191	3.6
343.562	3.88
343.933	3.84
344.303	3.92
344.674	4.25
345.045	3.8
345.416	4.35
345.786	3.66
346.157	4.25
346.527	3.91
346.898	4.01
347.268	3.89
347.639	3.63
348.009	4.14
348.38	4.08
348.75	4.45
349.12	4.23
349.49	4.22
349.861	4.06
350.231	3.81
350.601	4.12
350.971	4.17
351.341	3.88
351.711	4.09
352.081	3.71
352.45	4.49
352.82	4.32
353.19	4.44
353.56	4.12
353.929	3.78
354.299	4.21
354.669	4.04
355.038	4.18
355.408	4.25
355.777	3.9
356.147	4.01
356.516	4.07
356.885	3.79
357.254	4.22
357.624	4.36
357.993	3.88
358.362	4.53
358.731	3.94
359.1	4
359.469	3.83
359.838	4.13
360.207	4.16
360.576	3.77
360.945	4.12
361.314	4.01
361.682	4.07
362.051	4.01
362.42	3.77
362.788	4
363.157	4.1
363.525	3.79
363.894	3.99
364.262	4.19
364.631	4.39
364.999	4.11
365.367	4.33
365.735	3.9
366.104	4.03
366.472	4.44
366.84	4.27
367.208	4.09
367.576	4.61
367.944	4.34
368.312	3.85
368.68	4.03
369.048	3.87
369.416	4.3
369.783	4.12
370.151	3.98
370.519	4.14
370.886	4.04
371.254	4.01
371.621	4.37
371.989	4.14
372.356	4.04
372.724	4.38
373.091	3.98
373.458	4.02
373.826	4.37
374.193	4.21
374.56	4.08
374.927	4.31
375.294	4.07
375.661	3.94
376.028	4.19
376.395	4.13
376.762	4
377.129	4.4
377.496	4.33
377.863	3.94
378.229	4.57
378.596	4.28
378.963	4.09
379.329	4.06
379.696	4.23
380.062	4.47
380.429	4.52
380.795	4.02
381.161	4.07
381.528	4.24
381.894	4.35
382.26	4.07
382.626	3.9
382.993	4.02
383.359	3.95
383.725	3.76
384.091	4.02
384.457	4.13
384.823	4.4
385.188	4.22
385.554	4.41
385.92	4.33
386.286	4.22
386.651	4.16
387.017	4.06
387.383	4.22
387.748	3.94
388.114	4.47
388.479	4.05
388.845	4.08
389.21	4.23
389.575	4.09
389.94	4.17
390.306	4.23
390.671	4.2
391.036	4.33
391.401	4.08
391.766	4.39
392.131	4.15
392.496	4.1
392.861	4.32
393.226	4.23
393.591	4.2
393.956	4.42
394.32	4.3
394.685	3.99
395.05	4.12
395.414	4.37
395.779	4.2
396.143	4.27
396.508	4.38
396.872	4.35
397.236	4.12
397.601	4.18
397.965	4.4
398.329	4.12
398.694	4.27
399.058	4.31
399.422	4.31
399.786	4
400.15	4.37
400.514	4.27
400.878	4.17
401.242	4.12
401.605	4.07
401.969	4.27
402.333	4.37
402.697	4.43
403.06	4.35
403.424	4.22
403.787	4.54
404.151	4.43
404.514	4.39
404.878	4.07
405.241	4.36
405.604	4.23
405.968	4.52
406.331	4.23
406.694	4.28
407.057	4.28
407.42	4.31
407.783	4.18
408.146	4.25
408.509	4.28
408.872	4.36
409.235	4.24
409.598	4.41
409.961	4.09
410.323	4.48
410.686	4.44
411.049	4.28
411.411	4.52
411.774	4.48
412.136	4.44
412.499	4.22
412.861	4.32
413.223	4.23
413.586	4.1
413.948	4.57
414.31	4.52
414.672	4.53
415.035	4.46
415.397	4.23
415.759	4.34
416.121	4.42
416.483	4.37
416.845	4.35
417.206	4.52
417.568	4.51
417.93	4.25
418.292	4.27
418.653	4.26
419.015	4.45
419.377	4.35
419.738	4.36
420.1	4.35
420.461	4.37
420.822	4.35
421.184	4.31
421.545	4.21
421.906	4.16
422.267	4.27
422.629	4.29
422.99	4.31
423.351	4.23
423.712	4.31
424.073	4.35
424.434	4.37
424.795	4.3
425.155	4.27
425.516	4.33
425.877	4.26
426.238	4.32
426.598	4.32
426.959	4.37
427.32	4.35
427.68	4.37
428.041	4.36
428.401	4.47
428.761	4.5
429.122	4.45
429.482	4.5
429.842	4.57
430.202	4.41
430.563	4.36
430.923	4.51
431.283	4.44
431.643	4.38
432.003	4.37
432.363	4.36
432.722	4.48
433.082	4.56
433.442	4.36
433.802	4.54
434.161	4.31
434.521	4.45
434.881	4.33
435.24	4.35
435.6	4.51
435.959	4.46
436.319	4.36
436.678	4.59
437.037	4.46
437.396	4.5
437.756	4.4
438.115	4.5
438.474	4.46
438.833	4.59
439.192	4.47
439.551	4.47
439.91	4.39
440.269	4.34
440.628	4.47
440.987	4.55
441.345	4.47
441.704	4.4
442.063	4.51
442.421	4.43
442.78	4.43
443.138	4.32
443.497	4.52
443.855	4.67
444.214	4.52
444.572	4.53
444.93	4.44
445.288	4.45
445.647	4.33
446.005	4.52
446.363	4.44
446.721	4.42
447.079	4.5
447.437	4.49
447.795	4.39
448.153	4.32
448.51	4.27
448.868	4.4
449.226	4.43
449.584	4.46
449.941	4.41
450.299	4.5
450.656	4.5
451.014	4.58
451.371	4.57
451.729	4.49
452.086	4.7
452.443	4.61
452.801	4.62
453.158	4.55
453.515	4.62
453.872	4.62
454.229	4.51
454.586	4.61
454.943	4.56
455.3	4.61
455.657	4.6
456.014	4.5
456.371	4.41
456.727	4.52
457.084	4.47
457.441	4.49
457.797	4.53
458.154	4.39
458.51	4.54
458.867	4.61
459.223	4.54
459.58	4.76
459.936	4.69
460.292	4.64
460.648	4.53
461.005	4.67
461.361	4.47
461.717	4.42
462.073	4.51
462.429	4.57
462.785	4.61
463.141	4.67
463.496	4.51
463.852	4.62
464.208	4.67
464.564	4.51
464.919	4.54
465.275	4.72
465.631	4.66
465.986	4.67
466.342	4.64
466.697	4.63
467.052	4.67
467.408	4.48
467.763	4.49
468.118	4.66
468.473	4.57
468.829	4.49
469.184	4.68
469.539	4.77
469.894	4.61
470.249	4.67
470.603	4.74
470.958	4.6
471.313	4.46
471.668	4.59
472.023	4.52
472.377	4.69
472.732	4.75
473.086	4.61
473.441	4.75
473.795	4.62
474.15	4.58
474.504	4.67
474.859	4.78
475.213	4.66
475.567	4.7
475.921	4.68
476.275	4.58
476.63	4.61
476.984	4.65
477.338	4.58
477.692	4.73
478.045	4.71
478.399	4.74
478.753	4.76
479.107	4.61
479.461	4.65
479.814	4.53
480.168	4.73
480.521	4.64
480.875	4.87
481.228	4.67
481.582	4.71
481.935	4.68
482.289	4.76
482.642	4.62
482.995	4.64
483.348	4.71
483.701	4.68
484.055	4.56
484.408	4.6
484.761	4.5
485.114	4.44
485.466	4.36
485.819	4.39
486.172	4.46
486.525	4.51
486.878	4.54
487.23	4.58
487.583	4.52
487.936	4.61
488.288	4.6
488.641	4.47
488.993	4.53
489.345	4.47
489.698	4.45
490.05	4.53
490.402	4.51
490.754	4.64
491.107	4.62
491.459	4.68
491.811	4.67
492.163	4.76
492.515	4.68
492.866	4.57
493.218	4.56
493.57	4.49
493.922	4.6
494.274	4.6
494.625	4.72
494.977	4.67
495.328	4.78
495.68	4.73
496.031	4.82
496.383	4.81
496.734	4.86
497.086	4.77
497.437	4.79
497.788	4.73
498.139	4.74
498.49	4.76
498.842	4.73
499.193	4.73
499.544	4.83
499.894	4.85
500.245	4.71
500.596	4.78
500.947	4.89
501.298	4.92
501.648	4.81
501.999	4.81
502.35	4.72
502.7	4.78
503.051	4.77
503.401	5
503.752	4.76
504.102	4.9
504.452	4.81
504.803	4.85
505.153	4.86
505.503	4.9
505.853	4.92
506.203	4.8
506.553	4.89
506.903	4.96
507.253	4.88
507.603	5
507.953	5.08
508.303	4.87
508.652	4.85
509.002	4.98
509.352	4.94
509.701	4.8
510.051	4.94
510.4	4.88
510.75	4.98
511.099	4.8
511.449	4.92
511.798	4.84
512.147	4.87
512.496	4.84
512.846	4.91
513.195	4.93
513.544	4.89
513.893	5.03
514.242	4.91
514.591	4.96
514.939	4.87
515.288	4.96
515.637	4.87
515.986	4.96
516.334	4.88
516.683	4.92
517.032	4.99
517.38	4.96
517.729	5.12
518.077	4.95
518.426	5.05
518.774	5
519.122	4.91
519.47	5.04
519.819	5
520.167	4.99
520.515	5.03
520.863	5.02
521.211	5.02
521.559	5.08
521.907	5.08
522.255	4.99
522.602	5.11
522.95	5.04
523.298	5.13
523.645	5.16
523.993	5.09
524.341	5.09
524.688	5.19
525.036	5.14
525.383	4.98
525.73	5.1
526.078	5.2
526.425	4.99
526.772	5.09
527.119	5
527.466	5.05
527.814	5.07
528.161	5.04
528.508	5.08
528.854	5.05
529.201	4.95
529.548	5.06
529.895	5.02
530.242	4.91
530.588	4.95
530.935	5.02
531.282	5.03
531.628	5.07
531.975	5.12
532.321	5.1
532.667	5.21
533.014	5.13
533.36	5.2
533.706	5.22
534.052	5.23
534.399	5.07
534.745	5.14
535.091	5.12
535.437	5.22
535.783	5.18
536.129	5.24
536.474	5.28
536.82	5.22
537.166	5.42
537.512	5.26
537.857	5.35
538.203	5.21
538.549	5.25
538.894	5.32
539.239	5.34
539.585	5.49
539.93	5.39
540.276	5.42
540.621	5.55
540.966	5.46
541.311	5.45
541.656	5.42
542.001	5.31
542.346	5.37
542.691	5.21
543.036	5.22
543.381	5.3
543.726	5.32
544.071	5.42
544.415	5.38
544.76	5.37
545.105	5.47
545.449	5.48
545.794	5.5
546.138	5.54
546.483	5.66
546.827	5.5
547.171	5.44
547.516	5.52
547.86	5.46
548.204	5.58
548.548	5.58
548.892	5.59
549.236	5.74
549.58	5.67
549.924	5.66
550.268	5.95
550.612	5.78
550.956	5.87
551.3	5.7
551.643	5.89
551.987	5.69
552.33	5.85
552.674	5.82
553.017	5.77
553.361	5.93
553.704	5.98
554.048	5.76
554.391	6
554.734	5.8
555.077	5.94
555.42	5.87
555.764	5.9
556.107	5.89
556.45	6.11
556.793	5.79
557.135	6.06
557.478	5.9
557.821	6.06
558.164	6.17
558.507	6.16
558.849	5.98
559.192	6.05
559.534	5.83
559.877	6.22
560.219	6.13
560.562	6.18
560.904	6.08
561.246	6.1
561.589	6.06
561.931	6.21
562.273	6.17
562.615	6.14
562.957	6.06
563.299	6.27
563.641	6.05
563.983	6.04
564.325	6.09
564.667	6.37
565.008	6.3
565.35	6.38
565.692	6.34
566.033	6.22
566.375	6.16
566.716	6.28
567.058	6.36
567.399	6.37
567.741	6.42
568.082	6.29
568.423	6.43
568.764	6.31
569.105	6.46
569.447	6.46
569.788	6.56
570.129	6.58
570.47	6.57
570.811	6.49
571.151	6.55
571.492	6.67
571.833	6.7
572.174	6.38
572.514	6.58
572.855	6.62
573.195	6.59
573.536	6.67
573.876	6.72
574.217	6.57
574.557	6.75
574.898	6.77
575.238	6.9
575.578	6.83
575.918	6.76
576.258	6.83
576.598	6.85
576.938	6.74
577.278	7
577.618	6.95
577.958	6.92
578.298	6.9
578.638	7.07
578.977	6.91
579.317	6.99
579.657	7.02
579.996	6.86
580.336	7.13
580.675	7.01
581.014	7.07
581.354	7.12
581.693	7.16
582.032	6.91
582.372	7.18
582.711	7.03
583.05	7.09
583.389	7.07
583.728	7.06
584.067	7.38
584.406	7.13
584.745	7.17
585.083	7.19
585.422	7.41
585.761	7.29
586.1	7.28
586.438	7.49
586.777	7.72
587.115	7.47
587.454	7.38
587.792	7.22
588.13	7.6
588.469	7.5
588.807	7.41
589.145	7.47
589.483	7.64
589.821	7.65
590.159	7.74
590.497	7.44
590.835	7.61
591.173	7.37
591.511	7.51
591.849	7.92
592.187	7.65
592.524	7.61
592.862	7.66
593.2	8.01
593.537	7.53
593.875	7.85
594.212	7.59
594.55	7.82
594.887	8.12
595.224	7.95
595.561	8.01
595.899	7.94
596.236	8.09
596.573	7.95
596.91	7.85
597.247	7.85
597.584	8.14
597.921	7.9
598.258	7.98
598.594	7.9
598.931	7.97
599.268	7.99
599.604	8.15
599.941	7.92
600.277	8.09
600.614	8.17
600.95	8.34
601.287	8.07
601.623	8.44
601.959	8.4
602.296	8.3
602.632	8.45
602.968	8.65
603.304	8.4
603.64	8.29
603.976	8.48
604.312	8.56
604.648	8.6
604.984	8.53
605.319	8.51
605.655	8.6
605.991	8.48
606.326	8.43
606.662	8.47
606.998	8.5
607.333	8.53
607.668	8.63
608.004	8.85
608.339	8.68
608.674	8.88
609.01	8.62
609.345	8.65
609.68	8.82
610.015	9.18
610.35	8.98
610.685	8.73
611.02	8.8
611.355	8.73
611.689	8.84
612.024	9.04
612.359	9.03
612.694	9.21
613.028	9.16
613.363	9.31
613.697	9.26
614.032	9.29
614.366	9.27
614.7	9.14
615.035	9.44
615.369	9.04
615.703	9.49
616.037	9.51
616.371	9.47
616.705	9.37
617.039	9.4
617.373	9.34
617.707	9.52
618.041	9.6
618.375	9.44
618.709	9.68
619.042	9.45
619.376	9.5
619.71	9.75
620.043	9.92
620.377	9.97
620.71	9.68
621.043	9.63
621.377	9.85
621.71	9.14
622.043	9.84
622.376	9.47
622.709	9.67
623.043	9.83
623.376	10.09
623.709	9.96
624.041	10.16
624.374	9.96
624.707	9.6
625.04	9.97
625.373	10.18
625.705	10.04
626.038	10.12
626.37	10
626.703	10.37
627.035	10.33
627.368	10.36
627.7	10.18
628.032	10.23
628.365	10.18
628.697	10.47
629.029	10.2
629.361	10.5
629.693	10.57
630.025	10.27
630.357	10.53
630.689	10.45
631.021	10.41
631.353	10.56
631.684	10.68
632.016	10.86
632.348	10.68
632.679	10.64
633.011	10.72
633.342	10.75
633.674	10.96
634.005	10.79
634.336	10.84
634.668	10.93
634.999	10.94
635.33	11.05
635.661	10.77
635.992	10.91
636.323	10.85
636.654	10.98
636.985	10.85
637.316	11.06
637.647	10.62
637.977	11.4
638.308	11.23
638.639	10.79
638.969	11.28
639.3	11.08
639.63	10.71
639.961	11.54
640.291	10.89
640.622	11.15
640.952	10.96
641.282	11.57
641.612	11.35
641.943	11.12
642.273	11.3
642.603	11.41
642.933	11.33
643.263	11.63
643.592	11.52
643.922	11.25
644.252	11.75
644.582	11.89
644.911	11.99
645.241	11.77
645.571	11.45
645.9	11.89
646.23	11.55
646.559	11.74
646.888	12.06
647.218	11.5
647.547	11.76
647.876	11.55
648.205	12.14
648.534	11.86
648.863	12.09
649.192	11.79
649.521	11.69
649.85	12.01
650.179	12.15
650.508	11.88
650.837	12.32
651.165	11.71
651.494	12.24
651.822	12.29
652.151	12.37
652.479	12.55
652.808	11.93
653.136	12.36
653.465	12.44
653.793	12.17
654.121	12.21
654.449	12.76
654.777	12.18
655.105	12.78
655.433	12.46
655.761	12.94
656.089	13.02
656.417	12.55
656.745	12.32
657.073	12.58
657.4	12.75
657.728	12.7
658.056	12.5
658.383	13.11
658.711	12.7
659.038	12.59
659.365	12.64
659.693	13.08
660.02	13.05
660.347	13.05
660.674	12.79
661.001	13.24
661.329	13.19
661.656	12.68
661.982	13.03
662.309	13.19
662.636	12.91
662.963	12.93
663.29	12.84
663.616	12.86
663.943	13.16
664.27	13.51
664.596	12.67
664.923	13.06
665.249	13.87
665.576	13.46
665.902	13.31
666.228	13.36
666.554	13.41
666.881	13.81
667.207	13.41
667.533	13.79
667.859	13.47
668.185	13.67
668.511	13.66
668.837	13.55
669.162	13.83
669.488	13.62
669.814	13.62
670.139	13.29
670.465	14.5
670.791	13.72
671.116	13.44
671.442	14.13
671.767	14.09
672.092	13.89
672.418	14.46
672.743	13.94
673.068	13.78
673.393	14.11
673.718	13.77
674.043	14.25
674.368	14.17
674.693	14.04
675.018	14.52
675.343	14.17
675.667	14
675.992	14.03
676.317	15.01
676.641	14.47
676.966	13.5
677.29	13.89
677.615	14.25
677.939	14.6
678.264	14.07
678.588	14.21
678.912	14.42
679.236	14.28
679.56	14.14
679.885	14.22
680.209	14.46
680.532	14.83
680.856	14.22
681.18	14.67
681.504	14.87
681.828	14.85
682.152	14.51
682.475	14.41
682.799	14.97
683.122	14.47
683.446	15.1
683.769	15.6
684.093	15.38
684.416	15.55
684.739	14.98
685.062	15.63
685.386	15.02
685.709	14.77
686.032	15.17
686.355	15.17
686.678	15.24
687.001	15.17
687.324	15.72
687.646	15.16
687.969	15.86
688.292	15.42
688.614	15.6
688.937	15.43
689.26	16.06
689.582	15.19
689.904	15.39
690.227	15.14
690.549	14.87
690.871	15.78
691.194	15.05
691.516	16.2
691.838	15.65
692.16	15.45
692.482	16.36
692.804	16.21
693.126	15.97
693.448	15.33
693.769	16.72
694.091	15.15
694.413	16.75
694.735	16.6
695.056	16.98
695.378	14.75
695.699	16.4
696.021	16.23
696.342	16.25
696.663	16.05
696.984	16.75
697.306	16.05
697.627	15.99
697.948	16.79
698.269	16.58
698.59	16.07
698.911	16.08
699.232	16.83
699.553	17.02
699.873	16.43
700.194	16.6
700.515	16.48
700.835	15.96
701.156	16.32
701.477	16.82
701.797	16.29
702.117	16.77
702.438	16.87
702.758	16.71
703.078	16.48
703.398	17.08
703.719	17.42
704.039	17.26
704.359	16.52
704.679	16.55
704.999	15.73
705.319	16.82
705.638	17.2
705.958	17.7
706.278	17.32
706.597	17.06
706.917	18.03
707.237	16.95
707.556	17.07
707.876	17.93
708.195	18.03
708.514	17.35
708.834	17.97
709.153	16.94
709.472	18.03
709.791	17.64
710.11	17.87
710.429	16.32
710.748	17.69
711.067	16.62
711.386	17.55
711.705	16.99
712.023	17.89
712.342	17.58
712.661	17.82
712.979	18.03
713.298	17.58
713.616	17.3
713.935	17.89
714.253	17.74
714.572	17.75
714.89	17.66
715.208	17.42
715.526	17.6
715.844	19.07
716.162	18.2
716.48	18.83
716.798	18.25
717.116	18.17
717.434	18.73
717.752	17.18
718.069	18.44
718.387	17.82
718.705	19.37
719.022	18.04
719.34	19.26
719.657	18.68
719.975	18.54
720.292	17.71
720.609	17.52
720.927	18.71
721.244	18.72
721.561	18.99
721.878	18.31
722.195	18.67
722.512	18.76
722.829	19.41
723.146	17.77
723.463	19.01
723.779	21.05
724.096	19.26
724.413	21.43
724.729	18.17
725.046	18.34
725.362	19.21
725.679	17.94
725.995	20.17
726.311	19.41
726.628	19.07
726.944	19.43
727.26	19.69
727.576	18.66
727.892	20.41
728.208	19.27
728.524	18.6
728.84	20
729.156	20.6
729.472	20.16
729.787	19.34
730.103	18.66
730.419	20.3
730.734	19.41
731.05	20.72
731.365	20.1
731.681	18.88
731.996	18.88
732.311	20
732.626	21.8
732.942	19.63
733.257	21.03
733.572	19.51
733.887	19.65
734.202	19.74
734.517	20.1
734.832	20.56
735.146	20.47
735.461	20.4
735.776	20.9
736.091	21.42
736.405	19.64
736.72	19.4
737.034	20.67
737.349	19.68
737.663	20.46
737.977	19.68
738.292	20.42
738.606	19.96
738.92	20.94
739.234	20.33
739.548	20.54
739.862	20.84
740.176	20.1
740.49	20.79
740.804	21.37
741.117	21.54
741.431	20.65
741.745	20.44
742.058	21.35
742.372	20.31
742.685	20.1
742.999	20.27
743.312	21.17
743.626	20.78
743.939	21.36
744.252	21.93
744.565	22.74
744.878	21.78
745.191	19.66
745.505	22.32
745.817	20.97
746.13	21.75
746.443	21.36
746.756	20.96
747.069	20.78
747.381	20.82
747.694	20.17
748.007	21.36
748.319	21.94
748.632	22.67
748.944	23.24
749.256	22.68
749.569	21.03
749.881	21.01
750.193	22.75
750.505	21.64
750.817	21.44
751.129	22.01
751.441	24.23
751.753	22.55
752.065	21.49
752.377	21.63
752.689	20.79
753	22.35
753.312	23.68
753.624	21.67
753.935	21.89
754.247	21.43
754.558	22.94
754.869	21.73
755.181	21.81
755.492	21.45
755.803	22.98
756.114	22.11
756.425	22.41
756.736	21.91
757.047	22.85
757.358	22.04
757.669	24.57
757.98	23.97
758.291	23.07
758.601	22.48
758.912	21.74
759.223	22.75
759.533	23.38
759.844	24.04
760.154	23.36
760.464	23.12
760.775	20.8
761.085	23.51
761.395	23.38
761.705	24.56
762.016	22.19
762.326	22.75
762.636	23.73
762.945	22.96
763.255	21.51
763.565	22.68
763.875	25.14
764.185	23.48
764.494	23.18
764.804	23.99
765.113	23.24
765.423	23.9
765.732	22.89
766.042	24.01
766.351	24.89
766.66	23.08
766.97	24.44
767.279	23.4
767.588	23.66
767.897	22.84
768.206	22.65
768.515	24.13
768.824	24.39
769.133	22.74
769.441	24.78
769.75	23.17
770.059	21.98
770.367	21.92
770.676	22.59
770.984	25.36
771.293	25.73
771.601	20.21
771.91	22.53
772.218	24.28
772.526	25.43
772.834	24.13
773.142	24.13
773.45	24.91
773.758	20.75
774.066	23.42
774.374	21.97
774.682	23.01
774.99	23.77
775.298	24.4
775.605	23.66
775.913	25.23
776.22	24.15
776.528	23.7
776.835	22.53
777.143	24.53
777.45	26.64
777.757	25.29
778.065	24.99
778.372	22.99
778.679	28.68
778.986	22.84
779.293	25.91
779.6	25.55
779.907	25.4
780.214	23.69
780.52	22.58
780.827	22.65
781.134	24.8
781.44	26.05
781.747	22.77
782.053	23.13
782.36	25.07
782.666	25.39
782.973	29.23
783.279	27.47
783.585	25.43
783.891	26.02
784.197	29.07
784.503	26.38
784.809	26.89
785.115	26.37
785.421	26.62
785.727	23.19
786.033	26.65
786.339	25.41
786.644	22.29
786.95	29.5
787.255	26.19
787.561	24.97
787.866	23.95
788.172	26.84
788.477	26.32
788.782	28.04
789.088	28.45
789.393	23.31
789.698	27.69
790.003	25.24
790.308	22.89
790.613	25.72
790.918	23.66
791.223	28.09
791.527	26.93
791.832	26.76
792.137	29.81
792.441	23.03
792.746	25.45
793.05	24.49
793.355	28.98
793.659	25.93
793.963	27.24
794.268	29.28
794.572	26.68
794.876	27.99
795.18	27.08
795.484	30.5
795.788	27.83
796.092	28.89
796.396	23.86
796.7	24.45
797.004	27.09
797.307	23.69
797.611	28.23
797.915	25.81
798.218	29.35
798.522	24.91
798.825	26.03
799.128	26.88
799.432	28.95
799.735	24.71
800.038	22.13
800.341	28.35
800.644	25.8
800.947	27.28
801.25	28.95
801.553	29.12
801.856	23.34
802.159	26.72
802.462	28.72
802.764	28.57
803.067	28.37
803.37	24.72
803.672	30.15
803.975	28.91
804.277	24.68
804.579	24.16
804.882	31.65
805.184	27.66
805.486	30.59
805.788	25.89
806.09	26.54
806.392	29.81
806.694	29.02
806.996	31.23
807.298	31.13
807.6	30.09
807.902	28.92
808.203	21.61
808.505	28.19
808.807	34.19
809.108	31.22
809.409	26.24
809.711	27.21
810.012	27.94
810.313	28.32
810.615	30.71
810.916	34.97
811.217	24.99
811.518	25.45
811.819	26.27
812.12	25.5
812.421	27.43
812.722	29.68
813.023	29.1
813.323	30.79
813.624	31.63
813.925	27.43
814.225	30.28
814.526	29.07
814.826	25.37
815.126	26.31
815.427	31.33
815.727	28.9
816.027	27.16
816.327	25.7
816.627	26.31
816.927	28.29
817.227	31.15
817.527	24.33
817.827	31.09
818.127	29.73
818.427	29.81
818.727	23.61
819.026	29.14
819.326	31.45
819.625	28.21
819.925	30.8
820.224	28.75
820.524	32.98
820.823	32.78
821.122	32.29
821.421	32.87
821.72	32.43
822.019	26.87
822.318	30.43
822.617	28.05
822.916	28.84
823.215	29.39
823.514	26.4
823.813	29.63
824.111	30.62
824.41	28.83
824.709	30.1
825.007	29.87
825.306	29.91
825.604	29.95
825.902	30.78
826.201	30.15
826.499	29.26
826.797	28.07
827.095	30.08
827.393	30.61
827.691	31.4
827.989	28.83
828.287	29.64
828.585	29.63
828.882	29.66
829.18	30.4
829.478	31.34
829.775	31.92
830.073	30.39
830.37	30.84
830.668	32.88
830.965	30.74
831.263	30.26
831.56	29.63
831.857	31.68
832.154	28.03
832.451	33.39
832.748	29.75
833.045	34.38
833.342	30.26
833.639	28.52
833.936	31.33
834.232	28.38
834.529	25.91
834.826	31.85
835.122	36.14
835.419	31.05
835.715	33.29
836.012	31.51
836.308	31.79
836.604	32.03
836.901	30.57
837.197	33.01
837.493	29.91
837.789	32.87
838.085	30.75
838.381	29.61
838.677	31.15
838.972	32.43
839.268	28.73
839.564	25.29
839.86	32.21
840.155	29
840.451	30.44
840.746	31.35
841.042	37.08
841.337	37.64
841.632	24.28
841.928	39.42
842.223	32.63
842.518	31.66
842.813	31.68
843.108	33.8
843.403	34.53
843.698	35.41
843.993	25.93
844.287	22.89
844.582	30.55
844.877	32.63
845.171	22.95
845.466	30.21
845.761	37.69
846.055	34.16
846.349	31.58
846.644	34.38
846.938	26.5
847.232	22.69
847.526	39.16
847.82	37.8
848.114	39.54
848.408	42.1
848.702	38.95
848.996	37.38
849.29	25.44
849.584	37.16
849.877	31.71
850.171	45.71
850.465	39.41
850.758	30.3
851.052	27.4
851.345	25.76
851.638	34.69
851.932	27.95
852.225	34.43
852.518	33.49
852.811	26.05
853.104	29.28
853.397	44.01
853.69	21.71
853.983	39.39
854.276	29.39
854.569	21.69
854.861	45.93
855.154	29.93
855.447	33.36
855.739	18.86
856.032	22.18
856.324	26.33
856.616	30.87
856.909	27.82
857.201	37.94
857.493	10.11
857.785	28.51
858.077	38.62
858.369	20.55
858.661	31.71
858.953	42.8
859.245	30.76
859.537	29.26
859.829	47.32
860.12	38.74
860.412	49.71
860.703	31.57
860.995	13.03
861.286	8.47
861.578	19.98
861.869	34
862.16	27.93
862.452	31.99
862.743	8.53
863.034	42.28
863.325	16.21
863.616	37.72
863.907	18.32
864.198	20.68
864.488	26.57
864.779	33.27
865.07	29.83
865.36	37.88
865.651	47.44
865.941	33.15
866.232	36.07
866.522	53.13
866.813	39.62
867.103	43.15
867.393	32.23
867.683	34.31
867.973	22.1
868.263	45.8
868.553	44.11
868.843	28.21
869.133	49.2
869.423	39.53
869.713	22.5
870.002	17.11
870.292	15.94
870.582	21.67
870.871	45.55
871.161	22.27
871.45	24.74
871.739	24.65
872.029	43.12
872.318	52.43
872.607	14.23
872.896	53.96
873.185	52.83
873.474	40.06
873.763	14.15
874.052	17.34
874.341	32.68
874.63	46.3
874.918	57.26
875.207	27.81
875.496	21.49
875.784	24.81
876.073	27.2
876.361	29.83
876.649	40.06
876.938	12.01
877.226	18.37
877.514	12
877.802	14.45
878.09	41.59
878.378	43.25
878.666	41.48
878.954	29.39
879.242	27.45
879.53	23.5
879.817	27.22
880.105	22.46
880.392	31.67
880.68	19.79
880.967	36.8
881.255	24.68
881.542	37.88
881.83	52.11
882.117	48.3
882.404	21.25
882.691	24.42
882.978	55.79
883.265	30.87
883.552	14.24
883.839	43.72
884.126	30.62
884.413	36.33
884.699	41.4
884.986	36.17
885.273	29.06
885.559	29.06
885.846	29.06
