Data from 1886-1_forehead_Reflection__0__86.txt Node

Date: Fri Sep 30 18:25:26 CDT 2022
User: ToomeyLab
Spectrometer: FLMS14357
Trigger mode: 0
Integration Time (sec): 1.000000E-2
Scans to average: 100
Electric dark correction enabled: true
Nonlinearity correction enabled: false
Boxcar width: 0
XAxis mode: Wavelengths
Number of Pixels in Spectrum: 2048
>>>>>Begin Spectral Data<<<<<
189.047	1708.89
189.435	1708.89
189.823	1708.89
190.211	-80.76
190.599	-207.3
190.987	112.52
191.375	7.12
191.763	13047.37
192.151	-117.72
192.538	-180.06
192.926	-437.14
193.314	-2187.18
193.702	140.44
194.089	-8.59
194.477	-76.36
194.864	208.91
195.252	16.19
195.639	939.69
196.027	-10.54
196.414	85.72
196.801	131.02
197.189	-129.71
197.576	115.63
197.963	-442.68
198.351	95.37
198.738	11.42
199.125	67.48
199.512	28.71
199.899	29.02
200.286	20.42
200.673	66.7
201.06	65.26
201.447	58.46
201.833	70.49
202.22	25.78
202.607	36.57
202.994	55.1
203.38	28.54
203.767	35.33
204.154	59.64
204.54	37.05
204.927	46.29
205.313	5.94
205.699	34.82
206.086	2.48
206.472	5.76
206.858	51.73
207.245	42.04
207.631	42.72
208.017	19.59
208.403	48.78
208.789	12.92
209.175	34.46
209.561	6.67
209.947	14.63
210.333	-7.61
210.719	13.41
211.105	16.47
211.491	29.66
211.876	28.64
212.262	24.07
212.648	45.75
213.034	28.33
213.419	43.11
213.805	-4.57
214.19	22.94
214.576	11.55
214.961	15.4
215.346	11.95
215.732	25.88
216.117	37.77
216.502	40.52
216.888	19.65
217.273	13.82
217.658	11.64
218.043	9.31
218.428	13.14
218.813	9.2
219.198	18.32
219.583	25.25
219.968	52.79
220.353	18.38
220.738	27.26
221.122	20.58
221.507	27.61
221.892	12.24
222.276	-0.25
222.661	22.36
223.046	2.07
223.43	9.38
223.815	8.8
224.199	15.31
224.583	-0.96
224.968	9.07
225.352	10.13
225.736	10.31
226.121	6.45
226.505	5.21
226.889	8.78
227.273	1.33
227.657	12.81
228.041	4.43
228.425	6.39
228.809	6.99
229.193	5.9
229.577	5.62
229.961	5.45
230.344	4.73
230.728	5.17
231.112	5
231.495	4.51
231.879	6.97
232.263	5.49
232.646	4.63
233.03	5.42
233.413	6.69
233.797	5.61
234.18	5.04
234.563	7.88
234.946	6.69
235.33	4.82
235.713	6.69
236.096	6.56
236.479	5.34
236.862	6.37
237.245	6.75
237.628	5.75
238.011	7.5
238.394	7.55
238.777	5.26
239.16	4.28
239.543	7.77
239.925	5
240.308	4.84
240.691	6.62
241.073	5.71
241.456	4.7
241.838	5.92
242.221	5.37
242.603	6.27
242.986	5.89
243.368	4.48
243.75	4.94
244.133	5.6
244.515	4.94
244.897	5.7
245.279	5.48
245.661	4.96
246.043	5.08
246.425	5.13
246.807	5.39
247.189	6
247.571	5.66
247.953	5.53
248.335	4.91
248.717	4.92
249.098	5.19
249.48	5.08
249.862	5.08
250.243	5.14
250.625	5.42
251.006	5.25
251.388	3.96
251.769	6.47
252.151	5.36
252.532	5.09
252.913	5.11
253.295	5.22
253.676	5.08
254.057	5.08
254.438	5.39
254.819	5.86
255.2	5.42
255.581	6.23
255.962	5.38
256.343	6.39
256.724	6.32
257.105	5.56
257.486	5.93
257.867	6.14
258.247	5.55
258.628	6.3
259.009	6.13
259.389	5.48
259.77	5.21
260.15	5.07
260.531	5.39
260.911	5.26
261.292	4.99
261.672	5.14
262.052	4.83
262.432	5.06
262.813	5.69
263.193	5.44
263.573	5.15
263.953	5.28
264.333	5.86
264.713	4.81
265.093	5.16
265.473	5.82
265.853	5.59
266.233	5.52
266.612	5.42
266.992	5.46
267.372	5.02
267.752	5.1
268.131	4.98
268.511	5.11
268.89	4.88
269.27	5.63
269.649	5.25
270.029	5.27
270.408	5.74
270.787	5.12
271.167	5.56
271.546	4.91
271.925	5.28
272.304	5.53
272.683	5.03
273.062	5.09
273.441	4.89
273.82	4.48
274.199	4.96
274.578	5.23
274.957	5.22
275.336	5
275.715	4.88
276.093	5.15
276.472	5.06
276.851	4.99
277.229	5.17
277.608	5.08
277.986	4.71
278.365	5.61
278.743	4.6
279.122	4.78
279.5	4.9
279.878	4.8
280.257	4.82
280.635	5.18
281.013	5.69
281.391	4.96
281.769	5.19
282.147	4.82
282.525	5.64
282.903	5.23
283.281	4.68
283.659	5.09
284.037	4.96
284.415	5.36
284.792	5.2
285.17	4.7
285.548	5.42
285.925	5.1
286.303	4.95
286.68	4.96
287.058	5.17
287.435	5.14
287.813	5.35
288.19	5.1
288.567	5.25
288.945	4.81
289.322	4.56
289.699	5.27
290.076	5.09
290.453	5.32
290.83	5.26
291.207	5.24
291.584	5.33
291.961	5.32
292.338	5.39
292.715	5.95
293.092	5.42
293.469	5.31
293.845	6.03
294.222	5.92
294.599	6.23
294.975	6.25
295.352	5.78
295.728	6.1
296.105	5.85
296.481	6.11
296.858	6.14
297.234	6.34
297.61	6.07
297.986	6.06
298.363	6.26
298.739	5.77
299.115	5.66
299.491	5.92
299.867	6.15
300.243	6.17
300.619	5.95
300.995	7.05
301.371	6.25
301.746	6.78
302.122	6.89
302.498	6.73
302.874	6.95
303.249	6.87
303.625	6.58
304	7.25
304.376	6.86
304.751	7.19
305.127	7.21
305.502	7.37
305.878	7.43
306.253	7.24
306.628	7.09
307.003	7.34
307.378	8
307.754	7.34
308.129	8.18
308.504	7.89
308.879	8.02
309.254	7.78
309.629	7.78
310.003	8.03
310.378	7.85
310.753	7.89
311.128	7.99
311.502	8.47
311.877	8.27
312.252	8.64
312.626	8.6
313.001	8.24
313.375	8.65
313.75	8.96
314.124	8.87
314.498	8.32
314.873	9.4
315.247	8.89
315.621	9.24
315.995	9.44
316.369	9.33
316.743	8.8
317.117	9.42
317.491	10.35
317.865	10.16
318.239	9.77
318.613	9.78
318.987	9.76
319.361	9.41
319.734	9.48
320.108	10.16
320.482	9.8
320.855	10.14
321.229	10.06
321.602	10.65
321.976	10.36
322.349	10.38
322.723	10.29
323.096	10.44
323.469	10.88
323.843	10.36
324.216	10.98
324.589	11.19
324.962	11.4
325.335	10.98
325.708	10.79
326.081	11.1
326.454	11.07
326.827	11.21
327.2	11
327.573	11
327.945	11.03
328.318	11.4
328.691	11.54
329.063	11.61
329.436	11.31
329.809	11.69
330.181	11.35
330.553	11.96
330.926	11.28
331.298	11.24
331.671	11.99
332.043	11.73
332.415	11.85
332.787	11.89
333.159	12.06
333.532	11.87
333.904	12.22
334.276	12.35
334.648	12
335.02	12.57
335.391	12.24
335.763	12.17
336.135	12.41
336.507	12.78
336.879	12.42
337.25	12.24
337.622	12.43
337.993	12.05
338.365	12.47
338.736	12.61
339.108	12.74
339.479	13.36
339.851	12.51
340.222	12.9
340.593	13.17
340.964	12.34
341.336	12.79
341.707	12.9
342.078	13.44
342.449	13.29
342.82	12.74
343.191	13.1
343.562	13.18
343.933	13.54
344.303	13.54
344.674	13.57
345.045	13.36
345.416	13.82
345.786	13.8
346.157	14.02
346.527	14.02
346.898	13.58
347.268	13.76
347.639	13.94
348.009	14.05
348.38	14.05
348.75	14.95
349.12	14.25
349.49	14.17
349.861	13.54
350.231	14.43
350.601	14.28
350.971	14.33
351.341	14.32
351.711	14.56
352.081	14.89
352.45	14.84
352.82	14.56
353.19	14.85
353.56	14.65
353.929	14.77
354.299	15.07
354.669	14.91
355.038	14.97
355.408	14.77
355.777	14.84
356.147	14.82
356.516	15.23
356.885	15.14
357.254	15.28
357.624	15.05
357.993	14.84
358.362	15.82
358.731	15.2
359.1	15.22
359.469	15.32
359.838	15.63
360.207	15.63
360.576	15.59
360.945	15.62
361.314	15.56
361.682	15.54
362.051	15.54
362.42	15.8
362.788	15.92
363.157	15.87
363.525	15.57
363.894	15.87
364.262	16.17
364.631	16.41
364.999	15.86
365.367	16.2
365.735	15.9
366.104	16.04
366.472	16.57
366.84	16.38
367.208	16.62
367.576	17.04
367.944	16.44
368.312	16.35
368.68	16.47
369.048	16.58
369.416	16.87
369.783	17.07
370.151	17.38
370.519	16.75
370.886	17.29
371.254	17.02
371.621	17.21
371.989	17.55
372.356	17.11
372.724	17.29
373.091	17.19
373.458	17.25
373.826	17.45
374.193	17.28
374.56	17.42
374.927	17.65
375.294	17.89
375.661	17.43
376.028	17.53
376.395	17.99
376.762	17.68
377.129	17.74
377.496	18.14
377.863	17.78
378.229	17.9
378.596	18.09
378.963	17.97
379.329	17.79
379.696	17.97
380.062	18.13
380.429	18.26
380.795	18.2
381.161	18.08
381.528	18.18
381.894	18.47
382.26	18.62
382.626	18.46
382.993	18.54
383.359	18.47
383.725	18.76
384.091	18.3
384.457	18.62
384.823	18.95
385.188	18.77
385.554	18.83
385.92	19.1
386.286	19.01
386.651	19.17
387.017	18.67
387.383	19.17
387.748	18.68
388.114	19.4
388.479	19.08
388.845	19.15
389.21	19.3
389.575	19.47
389.94	19.36
390.306	19.71
390.671	19.48
391.036	19.76
391.401	19.58
391.766	19.75
392.131	19.46
392.496	19.92
392.861	19.86
393.226	19.77
393.591	19.77
393.956	19.86
394.32	19.75
394.685	19.99
395.05	20.07
395.414	20
395.779	19.88
396.143	20.28
396.508	19.98
396.872	20.13
397.236	20.2
397.601	20.11
397.965	20.51
398.329	20.2
398.694	20.57
399.058	20.51
399.422	20.47
399.786	20.46
400.15	20.5
400.514	20.54
400.878	21.05
401.242	20.7
401.605	20.68
401.969	20.86
402.333	20.92
402.697	20.88
403.06	21.23
403.424	21.21
403.787	21.43
404.151	21.2
404.514	21.45
404.878	21.05
405.241	21.22
405.604	21.17
405.968	21.27
406.331	21.37
406.694	21.46
407.057	21.29
407.42	21.44
407.783	21.42
408.146	21.48
408.509	21.45
408.872	21.63
409.235	21.54
409.598	21.84
409.961	21.58
410.323	22.05
410.686	22.01
411.049	21.89
411.411	22.06
411.774	22.11
412.136	22.23
412.499	22.16
412.861	22.18
413.223	22.12
413.586	22.26
413.948	22.41
414.31	22.45
414.672	22.44
415.035	22.9
415.397	22.63
415.759	22.66
416.121	22.34
416.483	22.28
416.845	22.74
417.206	22.74
417.568	22.53
417.93	22.42
418.292	22.69
418.653	22.57
419.015	22.85
419.377	22.51
419.738	22.64
420.1	22.82
420.461	22.6
420.822	22.65
421.184	22.69
421.545	22.66
421.906	22.58
422.267	22.64
422.629	22.71
422.99	22.63
423.351	22.6
423.712	22.92
424.073	22.9
424.434	23.04
424.795	23.17
425.155	23.12
425.516	23.18
425.877	23.06
426.238	23.17
426.598	23.17
426.959	23.28
427.32	23.42
427.68	23.57
428.041	23.56
428.401	23.9
428.761	24.01
429.122	24.07
429.482	24.03
429.842	24.18
430.202	24.24
430.563	24.09
430.923	24.25
431.283	24.32
431.643	24.4
432.003	24.19
432.363	24.53
432.722	24.52
433.082	24.7
433.442	24.7
433.802	24.68
434.161	24.66
434.521	24.65
434.881	24.49
435.24	24.69
435.6	24.77
435.959	24.84
436.319	24.8
436.678	24.68
437.037	25.04
437.396	25.21
437.756	25.17
438.115	25.35
438.474	25.22
438.833	25.3
439.192	25.22
439.551	25.31
439.91	25.34
440.269	25.24
440.628	25.49
440.987	25.48
441.345	25.41
441.704	25.36
442.063	25.54
442.421	25.45
442.78	25.47
443.138	25.54
443.497	25.7
443.855	25.75
444.214	25.84
444.572	25.96
444.93	25.98
445.288	25.83
445.647	26.03
446.005	26.12
446.363	26.11
446.721	25.98
447.079	25.94
447.437	25.96
447.795	25.98
448.153	25.75
448.51	25.87
448.868	25.88
449.226	25.96
449.584	26.13
449.941	26.31
450.299	26.3
450.656	26.47
451.014	26.72
451.371	26.76
451.729	26.83
452.086	26.81
452.443	26.97
452.801	26.96
453.158	27.09
453.515	27.2
453.872	27.24
454.229	27.08
454.586	27.19
454.943	27.07
455.3	27.25
455.657	27.46
456.014	27.25
456.371	27.28
456.727	27.3
457.084	27.55
457.441	27.63
457.797	27.65
458.154	27.41
458.51	27.49
458.867	27.6
459.223	27.82
459.58	27.69
459.936	27.78
460.292	27.75
460.648	27.63
461.005	27.6
461.361	27.49
461.717	27.38
462.073	27.58
462.429	27.76
462.785	27.97
463.141	28.04
463.496	28.14
463.852	28.26
464.208	28.11
464.564	28.29
464.919	28.4
465.275	28.4
465.631	28.8
465.986	28.5
466.342	28.66
466.697	28.7
467.052	28.87
467.408	28.74
467.763	28.75
468.118	28.95
468.473	28.77
468.829	28.76
469.184	28.87
469.539	28.88
469.894	28.89
470.249	28.98
470.603	29.16
470.958	29.15
471.313	29.06
471.668	28.97
472.023	29.42
472.377	29.39
472.732	29.49
473.086	29.54
473.441	29.44
473.795	29.61
474.15	29.54
474.504	29.67
474.859	29.51
475.213	29.74
475.567	29.69
475.921	29.82
476.275	29.97
476.63	29.84
476.984	29.68
477.338	29.89
477.692	29.97
478.045	30.08
478.399	29.86
478.753	30
479.107	29.99
479.461	30.04
479.814	30.04
480.168	30.18
480.521	30.23
480.875	30.1
481.228	30.34
481.582	30.27
481.935	30.37
482.289	30.47
482.642	30.12
482.995	30.27
483.348	30.22
483.701	30.24
484.055	30.06
484.408	30.05
484.761	29.87
485.114	29.68
485.466	29.65
485.819	29.74
486.172	29.72
486.525	29.69
486.878	29.84
487.23	29.95
487.583	30.16
487.936	30.46
488.288	30.41
488.641	30.28
488.993	30.24
489.345	30.18
489.698	30.22
490.05	30.27
490.402	30.26
490.754	30.55
491.107	30.59
491.459	30.78
491.811	31.05
492.163	31.2
492.515	31.03
492.866	30.92
493.218	30.69
493.57	30.74
493.922	30.79
494.274	30.82
494.625	31.04
494.977	31.34
495.328	31.56
495.68	31.85
496.031	31.98
496.383	32.16
496.734	32.14
497.086	32.06
497.437	32.17
497.788	31.9
498.139	31.96
498.49	31.8
498.842	32.05
499.193	32.17
499.544	32.18
499.894	32.08
500.245	32.25
500.596	32.33
500.947	32.42
501.298	32.48
501.648	32.51
501.999	32.6
502.35	32.76
502.7	32.81
503.051	32.75
503.401	33.04
503.752	32.87
504.102	33.18
504.452	33.02
504.803	32.86
505.153	33.12
505.503	33.12
505.853	33.03
506.203	33.07
506.553	33.18
506.903	33.29
507.253	33.3
507.603	33.39
507.953	33.48
508.303	33.37
508.652	33.52
509.002	33.7
509.352	33.68
509.701	33.5
510.051	33.58
510.4	33.48
510.75	33.17
511.099	33.34
511.449	33.33
511.798	33.59
512.147	33.69
512.496	33.77
512.846	33.7
513.195	33.85
513.544	33.73
513.893	33.96
514.242	33.79
514.591	33.99
514.939	34.03
515.288	34.09
515.637	33.97
515.986	34.19
516.334	34.19
516.683	34.41
517.032	34.36
517.38	34.45
517.729	34.77
518.077	34.54
518.426	34.42
518.774	34.43
519.122	34.4
519.47	34.48
519.819	34.38
520.167	34.42
520.515	34.36
520.863	34.15
521.211	34.23
521.559	34.62
521.907	34.52
522.255	34.68
522.602	34.77
522.95	34.99
523.298	35.11
523.645	35.06
523.993	35.19
524.341	35.4
524.688	35.36
525.036	35.46
525.383	35.41
525.73	35.3
526.078	35.31
526.425	35.25
526.772	35.29
527.119	34.95
527.466	34.96
527.814	35.14
528.161	35.09
528.508	35.12
528.854	35.26
529.201	35.2
529.548	35.11
529.895	34.84
530.242	34.92
530.588	35.04
530.935	34.92
531.282	34.89
531.628	34.83
531.975	35.05
532.321	35.28
532.667	35.45
533.014	35.61
533.36	35.82
533.706	35.79
534.052	35.74
534.399	35.69
534.745	35.6
535.091	35.43
535.437	35.69
535.783	35.73
536.129	35.74
536.474	35.83
536.82	36.19
537.166	36.31
537.512	36.21
537.857	36.36
538.203	36.43
538.549	36.22
538.894	36.42
539.239	36.36
539.585	36.36
539.93	36.66
540.276	36.83
540.621	36.92
540.966	37.09
541.311	37.18
541.656	37.07
542.001	36.96
542.346	36.73
542.691	36.64
543.036	36.32
543.381	36.35
543.726	36.46
544.071	36.62
544.415	36.57
544.76	36.69
545.105	36.86
545.449	37.05
545.794	37.23
546.138	37.25
546.483	37.28
546.827	37.33
547.171	37.49
547.516	37.51
547.86	37.45
548.204	37.51
548.548	37.41
548.892	37.58
549.236	37.72
549.58	37.78
549.924	37.7
550.268	38.15
550.612	38.26
550.956	38.22
551.3	38.49
551.643	38.52
551.987	38.39
552.33	38.57
552.674	38.56
553.017	38.59
553.361	38.58
553.704	38.71
554.048	38.63
554.391	38.58
554.734	38.7
555.077	38.67
555.42	38.79
555.764	38.67
556.107	38.97
556.45	39.09
556.793	39
557.135	39.36
557.478	39.39
557.821	39.29
558.164	39.18
558.507	39.56
558.849	39.47
559.192	39.4
559.534	39.24
559.877	39.41
560.219	39.41
560.562	39.68
560.904	39.47
561.246	39.65
561.589	39.31
561.931	39.61
562.273	39.65
562.615	39.76
562.957	39.81
563.299	39.92
563.641	40.04
563.983	39.9
564.325	39.77
564.667	40.04
565.008	40.14
565.35	39.73
565.692	39.91
566.033	40.17
566.375	40.1
566.716	40.17
567.058	40.23
567.399	40.04
567.741	40.28
568.082	40.14
568.423	40.16
568.764	40.12
569.105	40.18
569.447	40.34
569.788	40.45
570.129	40.41
570.47	40.76
570.811	40.37
571.151	40.59
571.492	40.75
571.833	40.84
572.174	40.86
572.514	40.82
572.855	40.86
573.195	40.87
573.536	40.59
573.876	40.65
574.217	40.78
574.557	40.91
574.898	40.89
575.238	40.85
575.578	41.1
575.918	40.91
576.258	41.09
576.598	41.12
576.938	41.22
577.278	41.41
577.618	41.51
577.958	41.08
578.298	41.32
578.638	41.54
578.977	41.29
579.317	41.45
579.657	41.57
579.996	41.51
580.336	41.65
580.675	41.83
581.014	41.64
581.354	41.85
581.693	42.22
582.032	42.06
582.372	42.27
582.711	42.17
583.05	42.39
583.389	41.91
583.728	42.04
584.067	42.13
584.406	42.35
584.745	42.37
585.083	42.19
585.422	42.59
585.761	42.45
586.1	42.54
586.438	42.5
586.777	42.93
587.115	42.64
587.454	42.64
587.792	42.72
588.13	42.62
588.469	42.59
588.807	43.14
589.145	42.67
589.483	42.76
589.821	43
590.159	43.34
590.497	43.05
590.835	42.87
591.173	42.85
591.511	42.96
591.849	43.02
592.187	42.89
592.524	43.15
592.862	43.01
593.2	43.11
593.537	43.28
593.875	43.77
594.212	43.56
594.55	42.98
594.887	43.51
595.224	43.49
595.561	43.56
595.899	43.32
596.236	43.35
596.573	43.45
596.91	43.49
597.247	43.51
597.584	43.65
597.921	43.4
598.258	43.5
598.594	43.57
598.931	43.42
599.268	43.38
599.604	43.66
599.941	43.58
600.277	43.56
600.614	43.95
600.95	44
601.287	43.79
601.623	43.87
601.959	43.97
602.296	44.16
602.632	43.88
602.968	44.4
603.304	44.4
603.64	44.02
603.976	44.47
604.312	44.43
604.648	44.65
604.984	44.49
605.319	43.82
605.655	44.39
605.991	44.55
606.326	43.99
606.662	44.27
606.998	44.2
607.333	44.34
607.668	44.42
608.004	44.66
608.339	44.53
608.674	44.67
609.01	44.42
609.345	44.91
609.68	44.64
610.015	44.79
610.35	44.76
610.685	44.75
611.02	44.64
611.355	44.77
611.689	44.62
612.024	45.12
612.359	44.75
612.694	45.02
613.028	45.02
613.363	45.26
613.697	45.2
614.032	45.22
614.366	45.12
614.7	45.12
615.035	45.4
615.369	45.72
615.703	45.28
616.037	45.45
616.371	45.56
616.705	45.62
617.039	45.66
617.373	45.84
617.707	45.97
618.041	45.66
618.375	45.76
618.709	45.82
619.042	45.59
619.376	46.2
619.71	46.2
620.043	45.93
620.377	46.16
620.71	45.84
621.043	46.07
621.377	46.12
621.71	46.29
622.043	46.06
622.376	45.65
622.709	46.08
623.043	46.28
623.376	46.42
623.709	46.94
624.041	46.21
624.374	46.88
624.707	46.39
625.04	46.36
625.373	46.24
625.705	46.46
626.038	46.38
626.37	46.55
626.703	46.6
627.035	46.89
627.368	46.55
627.7	47.22
628.032	46.69
628.365	46.99
628.697	46.8
629.029	46.58
629.361	46.82
629.693	47.09
630.025	46.63
630.357	47.24
630.689	47.15
631.021	46.87
631.353	46.82
631.684	47.21
632.016	47.25
632.348	47.23
632.679	47.28
633.011	47.28
633.342	47.08
633.674	47.83
634.005	47.22
634.336	47.5
634.668	47.69
634.999	47.15
635.33	47.65
635.661	47.47
635.992	47.64
636.323	47.52
636.654	47.23
636.985	47.5
637.316	47.6
637.647	47.21
637.977	47.7
638.308	47.77
638.639	47.71
638.969	47.5
639.3	48.18
639.63	47.71
639.961	47.95
640.291	47.27
640.622	47.93
640.952	47.55
641.282	48.26
641.612	48.51
641.943	48.3
642.273	48.39
642.603	47.68
642.933	48.43
643.263	48.2
643.592	48.22
643.922	48.5
644.252	49.4
644.582	48.38
644.911	48.64
645.241	48.68
645.571	47.77
645.9	48.64
646.23	48.56
646.559	48.64
646.888	48.47
647.218	48.65
647.547	48.16
647.876	48.57
648.205	49.16
648.534	48.56
648.863	48.45
649.192	48.74
649.521	48.54
649.85	48.86
650.179	49.11
650.508	48.76
650.837	48.83
651.165	48.61
651.494	48.74
651.822	48.6
652.151	48.42
652.479	48.9
652.808	49.1
653.136	49.17
653.465	49.33
653.793	49.25
654.121	49.24
654.449	49.27
654.777	48.97
655.105	49.43
655.433	49.14
655.761	49.53
656.089	49.64
656.417	49.43
656.745	49.8
657.073	49.65
657.4	49.45
657.728	49.43
658.056	49.2
658.383	49.69
658.711	49.88
659.038	49.17
659.365	50.13
659.693	50.2
660.02	49.9
660.347	49.53
660.674	49.72
661.001	50.22
661.329	50.01
661.656	49.69
661.982	49.63
662.309	50.19
662.636	49.98
662.963	49.87
663.29	50.15
663.616	49.92
663.943	50.28
664.27	50.41
664.596	50.32
664.923	50.26
665.249	50.67
665.576	50.75
665.902	49.7
666.228	50.25
666.554	50.29
666.881	50.59
667.207	49.58
667.533	50.5
667.859	50.44
668.185	50.61
668.511	50.26
668.837	50.13
669.162	50.5
669.488	50.4
669.814	50.44
670.139	50.14
670.465	51.38
670.791	50.63
671.116	50.37
671.442	51.71
671.767	50.96
672.092	50.59
672.418	50.66
672.743	50.75
673.068	51.03
673.393	50.55
673.718	51.07
674.043	51.54
674.368	51.18
674.693	50.98
675.018	50.85
675.343	51.8
675.667	50.81
675.992	51.47
676.317	50.72
676.641	50.93
676.966	51.02
677.29	51.39
677.615	51.23
677.939	51.23
678.264	50.54
678.588	51.43
678.912	51.56
679.236	51.22
679.56	51.6
679.885	51.33
680.209	50.83
680.532	51.88
680.856	51.15
681.18	50.97
681.504	51.92
681.828	51.74
682.152	51.52
682.475	51.82
682.799	51.89
683.122	51.23
683.446	51.72
683.769	52.26
684.093	51.82
684.416	51.21
684.739	52.03
685.062	51.6
685.386	52.17
685.709	52.06
686.032	52.24
686.355	51.92
686.678	52.04
687.001	51.87
687.324	51.82
687.646	51.69
687.969	51.99
688.292	51.96
688.614	51.65
688.937	52.28
689.26	52.22
689.582	52
689.904	52.62
690.227	52.35
690.549	52.14
690.871	52.87
691.194	51.45
691.516	52.08
691.838	52.73
692.16	52.94
692.482	51.87
692.804	52
693.126	52.74
693.448	52.47
693.769	52.5
694.091	51.89
694.413	52.64
694.735	52.45
695.056	52.52
695.378	51.46
695.699	52.88
696.021	52.23
696.342	52.35
696.663	53.04
696.984	52.74
697.306	52.2
697.627	52.76
697.948	52.21
698.269	52.77
698.59	52.73
698.911	52.77
699.232	53.07
699.553	53.26
699.873	52.33
700.194	53.43
700.515	52.93
700.835	52.6
701.156	53.2
701.477	52.78
701.797	52.48
702.117	53.41
702.438	52.97
702.758	52.86
703.078	53.28
703.398	53.65
703.719	52.11
704.039	53.37
704.359	52.57
704.679	53.43
704.999	51.76
705.319	52.6
705.638	53.53
705.958	53.29
706.278	53.9
706.597	53.43
706.917	53.4
707.237	53.2
707.556	53.74
707.876	52.98
708.195	54.17
708.514	53.72
708.834	54.17
709.153	54.01
709.472	54.61
709.791	53.34
710.11	53.74
710.429	52.97
710.748	53.28
711.067	53.24
711.386	54.49
711.705	53.67
712.023	54.49
712.342	53
712.661	53.74
712.979	53.85
713.298	53.84
713.616	53.55
713.935	53.81
714.253	53.61
714.572	54.05
714.89	53.48
715.208	52.92
715.526	54.27
715.844	54.16
716.162	53.02
716.48	54.21
716.798	53.39
717.116	53.88
717.434	54
717.752	54.74
718.069	54.32
718.387	53.28
718.705	54.56
719.022	54.52
719.34	54.06
719.657	53.85
719.975	54.11
720.292	55.29
720.609	54.56
720.927	53.21
721.244	53.68
721.561	55.22
721.878	54.03
722.195	54.76
722.512	55.23
722.829	54.03
723.146	53.27
723.463	54.43
723.779	55.51
724.096	53.21
724.413	55.24
724.729	54.56
725.046	54.16
725.362	55.35
725.679	55.2
725.995	54.4
726.311	54.32
726.628	54.83
726.944	54.43
727.26	54.48
727.576	55.63
727.892	54.5
728.208	55.01
728.524	53.8
728.84	54.43
729.156	54.68
729.472	55.29
729.787	55.9
730.103	55.82
730.419	54.04
730.734	55.61
731.05	56.11
731.365	55.03
731.681	55.95
731.996	55.12
732.311	55.61
732.626	55.98
732.942	55.88
733.257	57.01
733.572	56.81
733.887	56.64
734.202	54.93
734.517	55.79
734.832	55.69
735.146	55.45
735.461	54.4
735.776	55.4
736.091	56.43
736.405	55.03
736.72	55.04
737.034	55.68
737.349	54.97
737.663	55.91
737.977	56.53
738.292	54.83
738.606	55.93
738.92	56.48
739.234	56
739.548	56.7
739.862	55.75
740.176	54.27
740.49	55.48
740.804	54.9
741.117	55.29
741.431	56.57
741.745	55.8
742.058	56.64
742.372	56.39
742.685	57.62
742.999	55.78
743.312	56.95
743.626	55.44
743.939	57.54
744.252	56.43
744.565	56.66
744.878	55.45
745.191	55.75
745.505	56.07
745.817	56.48
746.13	55.93
746.443	56.03
746.756	55.27
747.069	55.9
747.381	55.28
747.694	56.52
748.007	56.95
748.319	56.07
748.632	57.25
748.944	55.53
749.256	55.63
749.569	56.32
749.881	56.66
750.193	56.52
750.505	55.9
750.817	57.67
751.129	56.01
751.441	56.09
751.753	57.94
752.065	56.21
752.377	58.51
752.689	57.4
753	56.11
753.312	56.63
753.624	57.41
753.935	54.92
754.247	56.81
754.558	56.12
754.869	56.71
755.181	56.6
755.492	54.83
755.803	54.67
756.114	56.2
756.425	56.91
756.736	56.93
757.047	57.04
757.358	57.32
757.669	58.63
757.98	57.95
758.291	55.63
758.601	57.82
758.912	56.83
759.223	55.76
759.533	56.72
759.844	57.37
760.154	55.52
760.464	60.17
760.775	57.12
761.085	56.05
761.395	56.72
761.705	58.69
762.016	57.39
762.326	57.21
762.636	57.72
762.945	56.95
763.255	55.84
763.565	58.22
763.875	56.5
764.185	56.96
764.494	58
764.804	57.73
765.113	58.06
765.423	57.09
765.732	57.8
766.042	57.86
766.351	57.75
766.66	58.15
766.97	57.42
767.279	56.54
767.588	57.86
767.897	57.81
768.206	58.14
768.515	57.02
768.824	58.14
769.133	56.42
769.441	59.09
769.75	57.7
770.059	56.17
770.367	58.95
770.676	56.8
770.984	59.17
771.293	57.53
771.601	54.82
771.91	57.4
772.218	55.98
772.526	56.32
772.834	57.01
773.142	56.56
773.45	59.6
773.758	53.58
774.066	58.61
774.374	55.18
774.682	57.69
774.99	55.74
775.298	55.71
775.605	57.35
775.913	60.17
776.22	54.24
776.528	58.16
776.835	56.35
777.143	58.11
777.45	58.95
777.757	59.26
778.065	58.53
778.372	58.91
778.679	64.29
778.986	55.8
779.293	56.34
779.6	58.65
779.907	58.85
780.214	58
780.52	56.93
780.827	57.14
781.134	56.92
781.44	60.49
781.747	57.33
782.053	59.26
782.36	59.83
782.666	57.29
782.973	59.94
783.279	59.39
783.585	53.53
783.891	57.08
784.197	58.35
784.503	59.44
784.809	57.73
785.115	59.2
785.421	62.92
785.727	59.46
786.033	58.44
786.339	58.47
786.644	58.86
786.95	61.31
787.255	59.74
787.561	58.71
787.866	55.36
788.172	57.22
788.477	56.54
788.782	58.58
789.088	58.56
789.393	56.26
789.698	56.41
790.003	60.3
790.308	58.38
790.613	57.17
790.918	59.31
791.223	59.79
791.527	58.15
791.832	58.92
792.137	59.5
792.441	59.54
792.746	58.41
793.05	59.16
793.355	59.55
793.659	56.99
793.963	59.62
794.268	59.23
794.572	57.63
794.876	62.97
795.18	58.38
795.484	60.5
795.788	58.43
796.092	59.51
796.396	60.02
796.7	61.36
797.004	61.65
797.307	60
797.611	61.27
797.915	56.8
798.218	60.62
798.522	56.23
798.825	57.05
799.128	58.04
799.432	58.22
799.735	60.24
800.038	60.15
800.341	57.01
800.644	59.75
800.947	59.28
801.25	60.34
801.553	59.81
801.856	58.39
802.159	60.59
802.462	58.4
802.764	54.51
803.067	63.57
803.37	57.52
803.672	61.3
803.975	57.18
804.277	59.69
804.579	61.42
804.882	60.21
805.184	60.13
805.486	55.56
805.788	59.59
806.09	62.42
806.392	61.47
806.694	59.57
806.996	59.89
807.298	59.85
807.6	59.9
807.902	59.08
808.203	56.84
808.505	57.87
808.807	60.57
809.108	55.78
809.409	58.93
809.711	59.22
810.012	66.05
810.313	52.53
810.615	57.05
810.916	58.99
811.217	55.76
811.518	60.23
811.819	57.69
812.12	58.68
812.421	62.86
812.722	61.41
813.023	53.75
813.323	58.13
813.624	59.67
813.925	57.93
814.225	65.68
814.526	60.67
814.826	67.05
815.126	58.04
815.427	59.36
815.727	59.16
816.027	54.29
816.327	56.38
816.627	60.47
816.927	57.16
817.227	59.41
817.527	58.53
817.827	57.02
818.127	59.13
818.427	62.26
818.727	57.88
819.026	57.86
819.326	57.32
819.625	60.34
819.925	60.56
820.224	64.19
820.524	57.17
820.823	60.05
821.122	58.58
821.421	63.64
821.72	61.55
822.019	58.95
822.318	61.93
822.617	58.76
822.916	61.9
823.215	61.18
823.514	61.11
823.813	59.08
824.111	63.07
824.41	60.7
824.709	60.53
825.007	60.58
825.306	60.33
825.604	61.79
825.902	60.67
826.201	60.16
826.499	59.93
826.797	59.19
827.095	60.97
827.393	59.13
827.691	60.01
827.989	60.23
828.287	59.57
828.585	59.48
828.882	60.61
829.18	61.46
829.478	61.06
829.775	63.7
830.073	61.62
830.37	60.55
830.668	62.84
830.965	59.3
831.263	59.31
831.56	60.01
831.857	63.4
832.154	57.92
832.451	57.36
832.748	55.59
833.045	60.62
833.342	53.99
833.639	55.29
833.936	58.57
834.232	57.32
834.529	54.34
834.826	64.07
835.122	60.51
835.419	61.56
835.715	58.63
836.012	60.18
836.308	63.69
836.604	62.23
836.901	61.53
837.197	60.02
837.493	60.09
837.789	60.83
838.085	60.49
838.381	56.86
838.677	57.63
838.972	58.22
839.268	58.13
839.564	58.59
839.86	53.63
840.155	58.45
840.451	62.66
840.746	61.34
841.042	62.37
841.337	64.12
841.632	64.5
841.928	65.1
842.223	55.97
842.518	51.18
842.813	57.66
843.108	66.59
843.403	60.47
843.698	62.67
843.993	61.14
844.287	58.05
844.582	54.27
844.877	59.29
845.171	56.35
845.466	56.13
845.761	61.48
846.055	59.08
846.349	54.36
846.644	63.61
846.938	56
847.232	45.18
847.526	48.67
847.82	55.17
848.114	70.27
848.408	51.42
848.702	61.24
848.996	63.8
849.29	48.68
849.584	59.54
849.877	51.41
850.171	60.35
850.465	69.93
850.758	57.52
851.052	60.35
851.345	61.04
851.638	51.65
851.932	57.96
852.225	73.25
852.518	62.86
852.811	57.67
853.104	57.1
853.397	67.64
853.69	44.06
853.983	72.28
854.276	71.38
854.569	46.09
854.861	48.42
855.154	80
855.447	76.18
855.739	66.29
856.032	62.54
856.324	51.24
856.616	68.68
856.909	59.39
857.201	83.52
857.493	71.82
857.785	60.52
858.077	54.06
858.369	42.88
858.661	59.11
858.953	70.39
859.245	43.49
859.537	50.99
859.829	66.3
860.12	65.47
860.412	56.62
860.703	44.76
860.995	61.51
861.286	45.21
861.578	50.17
861.869	51.58
862.16	59.04
862.452	49.95
862.743	55.68
863.034	58.1
863.325	56.48
863.616	78.71
863.907	50.22
864.198	83.29
864.488	47.46
864.779	38.52
865.07	55.57
865.36	58.29
865.651	48.36
865.941	73.65
866.232	48.24
866.522	72.34
866.813	69.21
867.103	61.74
867.393	58.26
867.683	72.52
867.973	57.56
868.263	72.69
868.553	55.24
868.843	42.1
869.133	60.65
869.423	49.21
869.713	45.91
870.002	58.11
870.292	69.77
870.582	58.21
870.871	81.85
871.161	33.43
871.45	49.66
871.739	51.47
872.029	74.08
872.318	54.73
872.607	44.69
872.896	78.04
873.185	61.36
873.474	58.9
873.763	53.87
874.052	66.66
874.341	59.52
874.63	71.36
874.918	64.59
875.207	41.71
875.496	72.14
875.784	76.18
876.073	70.58
876.361	44.18
876.649	77.03
876.938	72.11
877.226	54.9
877.514	52.9
877.802	52.44
878.09	66.78
878.378	45.25
878.666	62.7
878.954	37.87
879.242	41.01
879.53	64.88
879.817	27.11
880.105	41.83
880.392	52.3
880.68	67.35
880.967	66.72
881.255	48.71
881.542	40.05
881.83	62.18
882.117	67.31
882.404	66.32
882.691	68.54
882.978	54.15
883.265	78.87
883.552	54.56
883.839	64.65
884.126	54.08
884.413	65.51
884.699	59.3
884.986	51.89
885.273	64.69
885.559	64.69
885.846	64.69
