Data from 1886-1_forehead_Reflection__1__87.txt Node

Date: Fri Sep 30 18:25:40 CDT 2022
User: ToomeyLab
Spectrometer: FLMS14357
Trigger mode: 0
Integration Time (sec): 1.000000E-2
Scans to average: 100
Electric dark correction enabled: true
Nonlinearity correction enabled: false
Boxcar width: 0
XAxis mode: Wavelengths
Number of Pixels in Spectrum: 2048
>>>>>Begin Spectral Data<<<<<
189.047	2633.33
189.435	2633.33
189.823	2633.33
190.211	98.13
190.599	107.05
190.987	0.4
191.375	14.54
191.763	10942.11
192.151	-49.95
192.538	71.15
192.926	-5.84
193.314	-1373.5
193.702	-97.49
194.089	-19.2
194.477	-304.5
194.864	-268.88
195.252	-19.45
195.639	-373.28
196.027	171.48
196.414	48.5
196.801	87.26
197.189	-37.47
197.576	-211.72
197.963	-2256.69
198.351	49.25
198.738	32.95
199.125	40.09
199.512	1.67
199.899	29.02
200.286	19.22
200.673	48.75
201.06	97.28
201.447	17.32
201.833	80.79
202.22	14.31
202.607	62.98
202.994	37.03
203.38	35.26
203.767	15.5
204.154	57.37
204.54	38.88
204.927	57.97
205.313	-4.72
205.699	5.81
206.086	-2.7
206.472	-0.02
206.858	52.12
207.245	25.47
207.631	12.07
208.017	38.19
208.403	7.88
208.789	18.68
209.175	42.42
209.561	-7.52
209.947	11.72
210.333	-21.17
210.719	21.75
211.105	19.52
211.491	29.17
211.876	24.84
212.262	45.48
212.648	41.76
213.034	19.38
213.419	34.71
213.805	39.81
214.19	14.28
214.576	36.87
214.961	18.92
215.346	41.33
215.732	41.77
216.117	1.32
216.502	41.37
216.888	41.22
217.273	-9.54
217.658	32.16
218.043	18.47
218.428	16
218.813	30.36
219.198	17.72
219.583	33.74
219.968	57.71
220.353	22.15
220.738	18.76
221.122	18.75
221.507	34.53
221.892	19.62
222.276	0.47
222.661	11.85
223.046	5
223.43	26.09
223.815	8.56
224.199	9.26
224.583	3.68
224.968	9.32
225.352	11.66
225.736	17.9
226.121	18.78
226.505	11.49
226.889	15.91
227.273	0.19
227.657	12.89
228.041	6.05
228.425	11.34
228.809	7.61
229.193	5.48
229.577	4.74
229.961	6.27
230.344	5.16
230.728	4.8
231.112	4.86
231.495	4.55
231.879	7.74
232.263	6.04
232.646	4.58
233.03	7.29
233.413	5.57
233.797	5.56
234.18	5.16
234.563	6.87
234.946	8.11
235.33	5.29
235.713	5.65
236.096	5.78
236.479	6.4
236.862	6.32
237.245	5.18
237.628	3.71
238.011	7.49
238.394	4.52
238.777	4.15
239.16	4.85
239.543	4.59
239.925	6.02
240.308	3.83
240.691	7.84
241.073	6.77
241.456	5.09
241.838	5.1
242.221	4.92
242.603	5.85
242.986	5.8
243.368	4.39
243.75	4.82
244.133	5.64
244.515	5.02
244.897	5.38
245.279	5.86
245.661	5.42
246.043	5.25
246.425	3.31
246.807	6.43
247.189	6.11
247.571	5.85
247.953	5.65
248.335	5.17
248.717	5.18
249.098	5.17
249.48	5.09
249.862	5.31
250.243	5.1
250.625	5.44
251.006	5.51
251.388	4.81
251.769	5.97
252.151	5.31
252.532	6.39
252.913	5.27
253.295	5.53
253.676	4.86
254.057	5.64
254.438	5.25
254.819	6.22
255.2	4.74
255.581	6.45
255.962	5.56
256.343	5.43
256.724	5.72
257.105	5.87
257.486	6.61
257.867	6.09
258.247	5.18
258.628	5.18
259.009	6.1
259.389	5.38
259.77	6.01
260.15	4.98
260.531	5.62
260.911	5.19
261.292	4.83
261.672	4.99
262.052	5.04
262.432	5.32
262.813	5.73
263.193	5.25
263.573	5.6
263.953	5.32
264.333	6.23
264.713	4.6
265.093	5.38
265.473	5.18
265.853	5.49
266.233	4.86
266.612	6.13
266.992	4.66
267.372	4.54
267.752	5.31
268.131	5.53
268.511	5.48
268.89	4.87
269.27	5.31
269.649	4.84
270.029	6.25
270.408	4.96
270.787	4.97
271.167	5.67
271.546	5.2
271.925	5.96
272.304	5.08
272.683	5.17
273.062	5.31
273.441	5.01
273.82	4.57
274.199	5.21
274.578	5.16
274.957	5.22
275.336	4.61
275.715	5.12
276.093	5.44
276.472	5.03
276.851	5.37
277.229	5.15
277.608	5.52
277.986	5.24
278.365	5.92
278.743	4.93
279.122	5.27
279.5	5.36
279.878	5.1
280.257	4.99
280.635	6.27
281.013	5.8
281.391	5.25
281.769	5.42
282.147	5
282.525	5.18
282.903	4.7
283.281	5
283.659	5.37
284.037	5.24
284.415	4.9
284.792	5.44
285.17	4.8
285.548	5.57
285.925	5.04
286.303	5.23
286.68	5.13
287.058	5.09
287.435	5.4
287.813	5.16
288.19	5.12
288.567	5.44
288.945	5.14
289.322	5.49
289.699	5.69
290.076	5.33
290.453	5.23
290.83	5.59
291.207	5.23
291.584	5.33
291.961	5.38
292.338	6.27
292.715	6.16
293.092	5.51
293.469	6.19
293.845	6.66
294.222	6.2
294.599	5.86
294.975	6.53
295.352	6.19
295.728	6.33
296.105	6.37
296.481	6.41
296.858	6.63
297.234	6.5
297.61	6.41
297.986	6.09
298.363	6.62
298.739	6.21
299.115	6.4
299.491	6.49
299.867	6.83
300.243	6.48
300.619	6.54
300.995	7.28
301.371	6.49
301.746	7
302.122	7.51
302.498	7.27
302.874	6.99
303.249	7.2
303.625	7.19
304	7.2
304.376	7.56
304.751	7.69
305.127	7.52
305.502	7.94
305.878	7.55
306.253	7.3
306.628	7.76
307.003	7.81
307.378	7.25
307.754	8.01
308.129	7.91
308.504	8.13
308.879	8.46
309.254	7.99
309.629	8.53
310.003	8.3
310.378	8.35
310.753	8.76
311.128	8.48
311.502	8.77
311.877	8.68
312.252	9.02
312.626	9.18
313.001	8.93
313.375	8.6
313.75	9.23
314.124	8.91
314.498	9
314.873	9.47
315.247	9.04
315.621	9.73
315.995	9.5
316.369	9.34
316.743	9.74
317.117	10.54
317.491	10.78
317.865	10.52
318.239	10.37
318.613	10.13
318.987	10.47
319.361	10.44
319.734	9.79
320.108	10.22
320.482	10.48
320.855	10.71
321.229	10.93
321.602	11.21
321.976	10.7
322.349	10.71
322.723	10.38
323.096	10.96
323.469	11.62
323.843	10.75
324.216	10.81
324.589	11.18
324.962	11.08
325.335	11.31
325.708	11.33
326.081	11.33
326.454	11.54
326.827	11.37
327.2	11.36
327.573	11.63
327.945	11.5
328.318	11.38
328.691	11.75
329.063	11.17
329.436	11.92
329.809	12.35
330.181	12.13
330.553	11.99
330.926	12.8
331.298	12.19
331.671	12.19
332.043	12.49
332.415	11.8
332.787	12.28
333.159	12.49
333.532	12.86
333.904	12.6
334.276	12.61
334.648	12.25
335.02	13.07
335.391	12.69
335.763	12.64
336.135	12.65
336.507	12.59
336.879	13.09
337.25	12.09
337.622	13.16
337.993	12.56
338.365	12.71
338.736	13.14
339.108	13.3
339.479	13.35
339.851	13.33
340.222	13.46
340.593	12.76
340.964	12.99
341.336	13.45
341.707	13.19
342.078	13.55
342.449	13.38
342.82	13.37
343.191	13.44
343.562	13.43
343.933	13.44
344.303	13.46
344.674	13.97
345.045	13.75
345.416	14.2
345.786	13.97
346.157	14.29
346.527	13.73
346.898	14.1
347.268	14.15
347.639	13.98
348.009	14.08
348.38	14.42
348.75	14.88
349.12	14.59
349.49	14.77
349.861	14.63
350.231	14.25
350.601	14.74
350.971	14.85
351.341	14.34
351.711	14.66
352.081	14.42
352.45	14.63
352.82	15
353.19	15.29
353.56	15.23
353.929	14.84
354.299	15.43
354.669	15.18
355.038	14.83
355.408	15.47
355.777	14.89
356.147	15.05
356.516	15.51
356.885	15.07
357.254	15.42
357.624	15.29
357.993	14.86
358.362	15.42
358.731	15.44
359.1	15.47
359.469	15.32
359.838	15.45
360.207	15.53
360.576	15.56
360.945	15.68
361.314	15.7
361.682	15.79
362.051	15.6
362.42	15.69
362.788	15.94
363.157	15.78
363.525	15.56
363.894	15.85
364.262	15.88
364.631	16.42
364.999	16.32
365.367	16.37
365.735	15.95
366.104	15.89
366.472	16.44
366.84	16.45
367.208	16.44
367.576	16.77
367.944	16.55
368.312	16.09
368.68	16.21
369.048	16.36
369.416	16.77
369.783	16.56
370.151	16.5
370.519	16.8
370.886	16.59
371.254	16.97
371.621	17.08
371.989	17.11
372.356	16.84
372.724	16.86
373.091	17.21
373.458	16.91
373.826	17.15
374.193	17.36
374.56	17.48
374.927	17.68
375.294	17.41
375.661	16.87
376.028	17.21
376.395	17.3
376.762	17.52
377.129	17.86
377.496	17.78
377.863	17.33
378.229	17.84
378.596	17.7
378.963	17.86
379.329	17.58
379.696	17.94
380.062	17.76
380.429	18.02
380.795	17.81
381.161	17.27
381.528	17.84
381.894	18.14
382.26	17.87
382.626	17.89
382.993	18.09
383.359	18.24
383.725	18.13
384.091	17.88
384.457	18.49
384.823	18.42
385.188	18.58
385.554	18.26
385.92	18.57
386.286	18.66
386.651	18.56
387.017	18.36
387.383	18.61
387.748	18.35
388.114	18.81
388.479	18.53
388.845	18.58
389.21	18.68
389.575	18.92
389.94	18.89
390.306	18.92
390.671	19.11
391.036	19.05
391.401	18.88
391.766	19.12
392.131	19.17
392.496	19.44
392.861	19.13
393.226	18.93
393.591	19.1
393.956	19.5
394.32	19.42
394.685	19.09
395.05	19.61
395.414	19.42
395.779	19.28
396.143	19.65
396.508	19.31
396.872	19.7
397.236	19.79
397.601	19.5
397.965	19.59
398.329	19.68
398.694	20.04
399.058	19.92
399.422	19.97
399.786	19.78
400.15	20
400.514	19.68
400.878	19.86
401.242	19.97
401.605	20.06
401.969	19.96
402.333	20.23
402.697	20.16
403.06	20.23
403.424	20.35
403.787	20.34
404.151	20.33
404.514	20.56
404.878	20.31
405.241	20.62
405.604	20.39
405.968	20.47
406.331	20.35
406.694	20.63
407.057	20.51
407.42	20.58
407.783	20.6
408.146	20.56
408.509	20.46
408.872	20.73
409.235	20.82
409.598	20.82
409.961	20.93
410.323	21.02
410.686	20.96
411.049	20.88
411.411	21.16
411.774	21.14
412.136	21.16
412.499	21.05
412.861	21.08
413.223	21.18
413.586	21.35
413.948	21.5
414.31	21.46
414.672	21.22
415.035	21.38
415.397	21.31
415.759	21.51
416.121	21.48
416.483	21.52
416.845	21.42
417.206	21.52
417.568	21.65
417.93	21.59
418.292	21.55
418.653	21.41
419.015	21.64
419.377	21.44
419.738	21.6
420.1	21.41
420.461	21.56
420.822	21.71
421.184	21.44
421.545	21.43
421.906	21.5
422.267	21.45
422.629	21.47
422.99	21.49
423.351	21.4
423.712	21.67
424.073	21.74
424.434	21.71
424.795	21.75
425.155	21.82
425.516	21.86
425.877	21.94
426.238	21.72
426.598	21.88
426.959	21.95
427.32	22.1
427.68	22.13
428.041	22.38
428.401	22.33
428.761	22.7
429.122	22.6
429.482	22.55
429.842	22.79
430.202	22.66
430.563	22.7
430.923	22.77
431.283	22.85
431.643	22.99
432.003	22.9
432.363	22.9
432.722	22.95
433.082	23.03
433.442	22.88
433.802	23.11
434.161	23.05
434.521	22.99
434.881	22.91
435.24	22.9
435.6	23
435.959	23.17
436.319	23.22
436.678	23.13
437.037	23.57
437.396	23.45
437.756	23.32
438.115	23.41
438.474	23.49
438.833	23.63
439.192	23.3
439.551	23.69
439.91	23.37
440.269	23.46
440.628	23.75
440.987	23.55
441.345	23.48
441.704	23.35
442.063	23.5
442.421	23.42
442.78	23.53
443.138	23.65
443.497	23.79
443.855	23.81
444.214	24.08
444.572	23.91
444.93	23.91
445.288	24.14
445.647	24.02
446.005	24.03
446.363	24.08
446.721	23.89
447.079	23.96
447.437	23.79
447.795	23.8
448.153	23.71
448.51	23.75
448.868	23.9
449.226	23.97
449.584	24.09
449.941	24.23
450.299	24.41
450.656	24.55
451.014	24.44
451.371	24.63
451.729	24.61
452.086	24.67
452.443	24.86
452.801	24.88
453.158	24.74
453.515	24.88
453.872	24.78
454.229	24.74
454.586	24.86
454.943	24.9
455.3	24.88
455.657	25.22
456.014	25.05
456.371	25.05
456.727	25.21
457.084	25.09
457.441	25.17
457.797	25.21
458.154	25.19
458.51	25.13
458.867	25.55
459.223	25.45
459.58	25.52
459.936	25.52
460.292	25.53
460.648	25.26
461.005	25.06
461.361	24.97
461.717	24.94
462.073	25.11
462.429	25.39
462.785	25.59
463.141	25.74
463.496	25.77
463.852	25.88
464.208	25.89
464.564	25.84
464.919	25.85
465.275	26.14
465.631	26.06
465.986	26.09
466.342	26.07
466.697	25.99
467.052	26.14
467.408	26.09
467.763	26.03
468.118	26.35
468.473	26.09
468.829	26.21
469.184	26.4
469.539	26.28
469.894	26.46
470.249	26.42
470.603	26.55
470.958	26.35
471.313	26.43
471.668	26.32
472.023	26.55
472.377	26.62
472.732	26.73
473.086	26.64
473.441	26.64
473.795	26.8
474.15	26.66
474.504	26.73
474.859	26.92
475.213	26.72
475.567	26.85
475.921	26.95
476.275	26.89
476.63	27.07
476.984	26.98
477.338	26.97
477.692	26.95
478.045	26.84
478.399	27
478.753	26.89
479.107	26.97
479.461	27.12
479.814	26.94
480.168	27.26
480.521	27.06
480.875	27.09
481.228	27.27
481.582	27.25
481.935	27.3
482.289	27.22
482.642	27.21
482.995	27.07
483.348	27.19
483.701	27.12
484.055	27.02
484.408	26.77
484.761	26.54
485.114	26.13
485.466	26.06
485.819	26.29
486.172	26.53
486.525	26.75
486.878	26.93
487.23	27.04
487.583	27.09
487.936	27.14
488.288	27.01
488.641	26.75
488.993	26.76
489.345	26.78
489.698	26.76
490.05	26.89
490.402	27.07
490.754	27.31
491.107	27.36
491.459	27.67
491.811	27.69
492.163	27.7
492.515	27.48
492.866	27.28
493.218	26.97
493.57	27.08
493.922	27.34
494.274	27.52
494.625	27.89
494.977	28.05
495.328	28.21
495.68	28.2
496.031	28.36
496.383	28.55
496.734	28.51
497.086	28.4
497.437	28.47
497.788	28.45
498.139	28.34
498.49	28.36
498.842	28.22
499.193	28.47
499.544	28.42
499.894	28.42
500.245	28.46
500.596	28.62
500.947	28.64
501.298	28.84
501.648	28.83
501.999	28.92
502.35	28.92
502.7	29.08
503.051	28.96
503.401	29.33
503.752	29.15
504.102	29.27
504.452	29.03
504.803	29.3
505.153	29.16
505.503	29.17
505.853	29.17
506.203	29.27
506.553	29.19
506.903	29.28
507.253	29.53
507.603	29.33
507.953	29.54
508.303	29.54
508.652	29.53
509.002	29.66
509.352	29.49
509.701	29.43
510.051	29.26
510.4	29.38
510.75	29.35
511.099	29.27
511.449	29.37
511.798	29.55
512.147	29.49
512.496	29.51
512.846	29.61
513.195	29.77
513.544	29.58
513.893	29.65
514.242	29.56
514.591	29.86
514.939	29.85
515.288	29.91
515.637	29.83
515.986	29.87
516.334	30.07
516.683	30.07
517.032	30.07
517.38	30.13
517.729	30.26
518.077	30.15
518.426	30.26
518.774	30.07
519.122	29.81
519.47	29.91
519.819	29.79
520.167	29.69
520.515	29.85
520.863	29.94
521.211	30.13
521.559	30.2
521.907	30.12
522.255	30.29
522.602	30.5
522.95	30.45
523.298	30.65
523.645	30.62
523.993	30.57
524.341	30.8
524.688	30.79
525.036	30.88
525.383	30.68
525.73	30.72
526.078	30.72
526.425	30.67
526.772	30.54
527.119	30.15
527.466	30.21
527.814	30.51
528.161	30.38
528.508	30.49
528.854	30.49
529.201	30.39
529.548	30.11
529.895	29.81
530.242	29.75
530.588	29.96
530.935	30.25
531.282	30.27
531.628	30.45
531.975	30.67
532.321	30.73
532.667	30.79
533.014	30.99
533.36	31
533.706	30.96
534.052	30.86
534.399	30.67
534.745	30.34
535.091	30.39
535.437	30.67
535.783	30.93
536.129	31.1
536.474	31.22
536.82	31.32
537.166	31.37
537.512	31.44
537.857	31.36
538.203	31.24
538.549	30.94
538.894	31.22
539.239	31.5
539.585	31.57
539.93	31.74
540.276	31.93
540.621	31.94
540.966	32.01
541.311	31.86
541.656	31.71
542.001	31.64
542.346	31.32
542.691	30.92
543.036	30.83
543.381	31.01
543.726	31.29
544.071	31.51
544.415	31.53
544.76	31.6
545.105	31.62
545.449	31.83
545.794	32.09
546.138	32.13
546.483	32.2
546.827	32.16
547.171	32.14
547.516	32.11
547.86	32.05
548.204	32.06
548.548	32.01
548.892	32.2
549.236	32.26
549.58	32.53
549.924	32.55
550.268	32.85
550.612	32.87
550.956	33.03
551.3	32.91
551.643	33.06
551.987	32.66
552.33	32.99
552.674	33.19
553.017	32.87
553.361	33.07
553.704	33.09
554.048	32.93
554.391	32.78
554.734	32.83
555.077	32.86
555.42	33.11
555.764	33.33
556.107	33.42
556.45	33.33
556.793	33.38
557.135	33.44
557.478	33.56
557.821	33.41
558.164	33.62
558.507	33.57
558.849	33.69
559.192	33.63
559.534	33.71
559.877	33.62
560.219	33.66
560.562	33.8
560.904	33.74
561.246	33.77
561.589	33.59
561.931	33.6
562.273	33.56
562.615	33.77
562.957	33.7
563.299	33.87
563.641	33.88
563.983	33.93
564.325	34.14
564.667	34
565.008	34.11
565.35	33.83
565.692	34.19
566.033	34.06
566.375	33.85
566.716	34.16
567.058	33.93
567.399	33.84
567.741	34.03
568.082	34.07
568.423	33.72
568.764	34.1
569.105	34.38
569.447	34.3
569.788	34.4
570.129	34.32
570.47	34.34
570.811	34.3
571.151	34.51
571.492	34.54
571.833	34.49
572.174	34.45
572.514	34.34
572.855	34.52
573.195	34.43
573.536	34.3
573.876	34.21
574.217	34.43
574.557	34.52
574.898	34.63
575.238	34.48
575.578	34.71
575.918	34.76
576.258	34.73
576.598	34.75
576.938	34.78
577.278	34.62
577.618	34.77
577.958	34.94
578.298	35.14
578.638	34.96
578.977	34.9
579.317	35.1
579.657	34.91
579.996	35.02
580.336	34.97
580.675	35.12
581.014	35.59
581.354	35.19
581.693	35.45
582.032	35.51
582.372	35.27
582.711	35.47
583.05	35.38
583.389	35.34
583.728	35.44
584.067	35.74
584.406	35.29
584.745	35.7
585.083	35.39
585.422	35.71
585.761	35.47
586.1	35.73
586.438	36.03
586.777	36.25
587.115	35.93
587.454	35.58
587.792	35.69
588.13	35.82
588.469	35.91
588.807	36.21
589.145	35.95
589.483	35.91
589.821	35.91
590.159	36.29
590.497	36.03
590.835	35.95
591.173	35.58
591.511	35.83
591.849	36.1
592.187	35.97
592.524	36.25
592.862	36.09
593.2	36.03
593.537	36.18
593.875	36.4
594.212	36.27
594.55	36.26
594.887	35.99
595.224	36.4
595.561	36.3
595.899	36.33
596.236	36.35
596.573	36.32
596.91	36.5
597.247	36.06
597.584	36.22
597.921	35.93
598.258	36.01
598.594	35.91
598.931	36
599.268	36.13
599.604	36.25
599.941	36.36
600.277	36.41
600.614	36.61
600.95	36.75
601.287	36.44
601.623	36.69
601.959	36.8
602.296	36.5
602.632	36.61
602.968	36.92
603.304	36.87
603.64	36.72
603.976	36.7
604.312	36.81
604.648	37.03
604.984	36.58
605.319	36.52
605.655	36.51
605.991	36.34
606.326	36.29
606.662	36.42
606.998	36.61
607.333	36.42
607.668	36.76
608.004	36.88
608.339	36.91
608.674	37.31
609.01	37.05
609.345	36.88
609.68	37.25
610.015	37.01
610.35	37.2
610.685	36.84
611.02	36.6
611.355	36.75
611.689	36.69
612.024	37.11
612.359	37.25
612.694	36.99
613.028	37.32
613.363	37.39
613.697	37.37
614.032	37.19
614.366	37.42
614.7	37.33
615.035	37.98
615.369	37.82
615.703	37.57
616.037	37.84
616.371	37.58
616.705	37.74
617.039	37.84
617.373	37.7
617.707	37.43
618.041	37.97
618.375	37.76
618.709	37.89
619.042	37.52
619.376	37.85
619.71	37.86
620.043	38.23
620.377	38.22
620.71	37.7
621.043	38.15
621.377	37.93
621.71	38.21
622.043	38.49
622.376	38.18
622.709	37.7
623.043	38.24
623.376	37.99
623.709	38.49
624.041	38.22
624.374	38.47
624.707	37.83
625.04	38.48
625.373	38.14
625.705	38.06
626.038	38.01
626.37	38.18
626.703	38.16
627.035	37.93
627.368	38.18
627.7	38.27
628.032	38.19
628.365	38.04
628.697	38.17
629.029	38.02
629.361	38.33
629.693	38.23
630.025	38.21
630.357	38.89
630.689	38.61
631.021	38.52
631.353	38.68
631.684	38.63
632.016	38.64
632.348	38.63
632.679	38.64
633.011	38.89
633.342	38.46
633.674	39.07
634.005	38.72
634.336	38.58
634.668	39.04
634.999	39.02
635.33	38.88
635.661	38.75
635.992	38.6
636.323	38.78
636.654	38.49
636.985	38.96
637.316	39.1
637.647	38.8
637.977	38.72
638.308	38.84
638.639	38.6
638.969	38.89
639.3	39.04
639.63	38.89
639.961	39.03
640.291	38.86
640.622	38.75
640.952	39.14
641.282	39.2
641.612	39.07
641.943	38.82
642.273	39.15
642.603	38.74
642.933	38.84
643.263	39.42
643.592	39.71
643.922	39.31
644.252	39.37
644.582	39.81
644.911	39.92
645.241	39.6
645.571	38.9
645.9	39.59
646.23	39.27
646.559	39.37
646.888	39.4
647.218	39.62
647.547	39.17
647.876	39.03
648.205	39.31
648.534	39.63
648.863	39.9
649.192	39.59
649.521	39.23
649.85	39.29
650.179	39.6
650.508	39.42
650.837	39.6
651.165	39.02
651.494	39.63
651.822	39.62
652.151	39.5
652.479	39.65
652.808	39.66
653.136	39.9
653.465	39.67
653.793	39.74
654.121	39.56
654.449	39.83
654.777	39.87
655.105	39.8
655.433	39.3
655.761	40.13
656.089	39.82
656.417	39.45
656.745	39.8
657.073	40.44
657.4	39.98
657.728	39.6
658.056	39.99
658.383	39.87
658.711	40.17
659.038	39.83
659.365	40.11
659.693	39.71
660.02	39.83
660.347	40.09
660.674	39.57
661.001	39.87
661.329	39.82
661.656	40.02
661.982	40.02
662.309	40.75
662.636	40.37
662.963	39.63
663.29	40.39
663.616	40.36
663.943	40.13
664.27	40.08
664.596	40.2
664.923	39.88
665.249	40.37
665.576	40.8
665.902	40.24
666.228	40.52
666.554	40.43
666.881	40.91
667.207	40.32
667.533	40.55
667.859	41.39
668.185	40.72
668.511	40.64
668.837	40.89
669.162	40.97
669.488	40.53
669.814	40.31
670.139	40.6
670.465	40.93
670.791	40.88
671.116	40.59
671.442	40.67
671.767	40.81
672.092	40.54
672.418	40.63
672.743	40.54
673.068	41.03
673.393	40.79
673.718	40.79
674.043	41.18
674.368	41.8
674.693	40.73
675.018	40.5
675.343	41.21
675.667	41.26
675.992	41.17
676.317	40.6
676.641	41.21
676.966	40.51
677.29	40.37
677.615	40.93
677.939	41.44
678.264	40.87
678.588	41.53
678.912	41.42
679.236	40.5
679.56	40.89
679.885	41.13
680.209	40.65
680.532	41.17
680.856	41.08
681.18	40.75
681.504	41.17
681.828	40.78
682.152	40.98
682.475	41.21
682.799	41.2
683.122	40.96
683.446	41.61
683.769	41.54
684.093	41.33
684.416	41.09
684.739	41.68
685.062	41.37
685.386	41.63
685.709	41.05
686.032	41.51
686.355	41.59
686.678	41.73
687.001	41.91
687.324	41.38
687.646	41.36
687.969	41.05
688.292	42.15
688.614	40.8
688.937	41.01
689.26	41.52
689.582	41.22
689.904	41.97
690.227	41.82
690.549	40.95
690.871	41.84
691.194	41.87
691.516	41.43
691.838	41.64
692.16	41.62
692.482	41.98
692.804	42.18
693.126	41.24
693.448	41.57
693.769	41.76
694.091	40.78
694.413	42.77
694.735	41.97
695.056	41.76
695.378	41.5
695.699	42.65
696.021	42.02
696.342	41.94
696.663	41.21
696.984	42.3
697.306	41.85
697.627	42.25
697.948	41.03
698.269	41.62
698.59	41.89
698.911	41.39
699.232	41.93
699.553	41.67
699.873	41.09
700.194	41.58
700.515	41.43
700.835	40.84
701.156	41.56
701.477	41.83
701.797	41.88
702.117	41.85
702.438	43.02
702.758	42.43
703.078	42.13
703.398	42.2
703.719	42.65
704.039	43.17
704.359	41.89
704.679	41.87
704.999	42.28
705.319	42.04
705.638	42.17
705.958	42.52
706.278	43.7
706.597	42.28
706.917	42.85
707.237	41.93
707.556	42.2
707.876	42.59
708.195	43.16
708.514	42.93
708.834	42.3
709.153	42.74
709.472	43.6
709.791	42.36
710.11	42.37
710.429	43.4
710.748	41.62
711.067	41.96
711.386	42.77
711.705	42.29
712.023	42.35
712.342	42.06
712.661	42.77
712.979	41.85
713.298	41.93
713.616	41.94
713.935	43.04
714.253	42.99
714.572	42.75
714.89	42.98
715.208	41.56
715.526	43.29
715.844	42.97
716.162	43.04
716.48	43.53
716.798	42.67
717.116	42.81
717.434	42.73
717.752	42.99
718.069	42.27
718.387	42.37
718.705	42.83
719.022	42
719.34	43.23
719.657	42.84
719.975	41.95
720.292	42.31
720.609	42.21
720.927	43.06
721.244	42.73
721.561	43.54
721.878	41.93
722.195	42.98
722.512	42.64
722.829	43.59
723.146	42.29
723.463	43.46
723.779	42.62
724.096	42.56
724.413	43.27
724.729	42.75
725.046	42.59
725.362	43.31
725.679	43.79
725.995	44.37
726.311	42.75
726.628	42.76
726.944	43.35
727.26	43.15
727.576	42.24
727.892	43.49
728.208	43.01
728.524	43.01
728.84	43.16
729.156	42.25
729.472	43.86
729.787	43.36
730.103	43.64
730.419	42.12
730.734	43.33
731.05	43.8
731.365	44
731.681	42.61
731.996	43.94
732.311	42.5
732.626	43.4
732.942	43.07
733.257	44.57
733.572	44.44
733.887	43.29
734.202	43.36
734.517	43.43
734.832	44.54
735.146	42.31
735.461	42.4
735.776	43.39
736.091	44.99
736.405	42.23
736.72	43.54
737.034	42.91
737.349	42.43
737.663	43.92
737.977	43.67
738.292	43.74
738.606	43.01
738.92	44.95
739.234	43.92
739.548	43.99
739.862	42.31
740.176	44.53
740.49	43.76
740.804	43.05
741.117	43.68
741.431	45.01
741.745	42.79
742.058	44.32
742.372	43.45
742.685	45.64
742.999	43.86
743.312	44.42
743.626	45.83
743.939	43.94
744.252	43.73
744.565	43.84
744.878	43.91
745.191	42.41
745.505	43.89
745.817	44.48
746.13	44.59
746.443	45.44
746.756	44.3
747.069	42.94
747.381	43.33
747.694	42.45
748.007	43.17
748.319	43.8
748.632	44.24
748.944	45.1
749.256	43.49
749.569	41.9
749.881	43.91
750.193	43.61
750.505	43.87
750.817	45.23
751.129	42.84
751.441	44.35
751.753	44.25
752.065	43.6
752.377	43.34
752.689	43.51
753	43.07
753.312	46.06
753.624	45.91
753.935	43.87
754.247	42.93
754.558	44.21
754.869	44.62
755.181	44.98
755.492	41.7
755.803	43.3
756.114	43.38
756.425	44.23
756.736	45.61
757.047	41.97
757.358	44.43
757.669	44.7
757.98	46.62
758.291	43.81
758.601	45.5
758.912	43.16
759.223	44.11
759.533	44.13
759.844	45.09
760.154	44.23
760.464	45.87
760.775	44.29
761.085	46.32
761.395	45.98
761.705	45.61
762.016	44.7
762.326	44.21
762.636	43.37
762.945	45.15
763.255	41.82
763.565	46.09
763.875	44.64
764.185	43.66
764.494	45.06
764.804	45.55
765.113	45.12
765.423	44.33
765.732	45.12
766.042	44.81
766.351	44.15
766.66	45.32
766.97	45.49
767.279	44.53
767.588	44.5
767.897	44.66
768.206	44.16
768.515	45.22
768.824	47.23
769.133	44.49
769.441	43.75
769.75	45.03
770.059	44.06
770.367	47.21
770.676	45.75
770.984	45.4
771.293	45.02
771.601	43.91
771.91	43.74
772.218	45.72
772.526	44.27
772.834	45.02
773.142	46.4
773.45	46.72
773.758	41.96
774.066	43.25
774.374	43
774.682	42.6
774.99	45.33
775.298	46.57
775.605	44.33
775.913	47.39
776.22	45.98
776.528	44.5
776.835	45.97
777.143	44.64
777.45	45.22
777.757	47.39
778.065	44.64
778.372	45.31
778.679	45.84
778.986	44.05
779.293	45.69
779.6	44.76
779.907	48.39
780.214	44.87
780.52	45.01
780.827	45
781.134	41.71
781.44	47.22
781.747	44.95
782.053	49.42
782.36	46.63
782.666	44.43
782.973	48.32
783.279	45.2
783.585	44.16
783.891	43.4
784.197	46.77
784.503	44.35
784.809	47.8
785.115	47.71
785.421	45.55
785.727	44.43
786.033	46.45
786.339	44.05
786.644	45.61
786.95	48.61
787.255	47.59
787.561	42.04
787.866	45.16
788.172	44.53
788.477	44.89
788.782	47.15
789.088	47.62
789.393	44.95
789.698	43.54
790.003	45.17
790.308	45.14
790.613	45.35
790.918	43.29
791.223	45.56
791.527	46.97
791.832	46.57
792.137	47.01
792.441	44.72
792.746	42.68
793.05	44.66
793.355	44.36
793.659	45.42
793.963	45.6
794.268	47.29
794.572	44.89
794.876	46.15
795.18	45.04
795.484	45.52
795.788	49.31
796.092	46.79
796.396	46.39
796.7	47.79
797.004	47.01
797.307	48.74
797.611	48.55
797.915	47.3
798.218	46.08
798.522	43.33
798.825	47.21
799.128	46.42
799.432	48.95
799.735	46.48
800.038	45.89
800.341	47.56
800.644	46.7
800.947	43.76
801.25	48.09
801.553	45.66
801.856	45.89
802.159	43.77
802.462	44.25
802.764	46.88
803.067	47.76
803.37	46.17
803.672	44.29
803.975	46.02
804.277	43.96
804.579	48.06
804.882	48.84
805.184	42.9
805.486	46.98
805.788	43.64
806.09	44.2
806.392	46.27
806.694	42.01
806.996	48.71
807.298	47.26
807.6	46.16
807.902	44.81
808.203	46.86
808.505	45.36
808.807	50
809.108	47.15
809.409	46.04
809.711	41.64
810.012	42.37
810.313	40.7
810.615	47.45
810.916	50.73
811.217	44.14
811.518	42.89
811.819	46.93
812.12	46.5
812.421	48.23
812.722	46.47
813.023	42.89
813.323	54.05
813.624	49.87
813.925	45.17
814.225	47.65
814.526	42.44
814.826	48.94
815.126	49.79
815.427	45.49
815.727	46.38
816.027	47.78
816.327	46.38
816.627	50.81
816.927	48.02
817.227	45.25
817.527	42.8
817.827	47.49
818.127	44.65
818.427	45.28
818.727	45.66
819.026	46.31
819.326	49.03
819.625	45.59
819.925	49.27
820.224	49.27
820.524	52.32
820.823	49.26
821.122	48.54
821.421	50.08
821.72	44.41
822.019	41.58
822.318	47.55
822.617	47.19
822.916	45.68
823.215	49.75
823.514	45.64
823.813	47.62
824.111	48.49
824.41	45.37
824.709	46.04
825.007	46.9
825.306	46.65
825.604	46.91
825.902	47.98
826.201	46.67
826.499	47.19
826.797	47.94
827.095	47.23
827.393	46.21
827.691	48.12
827.989	47.96
828.287	47.03
828.585	49.55
828.882	49.21
829.18	48.34
829.478	47.26
829.775	48.47
830.073	46.71
830.37	48.18
830.668	48.93
830.965	45.58
831.263	45.07
831.56	45.99
831.857	49.3
832.154	49.08
832.451	42.08
832.748	45.1
833.045	48.08
833.342	46.41
833.639	45.06
833.936	47.01
834.232	47.29
834.529	46.7
834.826	48.32
835.122	47.47
835.419	46.88
835.715	46.53
836.012	48.38
836.308	49.61
836.604	48.64
836.901	47.7
837.197	47.84
837.493	46.43
837.789	49.54
838.085	47.59
838.381	48.45
838.677	47.17
838.972	46.69
839.268	48.75
839.564	46.02
839.86	47.98
840.155	48.54
840.451	51.09
840.746	45.13
841.042	50.46
841.337	50.23
841.632	33.78
841.928	47.57
842.223	41.1
842.518	46.57
842.813	40.16
843.108	51.88
843.403	45.65
843.698	44.99
843.993	51.51
844.287	44.95
844.582	55.42
844.877	42.94
845.171	50.27
845.466	51.77
845.761	56.1
846.055	53.55
846.349	45.27
846.644	64.92
846.938	52.24
847.232	32.73
847.526	40.86
847.82	44.97
848.114	58.6
848.408	45.35
848.702	48.78
848.996	41.21
849.29	45.98
849.584	52.37
849.877	40.24
850.171	35.13
850.465	50.43
850.758	32.73
851.052	35.44
851.345	36.95
851.638	51.17
851.932	57.78
852.225	49.05
852.518	45.73
852.811	32.29
853.104	43.18
853.397	58.61
853.69	54.2
853.983	61.62
854.276	53.44
854.569	45.36
854.861	46.85
855.154	53.29
855.447	45.42
855.739	45.41
856.032	43.92
856.324	49.63
856.616	50.46
856.909	49.12
857.201	64.72
857.493	39.53
857.785	57.45
858.077	39.03
858.369	45.38
858.661	62.29
858.953	70.28
859.245	46.51
859.537	24.04
859.829	51.84
860.12	67.44
860.412	45.23
860.703	51.63
860.995	44.1
861.286	39.19
861.578	19.23
861.869	53.42
862.16	47.74
862.452	47.14
862.743	56.49
863.034	32.27
863.325	62.96
863.616	30.71
863.907	45.55
864.198	54.58
864.488	47.11
864.779	46.58
865.07	55.01
865.36	54.98
865.651	57.19
865.941	65.15
866.232	53.11
866.522	78.9
866.813	58.26
867.103	63.99
867.393	48.07
867.683	53.38
867.973	60.23
868.263	61.8
868.553	65.23
868.843	44.57
869.133	48.89
869.423	40.57
869.713	23.1
870.002	43.04
870.292	65.85
870.582	67.72
870.871	40.32
871.161	58.01
871.45	50.49
871.739	64.39
872.029	77.72
872.318	37.51
872.607	44.09
872.896	47.64
873.185	44.53
873.474	44.71
873.763	39.92
874.052	23.08
874.341	71.59
874.63	64.13
874.918	68.73
875.207	54.89
875.496	48.77
875.784	63.97
876.073	43.55
876.361	64.37
876.649	67.71
876.938	40.63
877.226	70.11
877.514	28.35
877.802	77.74
878.09	52.33
878.378	57.81
878.666	31.14
878.954	57.85
879.242	40.14
879.53	36.58
879.817	53.93
880.105	50.46
880.392	37.06
880.68	16.9
880.967	56.38
881.255	41.69
881.542	58.63
881.83	58.77
882.117	50.36
882.404	44.87
882.691	77.22
882.978	59.54
883.265	43.19
883.552	48.03
883.839	60.8
884.126	43.57
884.413	47.92
884.699	51.35
884.986	50.75
885.273	47.91
885.559	47.91
885.846	47.91
