Data from 1886-1_forehead_Reflection__4__90.txt Node

Date: Fri Sep 30 18:26:10 CDT 2022
User: ToomeyLab
Spectrometer: FLMS14357
Trigger mode: 0
Integration Time (sec): 1.000000E-2
Scans to average: 100
Electric dark correction enabled: true
Nonlinearity correction enabled: false
Boxcar width: 0
XAxis mode: Wavelengths
Number of Pixels in Spectrum: 2048
>>>>>Begin Spectral Data<<<<<
189.047	5420
189.435	5420
189.823	5420
190.211	71.61
190.599	-103.02
190.987	39.44
191.375	12.49
191.763	1942.11
192.151	166.8
192.538	-175.25
192.926	-325.09
193.314	-144.44
193.702	-32.99
194.089	44.85
194.477	312.01
194.864	12.92
195.252	45.92
195.639	-872.52
196.027	-274.47
196.414	66.9
196.801	92.28
197.189	151
197.576	-196.55
197.963	-133.12
198.351	-34.57
198.738	2.71
199.125	59.47
199.512	39.05
199.899	14.47
200.286	63.57
200.673	58.03
201.06	57.68
201.447	36.07
201.833	77.74
202.22	18
202.607	27.96
202.994	58.41
203.38	22.23
203.767	-3.95
204.154	50.68
204.54	28.21
204.927	25.27
205.313	-5.52
205.699	15.09
206.086	-2.12
206.472	30.99
206.858	25.25
207.245	19.23
207.631	36.29
208.017	-40.64
208.403	47.47
208.789	52.36
209.175	30.77
209.561	18.73
209.947	18.92
210.333	-8.92
210.719	4.45
211.105	21.64
211.491	31.33
211.876	12.57
212.262	32.77
212.648	61.43
213.034	45.27
213.419	40.28
213.805	3.08
214.19	7.44
214.576	24.36
214.961	35.52
215.346	8.41
215.732	23.09
216.117	0.58
216.502	29.65
216.888	9.92
217.273	26.08
217.658	40.34
218.043	-8.39
218.428	18.65
218.813	0.75
219.198	7.85
219.583	30.6
219.968	17.2
220.353	18.65
220.738	21.69
221.122	27.16
221.507	21.07
221.892	17.23
222.276	-0.29
222.661	21.73
223.046	16.92
223.43	3.85
223.815	16.38
224.199	12.56
224.583	-3.15
224.968	8.1
225.352	0.32
225.736	14.92
226.121	12.21
226.505	6.21
226.889	8.4
227.273	0.96
227.657	6.87
228.041	4.15
228.425	6.47
228.809	5.96
229.193	6.32
229.577	1.96
229.961	3.97
230.344	3.54
230.728	2.92
231.112	3.29
231.495	3.4
231.879	5.57
232.263	3.34
232.646	2.89
233.03	4.47
233.413	3.9
233.797	1.99
234.18	3.89
234.563	4.04
234.946	4.28
235.33	3.16
235.713	5.15
236.096	4.31
236.479	4.32
236.862	3.8
237.245	5.32
237.628	3.78
238.011	5.68
238.394	3.28
238.777	2.9
239.16	2.5
239.543	4.35
239.925	2.63
240.308	3.33
240.691	5.81
241.073	4.72
241.456	4.58
241.838	3.15
242.221	3.39
242.603	4.05
242.986	3.76
243.368	2.68
243.75	2.73
244.133	3.59
244.515	3.32
244.897	3.63
245.279	3.76
245.661	3.66
246.043	3.52
246.425	2.78
246.807	4.58
247.189	4.15
247.571	3.41
247.953	3.49
248.335	3.13
248.717	3.07
249.098	3.38
249.48	3.14
249.862	2.96
250.243	3.04
250.625	3.74
251.006	3.9
251.388	3.14
251.769	5.45
252.151	3.58
252.532	4.67
252.913	2.82
253.295	3.5
253.676	2.9
254.057	3.79
254.438	3.34
254.819	4.45
255.2	3.14
255.581	4.37
255.962	4.25
256.343	4.34
256.724	4.13
257.105	5.21
257.486	4.37
257.867	3.91
258.247	3.53
258.628	4.28
259.009	4.64
259.389	3.52
259.77	3.59
260.15	3.45
260.531	3.98
260.911	3.45
261.292	3.1
261.672	3.34
262.052	3.3
262.432	3.42
262.813	3.98
263.193	3.54
263.573	3.65
263.953	3.14
264.333	3.74
264.713	3.62
265.093	3.87
265.473	3.69
265.853	3.76
266.233	2.93
266.612	3.19
266.992	3.29
267.372	3.09
267.752	3
268.131	3.74
268.511	3.45
268.89	3.29
269.27	3.61
269.649	3.49
270.029	3.42
270.408	3.19
270.787	2.88
271.167	3.46
271.546	3.95
271.925	4.15
272.304	3.39
272.683	3.32
273.062	3.12
273.441	3.49
273.82	3.25
274.199	3.24
274.578	3.05
274.957	3
275.336	3.26
275.715	3.32
276.093	3.08
276.472	3.35
276.851	3.28
277.229	3.48
277.608	3.57
277.986	3.23
278.365	3.46
278.743	3.54
279.122	3.64
279.5	3.74
279.878	3.31
280.257	3.56
280.635	3.91
281.013	3.51
281.391	3.37
281.769	3.7
282.147	3.29
282.525	3.49
282.903	3.12
283.281	3.39
283.659	3.55
284.037	3.31
284.415	3.4
284.792	3.5
285.17	3.13
285.548	3.89
285.925	3.56
286.303	3.35
286.68	3.11
287.058	3.45
287.435	3.3
287.813	3.12
288.19	3.3
288.567	3.17
288.945	2.89
289.322	3.05
289.699	3.17
290.076	3.56
290.453	3.28
290.83	3.78
291.207	3.29
291.584	3.5
291.961	3.54
292.338	3.54
292.715	3.96
293.092	3.55
293.469	3.81
293.845	4.07
294.222	3.59
294.599	4.51
294.975	4.08
295.352	3.63
295.728	4.2
296.105	3.74
296.481	3.81
296.858	4.68
297.234	4.17
297.61	3.94
297.986	3.97
298.363	4.06
298.739	3.77
299.115	3.97
299.491	4.05
299.867	4.28
300.243	4.27
300.619	3.86
300.995	4.47
301.371	4.13
301.746	4.3
302.122	4.37
302.498	4.51
302.874	4.42
303.249	4.15
303.625	4.31
304	5.24
304.376	4.76
304.751	5.35
305.127	5.08
305.502	5.18
305.878	5.13
306.253	4.59
306.628	4.91
307.003	4.74
307.378	4.66
307.754	4.89
308.129	4.74
308.504	4.94
308.879	5.93
309.254	5.46
309.629	5.49
310.003	5.29
310.378	5.2
310.753	5.36
311.128	5.54
311.502	6.15
311.877	5.76
312.252	5.79
312.626	5.77
313.001	5.47
313.375	5.57
313.75	6.02
314.124	5.97
314.498	5.44
314.873	5.94
315.247	5.75
315.621	6.5
315.995	6.3
316.369	5.88
316.743	5.91
317.117	6.77
317.491	7.18
317.865	6.9
318.239	6.41
318.613	6.63
318.987	6.92
319.361	6.74
319.734	6.93
320.108	7.5
320.482	7.01
320.855	6.92
321.229	7.22
321.602	7.22
321.976	6.63
322.349	7.23
322.723	7.34
323.096	7.47
323.469	7.74
323.843	7.52
324.216	7.51
324.589	7.58
324.962	7.93
325.335	7.51
325.708	7.21
326.081	7.67
326.454	7.42
326.827	7.69
327.2	7.23
327.573	7.48
327.945	7.55
328.318	7.72
328.691	7.89
329.063	7.91
329.436	7.48
329.809	8.13
330.181	8.13
330.553	7.83
330.926	8.31
331.298	7.81
331.671	8.41
332.043	7.92
332.415	8.39
332.787	7.98
333.159	8.61
333.532	8.13
333.904	8.37
334.276	8.29
334.648	8.07
335.02	8.53
335.391	8.7
335.763	8.26
336.135	8.27
336.507	8.82
336.879	8.36
337.25	8.3
337.622	8.89
337.993	8.98
338.365	8.73
338.736	8.35
339.108	8.87
339.479	9.27
339.851	8.69
340.222	9.22
340.593	8.87
340.964	8.9
341.336	8.77
341.707	8.99
342.078	9.21
342.449	9.49
342.82	9.06
343.191	9.09
343.562	9.23
343.933	9.42
344.303	9.21
344.674	9.35
345.045	9.25
345.416	9.49
345.786	9
346.157	9.74
346.527	9.52
346.898	9.78
347.268	9.31
347.639	9.07
348.009	9.53
348.38	10
348.75	10.09
349.12	9.89
349.49	10.25
349.861	9.46
350.231	9.77
350.601	10.02
350.971	9.66
351.341	9.63
351.711	9.95
352.081	9.88
352.45	10.3
352.82	9.99
353.19	10.44
353.56	10.36
353.929	10.01
354.299	10.4
354.669	10.03
355.038	10.3
355.408	10.68
355.777	10.06
356.147	10.21
356.516	11.03
356.885	10.21
357.254	10.53
357.624	10.57
357.993	10.01
358.362	10.55
358.731	10.38
359.1	10.43
359.469	10.46
359.838	10.82
360.207	10.83
360.576	10.75
360.945	10.86
361.314	10.78
361.682	10.81
362.051	10.92
362.42	11.03
362.788	10.82
363.157	10.84
363.525	10.65
363.894	10.79
364.262	11.09
364.631	11.36
364.999	11.27
365.367	11.28
365.735	10.63
366.104	11.17
366.472	11.29
366.84	11.35
367.208	11.29
367.576	11.83
367.944	11.31
368.312	11.65
368.68	11.33
369.048	11.58
369.416	11.8
369.783	12.04
370.151	11.79
370.519	11.8
370.886	11.82
371.254	11.64
371.621	12.08
371.989	12.16
372.356	12.12
372.724	12.11
373.091	11.71
373.458	11.87
373.826	12.3
374.193	12.36
374.56	11.84
374.927	12.37
375.294	12.34
375.661	12.08
376.028	12.13
376.395	12.59
376.762	12.04
377.129	12.66
377.496	12.56
377.863	12.16
378.229	12.61
378.596	12.53
378.963	12.67
379.329	12.55
379.696	12.8
380.062	12.91
380.429	12.9
380.795	12.61
381.161	12.5
381.528	12.55
381.894	12.71
382.26	12.9
382.626	12.99
382.993	12.84
383.359	12.55
383.725	12.61
384.091	12.99
384.457	13.15
384.823	13.18
385.188	13.23
385.554	12.85
385.92	13.26
386.286	13.28
386.651	13.5
387.017	13.51
387.383	13.57
387.748	12.99
388.114	13.52
388.479	13.47
388.845	13.33
389.21	13.4
389.575	13.57
389.94	13.6
390.306	13.66
390.671	13.66
391.036	13.82
391.401	13.84
391.766	13.93
392.131	13.79
392.496	14.01
392.861	13.98
393.226	13.83
393.591	13.82
393.956	13.77
394.32	13.71
394.685	13.7
395.05	14.19
395.414	14.18
395.779	14.02
396.143	14.22
396.508	14.14
396.872	14.2
397.236	14.24
397.601	14.24
397.965	14.57
398.329	14.25
398.694	14.49
399.058	14.26
399.422	14.52
399.786	14.47
400.15	14.41
400.514	14.41
400.878	14.39
401.242	14.52
401.605	14.71
401.969	14.78
402.333	14.56
402.697	14.9
403.06	14.93
403.424	14.56
403.787	15.16
404.151	14.98
404.514	14.91
404.878	14.98
405.241	15.06
405.604	15.02
405.968	15.07
406.331	15
406.694	15.07
407.057	15.12
407.42	15.28
407.783	14.89
408.146	15.26
408.509	15.18
408.872	15.45
409.235	15.45
409.598	15.61
409.961	15.57
410.323	15.69
410.686	15.59
411.049	15.49
411.411	15.69
411.774	15.76
412.136	15.62
412.499	15.39
412.861	15.57
413.223	15.49
413.586	15.74
413.948	15.87
414.31	15.82
414.672	16.08
415.035	15.81
415.397	16.08
415.759	15.94
416.121	15.88
416.483	15.84
416.845	16.12
417.206	16
417.568	16.07
417.93	15.88
418.292	16.12
418.653	15.82
419.015	16.17
419.377	15.89
419.738	16.15
420.1	16.03
420.461	16.13
420.822	16.05
421.184	16.02
421.545	15.98
421.906	15.93
422.267	16.02
422.629	16.02
422.99	16.03
423.351	16.05
423.712	16.17
424.073	16.14
424.434	16.45
424.795	16.31
425.155	16.41
425.516	16.35
425.877	16.42
426.238	16.28
426.598	16.5
426.959	16.4
427.32	16.62
427.68	16.67
428.041	16.76
428.401	16.81
428.761	17.01
429.122	17.13
429.482	16.97
429.842	17.21
430.202	17.25
430.563	17.33
430.923	17.23
431.283	17.18
431.643	17.36
432.003	17.27
432.363	17.44
432.722	17.72
433.082	17.54
433.442	17.58
433.802	17.66
434.161	17.52
434.521	17.61
434.881	17.62
435.24	17.56
435.6	17.65
435.959	17.56
436.319	17.73
436.678	17.74
437.037	17.91
437.396	17.88
437.756	17.76
438.115	17.94
438.474	18.11
438.833	18.04
439.192	18.05
439.551	18.15
439.91	18.06
440.269	17.97
440.628	18.03
440.987	18.3
441.345	18.06
441.704	17.99
442.063	18.2
442.421	18.18
442.78	18.17
443.138	18.15
443.497	18.35
443.855	18.34
444.214	18.53
444.572	18.59
444.93	18.43
445.288	18.64
445.647	18.53
446.005	18.73
446.363	18.76
446.721	18.53
447.079	18.6
447.437	18.65
447.795	18.33
448.153	18.43
448.51	18.49
448.868	18.53
449.226	18.44
449.584	18.55
449.941	18.74
450.299	18.93
450.656	18.96
451.014	19.1
451.371	19.13
451.729	19.12
452.086	19.16
452.443	19.3
452.801	19.44
453.158	19.34
453.515	19.2
453.872	19.33
454.229	19.31
454.586	19.51
454.943	19.52
455.3	19.3
455.657	19.54
456.014	19.61
456.371	19.49
456.727	19.88
457.084	19.78
457.441	19.75
457.797	19.75
458.154	19.7
458.51	19.72
458.867	20
459.223	19.81
459.58	20.02
459.936	20.18
460.292	19.95
460.648	19.97
461.005	20
461.361	19.78
461.717	19.75
462.073	19.75
462.429	19.94
462.785	19.99
463.141	20.07
463.496	20.18
463.852	20.37
464.208	20.52
464.564	20.5
464.919	20.47
465.275	20.61
465.631	20.73
465.986	20.79
466.342	20.7
466.697	20.57
467.052	20.8
467.408	20.58
467.763	20.65
468.118	20.69
468.473	20.82
468.829	20.9
469.184	20.83
469.539	20.79
469.894	20.74
470.249	20.98
470.603	21.15
470.958	21.02
471.313	20.95
471.668	21.1
472.023	21.15
472.377	21.35
472.732	21.4
473.086	21.53
473.441	21.44
473.795	21.43
474.15	21.28
474.504	21.5
474.859	21.5
475.213	21.42
475.567	21.69
475.921	21.55
476.275	21.57
476.63	21.75
476.984	21.67
477.338	21.7
477.692	21.73
478.045	21.96
478.399	21.81
478.753	21.8
479.107	21.92
479.461	21.91
479.814	21.76
480.168	21.87
480.521	21.84
480.875	21.92
481.228	22
481.582	22.11
481.935	22.05
482.289	22.03
482.642	21.98
482.995	22.02
483.348	22.07
483.701	21.95
484.055	21.83
484.408	21.78
484.761	21.56
485.114	21.41
485.466	21.34
485.819	21.31
486.172	21.26
486.525	21.38
486.878	21.44
487.23	21.57
487.583	21.79
487.936	21.98
488.288	21.96
488.641	21.8
488.993	21.82
489.345	21.79
489.698	21.82
490.05	21.86
490.402	21.83
490.754	22.04
491.107	22.09
491.459	22.31
491.811	22.4
492.163	22.63
492.515	22.66
492.866	22.38
493.218	22.27
493.57	22.22
493.922	22.24
494.274	22.29
494.625	22.54
494.977	22.71
495.328	22.86
495.68	23.03
496.031	23.33
496.383	23.35
496.734	23.45
497.086	23.39
497.437	23.3
497.788	23.39
498.139	23.3
498.49	23.3
498.842	23.29
499.193	23.35
499.544	23.51
499.894	23.58
500.245	23.56
500.596	23.73
500.947	23.58
501.298	23.89
501.648	23.75
501.999	23.84
502.35	23.8
502.7	23.98
503.051	23.97
503.401	24.23
503.752	24.21
504.102	24.32
504.452	24.24
504.803	24.15
505.153	24.24
505.503	24.31
505.853	24.23
506.203	24.15
506.553	24.25
506.903	24.27
507.253	24.55
507.603	24.57
507.953	24.7
508.303	24.53
508.652	24.24
509.002	24.47
509.352	24.43
509.701	24.52
510.051	24.6
510.4	24.52
510.75	24.53
511.099	24.46
511.449	24.5
511.798	24.68
512.147	24.63
512.496	24.72
512.846	24.71
513.195	24.89
513.544	24.78
513.893	24.81
514.242	24.73
514.591	24.99
514.939	25.08
515.288	25.05
515.637	25
515.986	25.12
516.334	25.1
516.683	25.24
517.032	25.38
517.38	25.25
517.729	25.45
518.077	25.19
518.426	25.36
518.774	25.45
519.122	25.24
519.47	25.35
519.819	25.22
520.167	25.28
520.515	25.11
520.863	25.1
521.211	25.29
521.559	25.32
521.907	25.27
522.255	25.46
522.602	25.61
522.95	25.69
523.298	25.78
523.645	25.91
523.993	25.94
524.341	25.96
524.688	26.05
525.036	26.14
525.383	25.97
525.73	26.07
526.078	26
526.425	26.08
526.772	25.92
527.119	25.72
527.466	25.68
527.814	25.72
528.161	25.71
528.508	25.72
528.854	25.84
529.201	25.82
529.548	25.61
529.895	25.56
530.242	25.56
530.588	25.47
530.935	25.52
531.282	25.5
531.628	25.56
531.975	25.74
532.321	25.82
532.667	25.93
533.014	26.27
533.36	26.27
533.706	26.33
534.052	26.38
534.399	26.25
534.745	26.17
535.091	26
535.437	26.16
535.783	26.2
536.129	26.23
536.474	26.33
536.82	26.63
537.166	26.78
537.512	26.71
537.857	26.84
538.203	26.88
538.549	26.52
538.894	26.83
539.239	26.92
539.585	27
539.93	27.17
540.276	27.21
540.621	27.3
540.966	27.4
541.311	27.39
541.656	27.35
542.001	27.36
542.346	27.32
542.691	26.88
543.036	26.86
543.381	26.87
543.726	26.74
544.071	26.9
544.415	26.93
544.76	27.06
545.105	27.19
545.449	27.27
545.794	27.46
546.138	27.58
546.483	27.68
546.827	27.63
547.171	27.82
547.516	27.8
547.86	27.66
548.204	27.85
548.548	27.77
548.892	27.87
549.236	27.91
549.58	27.93
549.924	28.06
550.268	28.49
550.612	28.26
550.956	28.46
551.3	28.58
551.643	28.74
551.987	28.66
552.33	28.97
552.674	28.74
553.017	28.7
553.361	28.65
553.704	28.95
554.048	28.68
554.391	28.86
554.734	28.81
555.077	28.76
555.42	28.94
555.764	28.87
556.107	28.9
556.45	28.85
556.793	28.88
557.135	29.38
557.478	29.34
557.821	29.12
558.164	29.53
558.507	29.56
558.849	29.38
559.192	29.24
559.534	29.39
559.877	29.52
560.219	29.54
560.562	29.68
560.904	29.44
561.246	29.49
561.589	29.4
561.931	29.64
562.273	29.6
562.615	29.45
562.957	29.64
563.299	29.87
563.641	29.66
563.983	29.72
564.325	29.76
564.667	29.94
565.008	29.88
565.35	29.9
565.692	29.91
566.033	30.03
566.375	29.84
566.716	30.03
567.058	29.94
567.399	29.94
567.741	29.91
568.082	29.92
568.423	29.99
568.764	29.74
569.105	30.13
569.447	30.09
569.788	30.29
570.129	30.25
570.47	30.27
570.811	30.41
571.151	30.53
571.492	30.52
571.833	30.53
572.174	30.48
572.514	30.43
572.855	30.32
573.195	30.49
573.536	30.39
573.876	30.52
574.217	30.33
574.557	30.54
574.898	30.62
575.238	30.88
575.578	30.75
575.918	30.66
576.258	30.8
576.598	30.9
576.938	30.83
577.278	30.83
577.618	30.78
577.958	30.95
578.298	31.16
578.638	31.02
578.977	31.05
579.317	31.12
579.657	31.11
579.996	31.23
580.336	31.33
580.675	31.33
581.014	31.54
581.354	31.4
581.693	31.6
582.032	31.58
582.372	31.51
582.711	31.57
583.05	31.98
583.389	31.47
583.728	31.88
584.067	31.78
584.406	31.76
584.745	31.74
585.083	31.62
585.422	32.07
585.761	31.81
586.1	32.1
586.438	31.72
586.777	32.49
587.115	32.3
587.454	31.76
587.792	32.05
588.13	32.04
588.469	32.13
588.807	32.17
589.145	32.3
589.483	32.48
589.821	32.24
590.159	32.35
590.497	32.57
590.835	32.15
591.173	32.19
591.511	32.27
591.849	32.2
592.187	32.12
592.524	32.17
592.862	32.43
593.2	32.44
593.537	32.4
593.875	32.68
594.212	32.64
594.55	32.54
594.887	32.72
595.224	32.56
595.561	32.82
595.899	32.57
596.236	32.84
596.573	32.79
596.91	32.63
597.247	32.57
597.584	32.66
597.921	32.72
598.258	32.82
598.594	32.67
598.931	32.74
599.268	32.63
599.604	32.68
599.941	32.26
600.277	32.87
600.614	32.73
600.95	32.96
601.287	32.95
601.623	33.31
601.959	33.11
602.296	33.09
602.632	33.43
602.968	33.51
603.304	33.43
603.64	33.57
603.976	33.39
604.312	33.18
604.648	33.34
604.984	33.43
605.319	33.07
605.655	33.29
605.991	33.34
606.326	32.91
606.662	33.43
606.998	33.27
607.333	33.29
607.668	33.47
608.004	33.61
608.339	33.5
608.674	33.78
609.01	33.45
609.345	33.62
609.68	33.72
610.015	33.96
610.35	33.99
610.685	33.67
611.02	33.57
611.355	33.75
611.689	33.5
612.024	33.53
612.359	33.75
612.694	33.88
613.028	33.9
613.363	33.97
613.697	34.1
614.032	34.27
614.366	34.4
614.7	34.2
615.035	34.49
615.369	34.51
615.703	34.01
616.037	34.22
616.371	34.45
616.705	34.58
617.039	34.58
617.373	34.69
617.707	34.6
618.041	34.71
618.375	34.58
618.709	34.87
619.042	34.55
619.376	34.83
619.71	34.96
620.043	35.05
620.377	35.25
620.71	34.66
621.043	35.07
621.377	35.02
621.71	35.02
622.043	35.02
622.376	35.08
622.709	34.69
623.043	35.29
623.376	34.93
623.709	35.03
624.041	34.87
624.374	35.35
624.707	34.73
625.04	35.13
625.373	34.85
625.705	34.99
626.038	34.77
626.37	35.15
626.703	35.23
627.035	35
627.368	35.53
627.7	35.4
628.032	35.37
628.365	35.78
628.697	35.46
629.029	35.2
629.361	35.41
629.693	35.38
630.025	35.06
630.357	35.73
630.689	35.46
631.021	35.4
631.353	35.25
631.684	35.55
632.016	36.06
632.348	35.36
632.679	35.68
633.011	36.1
633.342	35.64
633.674	35.95
634.005	35.73
634.336	36.04
634.668	35.56
634.999	36.22
635.33	36.2
635.661	35.61
635.992	35.79
636.323	35.97
636.654	35.8
636.985	35.93
637.316	35.88
637.647	35.67
637.977	36.22
638.308	36.27
638.639	36.4
638.969	36.39
639.3	35.71
639.63	36.04
639.961	36.26
640.291	36.15
640.622	36.01
640.952	36.33
641.282	36.19
641.612	35.89
641.943	36.6
642.273	36.58
642.603	36.2
642.933	36.28
643.263	36.53
643.592	36.65
643.922	36.3
644.252	36.83
644.582	36.73
644.911	36.9
645.241	36.62
645.571	36.54
645.9	36.51
646.23	36.74
646.559	36.88
646.888	36.66
647.218	36.89
647.547	36.8
647.876	36.63
648.205	36.98
648.534	36.63
648.863	36.74
649.192	37.02
649.521	36.81
649.85	36.85
650.179	37
650.508	36.67
650.837	37.16
651.165	36.7
651.494	36.82
651.822	37.76
652.151	36.83
652.479	37.15
652.808	36.95
653.136	37.12
653.465	37.01
653.793	37.56
654.121	37.44
654.449	37.63
654.777	37.28
655.105	37.63
655.433	37.03
655.761	37.37
656.089	37.9
656.417	36.82
656.745	37.4
657.073	37.47
657.4	37.56
657.728	37.36
658.056	37.44
658.383	37.13
658.711	37.7
659.038	37.52
659.365	37.6
659.693	37.95
660.02	37.72
660.347	37.6
660.674	37.59
661.001	37.64
661.329	37.86
661.656	37.68
661.982	37.67
662.309	37.99
662.636	37.81
662.963	37.76
663.29	37.74
663.616	37.62
663.943	38.16
664.27	38.1
664.596	38.51
664.923	38
665.249	38.39
665.576	37.8
665.902	38.58
666.228	38.16
666.554	38.34
666.881	38.55
667.207	37.88
667.533	37.98
667.859	38.47
668.185	38.12
668.511	38.11
668.837	38.49
669.162	38.59
669.488	38.72
669.814	38.87
670.139	37.81
670.465	38.83
670.791	38.66
671.116	38.4
671.442	38.81
671.767	38.72
672.092	37.92
672.418	38.41
672.743	38.61
673.068	39.09
673.393	38.69
673.718	38.31
674.043	39.12
674.368	38.97
674.693	38.51
675.018	38.75
675.343	39.16
675.667	38.45
675.992	39.28
676.317	39
676.641	39.16
676.966	38.18
677.29	38.58
677.615	39.03
677.939	38.54
678.264	38.39
678.588	38.57
678.912	39.12
679.236	39.12
679.56	39.4
679.885	39.3
680.209	39.2
680.532	39.3
680.856	38.88
681.18	38.75
681.504	38.86
681.828	39.25
682.152	38.72
682.475	38.67
682.799	38.75
683.122	39.15
683.446	39.06
683.769	40.06
684.093	39.14
684.416	39.53
684.739	39.58
685.062	39.96
685.386	39.33
685.709	40.25
686.032	39.42
686.355	39.69
686.678	39.53
687.001	39.51
687.324	39.9
687.646	40.05
687.969	39.75
688.292	38.97
688.614	39.27
688.937	39.56
689.26	40.05
689.582	39.37
689.904	39.68
690.227	39.93
690.549	39.18
690.871	39.87
691.194	39.45
691.516	39.48
691.838	39.43
692.16	40.21
692.482	39.47
692.804	40.29
693.126	40.33
693.448	39.83
693.769	40.11
694.091	39.46
694.413	40.72
694.735	40.08
695.056	40.73
695.378	39.01
695.699	40.27
696.021	39.6
696.342	39.7
696.663	40.29
696.984	39.44
697.306	40.15
697.627	39.68
697.948	40.07
698.269	39.92
698.59	40
698.911	40
699.232	40.4
699.553	39.92
699.873	40.41
700.194	40.16
700.515	39.97
700.835	40.1
701.156	39.8
701.477	40.26
701.797	40.35
702.117	39.78
702.438	39.54
702.758	40.61
703.078	40.53
703.398	41.43
703.719	40.63
704.039	40.54
704.359	41.37
704.679	40.65
704.999	39.83
705.319	40.26
705.638	41.59
705.958	41.61
706.278	41.22
706.597	41.14
706.917	40.68
707.237	40.07
707.556	39.52
707.876	40.12
708.195	41.37
708.514	41.28
708.834	40.77
709.153	41.03
709.472	40.53
709.791	40.32
710.11	40.86
710.429	40.61
710.748	40.12
711.067	39.52
711.386	41.23
711.705	41.43
712.023	40.32
712.342	41.63
712.661	39.98
712.979	40.72
713.298	41.03
713.616	40.74
713.935	40.59
714.253	40.99
714.572	40.83
714.89	40.93
715.208	39.43
715.526	41.28
715.844	41.41
716.162	40.11
716.48	41.54
716.798	40.26
717.116	41.94
717.434	40.95
717.752	41.83
718.069	41.01
718.387	40.22
718.705	41.67
719.022	41.12
719.34	41.29
719.657	41.04
719.975	41.81
720.292	40.86
720.609	40.84
720.927	42.72
721.244	42.08
721.561	42.33
721.878	40.65
722.195	42.56
722.512	41.16
722.829	43.04
723.146	40.74
723.463	42.48
723.779	41.8
724.096	42.61
724.413	42.34
724.729	41.59
725.046	41.31
725.362	41.95
725.679	41.27
725.995	41.74
726.311	41.35
726.628	41.31
726.944	41.67
727.26	41.36
727.576	41.42
727.892	42.57
728.208	41.95
728.524	41.34
728.84	41.75
729.156	42.53
729.472	42.09
729.787	42.49
730.103	42.67
730.419	41.11
730.734	41.64
731.05	43.42
731.365	42.54
731.681	41.69
731.996	41.28
732.311	41.84
732.626	43.34
732.942	41.63
733.257	42.78
733.572	43.56
733.887	42.49
734.202	42.68
734.517	42.69
734.832	42.46
735.146	42.88
735.461	41.37
735.776	41.99
736.091	42.92
736.405	41.67
736.72	42.22
737.034	42.52
737.349	42.75
737.663	43.43
737.977	42.65
738.292	42.34
738.606	41.7
738.92	43.82
739.234	41.53
739.548	42.87
739.862	42.51
740.176	42.27
740.49	42.65
740.804	43.02
741.117	43.52
741.431	44.5
741.745	40.12
742.058	43.48
742.372	43.17
742.685	42.74
742.999	42.94
743.312	42.62
743.626	42.25
743.939	43.87
744.252	41.1
744.565	44
744.878	45.02
745.191	42.79
745.505	42.12
745.817	41.97
746.13	43.2
746.443	43.08
746.756	41.79
747.069	41.59
747.381	42.36
747.694	44.27
748.007	43.46
748.319	42.03
748.632	42.79
748.944	43.64
749.256	42.81
749.569	41.56
749.881	41.81
750.193	43.19
750.505	43.58
750.817	46.46
751.129	41.95
751.441	44.11
751.753	44.56
752.065	42.66
752.377	43.16
752.689	43.09
753	41.77
753.312	43.37
753.624	42.25
753.935	42.75
754.247	44.35
754.558	41.99
754.869	43.36
755.181	42.31
755.492	42.73
755.803	41.94
756.114	42.16
756.425	44.29
756.736	44.23
757.047	42.36
757.358	44.34
757.669	44.35
757.98	45.74
758.291	43.89
758.601	44.75
758.912	44.26
759.223	43.54
759.533	43.15
759.844	44.66
760.154	43.4
760.464	44.57
760.775	44.05
761.085	43.28
761.395	44.33
761.705	42.94
762.016	43.66
762.326	43.54
762.636	44.24
762.945	44.52
763.255	42.86
763.565	42.25
763.875	45.35
764.185	42.77
764.494	44.34
764.804	44.7
765.113	44.04
765.423	44.81
765.732	44.69
766.042	43.91
766.351	43.75
766.66	43.43
766.97	43.54
767.279	43.36
767.588	44.28
767.897	42.32
768.206	42.79
768.515	42.83
768.824	43.63
769.133	43.56
769.441	43.81
769.75	44.8
770.059	43.49
770.367	42.18
770.676	42.91
770.984	46.23
771.293	44.34
771.601	44.95
771.91	43.61
772.218	45.52
772.526	43.17
772.834	42.24
773.142	44.68
773.45	48.15
773.758	41.03
774.066	45.66
774.374	43.4
774.682	40.65
774.99	42.34
775.298	46.12
775.605	43.15
775.913	46.18
776.22	43.93
776.528	44.8
776.835	46.19
777.143	44.82
777.45	41.62
777.757	45.02
778.065	41.82
778.372	44.78
778.679	44.57
778.986	42.36
779.293	41.66
779.6	42.13
779.907	48.17
780.214	45.24
780.52	45.39
780.827	48.1
781.134	45.29
781.44	48.12
781.747	46.13
782.053	45.69
782.36	42.44
782.666	42.03
782.973	46.22
783.279	45.95
783.585	44.61
783.891	46.23
784.197	46.69
784.503	43.66
784.809	44.7
785.115	45.77
785.421	45.92
785.727	43.12
786.033	46.81
786.339	47.69
786.644	44.29
786.95	47.75
787.255	42.83
787.561	45.81
787.866	44.4
788.172	46.59
788.477	43.97
788.782	46.64
789.088	47.2
789.393	45.66
789.698	45.26
790.003	42.59
790.308	44.78
790.613	46.23
790.918	48.37
791.223	49.07
791.527	43.25
791.832	45.76
792.137	45.47
792.441	47.67
792.746	44.11
793.05	44.98
793.355	48.77
793.659	44.62
793.963	44.74
794.268	47.59
794.572	48.35
794.876	45.4
795.18	42.56
795.484	45.56
795.788	46.34
796.092	48.19
796.396	46.6
796.7	44.71
797.004	48.4
797.307	46.5
797.611	51.45
797.915	42.56
798.218	47.61
798.522	42.69
798.825	46.73
799.128	44.35
799.432	47.99
799.735	47.37
800.038	48.77
800.341	43.24
800.644	43.87
800.947	44.37
801.25	46.02
801.553	46.17
801.856	41.99
802.159	43.57
802.462	47.45
802.764	50.76
803.067	47.75
803.37	45
803.672	48.06
803.975	45.8
804.277	45.11
804.579	43.44
804.882	47.69
805.184	43.68
805.486	46.61
805.788	47.58
806.09	41.18
806.392	42.66
806.694	43.02
806.996	48.48
807.298	42.76
807.6	45.72
807.902	45.77
808.203	46.28
808.505	48.03
808.807	45.49
809.108	41.21
809.409	44.51
809.711	47.02
810.012	45.17
810.313	39.89
810.615	45.86
810.916	46.45
811.217	47.68
811.518	40.67
811.819	44.58
812.12	51.99
812.421	50.41
812.722	48.27
813.023	45.74
813.323	46.13
813.624	48.39
813.925	40.76
814.225	46.36
814.526	45.12
814.826	48.22
815.126	47.28
815.427	43.41
815.727	38.76
816.027	42.25
816.327	47.19
816.627	49.37
816.927	46.96
817.227	49.38
817.527	42.86
817.827	46.06
818.127	41.71
818.427	41.88
818.727	45.4
819.026	47.05
819.326	44.5
819.625	45.72
819.925	46.35
820.224	52.59
820.524	49.77
820.823	51.88
821.122	50.61
821.421	46.29
821.72	46.48
822.019	44.76
822.318	46.9
822.617	48.17
822.916	47.24
823.215	47.9
823.514	44.92
823.813	46.37
824.111	48.27
824.41	45.66
824.709	46.7
825.007	46.62
825.306	46.98
825.604	47.97
825.902	46.05
826.201	47.1
826.499	45.73
826.797	46.71
827.095	47.19
827.393	46.55
827.691	46.72
827.989	47.12
828.287	45.37
828.585	45.56
828.882	47.77
829.18	47.36
829.478	48.91
829.775	45.47
830.073	47.1
830.37	45.86
830.668	47.99
830.965	47.08
831.263	44.9
831.56	44.87
831.857	47.88
832.154	47.58
832.451	45.41
832.748	43.67
833.045	50.51
833.342	49.05
833.639	45.39
833.936	48.78
834.232	43.75
834.529	41.75
834.826	50.52
835.122	53.6
835.419	51.69
835.715	48.53
836.012	47.75
836.308	48.08
836.604	47.4
836.901	48.52
837.197	46.82
837.493	47.18
837.789	45.78
838.085	48.11
838.381	43.61
838.677	43.69
838.972	46.09
839.268	46.23
839.564	45.3
839.86	39.33
840.155	52.45
840.451	50.78
840.746	54.92
841.042	47.39
841.337	49.42
841.632	49.31
841.928	51.74
842.223	44.43
842.518	42.65
842.813	46.59
843.108	51.9
843.403	49.91
843.698	51.38
843.993	50.01
844.287	46.31
844.582	40.89
844.877	45.45
845.171	43.19
845.466	46.5
845.761	51.62
846.055	48.84
846.349	43.35
846.644	59.15
846.938	61.41
847.232	47.28
847.526	50.46
847.82	46.57
848.114	52.23
848.408	37
848.702	30.38
848.996	63.57
849.29	35.7
849.584	38.15
849.877	17.81
850.171	32.53
850.465	62.49
850.758	42.41
851.052	58.38
851.345	37.86
851.638	42.35
851.932	55.87
852.225	36.78
852.518	37.51
852.811	36.68
853.104	49.5
853.397	61.84
853.69	48.18
853.983	49.15
854.276	56.21
854.569	48.78
854.861	59.86
855.154	57.68
855.447	65.94
855.739	48.51
856.032	48.87
856.324	39.98
856.616	69.44
856.909	55.39
857.201	59.56
857.493	49.28
857.785	55.82
858.077	63.37
858.369	57.38
858.661	50.73
858.953	63.84
859.245	59.73
859.537	26.38
859.829	61.86
860.12	71.4
860.412	46.5
860.703	43.78
860.995	44.12
861.286	34.37
861.578	38.42
861.869	61.62
862.16	44.8
862.452	47.38
862.743	34.36
863.034	56.88
863.325	51.92
863.616	62.54
863.907	40.49
864.198	65.48
864.488	56.08
864.779	48.37
865.07	49.72
865.36	52.03
865.651	56.13
865.941	53.41
866.232	69.31
866.522	78.17
866.813	42.87
867.103	62.99
867.393	37.65
867.683	57.35
867.973	70.95
868.263	33.95
868.553	48.5
868.843	28.22
869.133	67.86
869.423	59.69
869.713	58.52
870.002	60.16
870.292	49.32
870.582	49.07
870.871	21.69
871.161	29.61
871.45	36.96
871.739	46.31
872.029	56.21
872.318	59.31
872.607	61.99
872.896	61.4
873.185	52.34
873.474	71.71
873.763	28.52
874.052	62.55
874.341	70.25
874.63	50.9
874.918	55.47
875.207	53.16
875.496	70.35
875.784	48.85
876.073	54.74
876.361	68.88
876.649	72.66
876.938	57.42
877.226	77.88
877.514	38.79
877.802	43.86
878.09	48.54
878.378	59.97
878.666	37.83
878.954	39.71
879.242	28.06
879.53	54.4
879.817	44.65
880.105	54.93
880.392	31.24
880.68	17.85
880.967	37.88
881.255	52.79
881.542	40.92
881.83	59.31
882.117	55.54
882.404	56.74
882.691	63.17
882.978	48.15
883.265	42.68
883.552	65.24
883.839	46.49
884.126	50.1
884.413	51.65
884.699	52.52
884.986	44.23
885.273	49.46
885.559	49.46
885.846	49.46
