Data from 428_crown_Reflection__0__82.txt Node

Date: Tue Dec 12 18:52:26 CST 2023
User: ToomeyLab
Spectrometer: FLMS14357
Trigger mode: 0
Integration Time (sec): 1.000000E-2
Scans to average: 100
Electric dark correction enabled: true
Nonlinearity correction enabled: false
Boxcar width: 0
XAxis mode: Wavelengths
Number of Pixels in Spectrum: 2048
>>>>>Begin Spectral Data<<<<<
189.047	-565.23
189.435	-565.23
189.823	-565.23
190.211	101.64
190.599	24.22
190.987	107.47
191.375	-15.93
191.763	-103.74
192.151	176.7
192.538	169.09
192.926	297.6
193.314	119.29
193.702	-44.93
194.089	-101.36
194.477	-220.73
194.864	-3.11
195.252	71.98
195.639	-3421.9
196.027	5.46
196.414	1733.11
196.801	-18
197.189	956.95
197.576	-4.2
197.963	11.99
198.351	8.87
198.738	20.25
199.125	13.1
199.512	-27.07
199.899	98.58
200.286	31.34
200.673	-5.8
201.06	-3.52
201.447	-51.88
201.833	-19.23
202.22	-19.33
202.607	-304.01
202.994	-7.3
203.38	19.83
203.767	-26.68
204.154	-0.36
204.54	40.91
204.927	-42.78
205.313	27.54
205.699	-1.72
206.086	-11.24
206.472	50.62
206.858	-8.01
207.245	12.4
207.631	2.14
208.017	34.51
208.403	-12.7
208.789	-19.9
209.175	5.44
209.561	4.75
209.947	13.87
210.333	11.36
210.719	-7.92
211.105	-0.44
211.491	20.34
211.876	25.95
212.262	2.72
212.648	-18.45
213.034	-40.82
213.419	10.19
213.805	20.52
214.19	38.16
214.576	14.89
214.961	-1.52
215.346	-11.97
215.732	15.73
216.117	-1.64
216.502	-25.34
216.888	-35.8
217.273	-24.32
217.658	-26.37
218.043	-31.2
218.428	-12.69
218.813	10.58
219.198	-34.09
219.583	12.34
219.968	33.23
220.353	-10.41
220.738	-3.37
221.122	1.84
221.507	-16.39
221.892	-1.95
222.276	11.44
222.661	3.96
223.046	-7.08
223.43	-10.95
223.815	-7.26
224.199	1.49
224.583	5.57
224.968	10.55
225.352	-1.43
225.736	3.76
226.121	-0.88
226.505	-1.81
226.889	1.62
227.273	4.41
227.657	9.65
228.041	5.76
228.425	-2.65
228.809	1.56
229.193	0.75
229.577	1.88
229.961	2.14
230.344	2.84
230.728	3.58
231.112	3.03
231.495	2.56
231.879	4.02
232.263	0.56
232.646	2.04
233.03	2.22
233.413	2.29
233.797	2.44
234.18	-0.08
234.563	0.85
234.946	3.33
235.33	2.63
235.713	3.64
236.096	2.91
236.479	2.56
236.862	1.62
237.245	1.61
237.628	1.73
238.011	3
238.394	2.44
238.777	4.53
239.16	1.18
239.543	1.43
239.925	5.04
240.308	1.78
240.691	3.37
241.073	2.83
241.456	3.2
241.838	2.81
242.221	3.82
242.603	2.91
242.986	2.35
243.368	2.46
243.75	2.06
244.133	2.51
244.515	2.74
244.897	2.99
245.279	3.06
245.661	2.12
246.043	1.74
246.425	3.36
246.807	1.8
247.189	2.54
247.571	3.31
247.953	2.62
248.335	2.6
248.717	2.59
249.098	2.58
249.48	2.15
249.862	2.48
250.243	2.66
250.625	3.01
251.006	2.53
251.388	2.39
251.769	2.34
252.151	1.61
252.532	3.85
252.913	3.67
253.295	2.69
253.676	2.35
254.057	2.28
254.438	3
254.819	2.4
255.2	1.89
255.581	2.62
255.962	1.91
256.343	1.43
256.724	1.97
257.105	3.3
257.486	2.62
257.867	2.1
258.247	2.07
258.628	2.94
259.009	1.42
259.389	2.43
259.77	2.52
260.15	2.53
260.531	2.91
260.911	3.09
261.292	2.28
261.672	2.32
262.052	2.37
262.432	2.45
262.813	2.76
263.193	2.13
263.573	2.52
263.953	2.94
264.333	2.96
264.713	2.77
265.093	2.04
265.473	2.96
265.853	2.82
266.233	2.38
266.612	1.46
266.992	2.42
267.372	2.67
267.752	2.69
268.131	1.45
268.511	1.8
268.89	2.04
269.27	1.65
269.649	1.87
270.029	2.34
270.408	2.75
270.787	2.49
271.167	2.25
271.546	1.78
271.925	2.42
272.304	2.65
272.683	2.23
273.062	2.44
273.441	2.26
273.82	1.96
274.199	2.2
274.578	2.18
274.957	2.17
275.336	2.35
275.715	2.45
276.093	1.9
276.472	2.8
276.851	2.81
277.229	1.3
277.608	2.72
277.986	1.93
278.365	2.54
278.743	2.18
279.122	2.42
279.5	2.1
279.878	2.25
280.257	2.41
280.635	2.56
281.013	2.05
281.391	1.93
281.769	2.04
282.147	2.29
282.525	1.75
282.903	2.5
283.281	2.04
283.659	2.36
284.037	2.82
284.415	1.99
284.792	2.36
285.17	2.18
285.548	2.19
285.925	2.15
286.303	2.09
286.68	2.27
287.058	2.8
287.435	2.6
287.813	1.95
288.19	2.01
288.567	2.12
288.945	2.2
289.322	1.7
289.699	2.02
290.076	2.34
290.453	2.57
290.83	2.24
291.207	2.95
291.584	2.47
291.961	2.69
292.338	2.43
292.715	2.52
293.092	1.88
293.469	1.98
293.845	2.01
294.222	1.95
294.599	2.13
294.975	2.34
295.352	2.14
295.728	2.79
296.105	2.68
296.481	2.4
296.858	1.73
297.234	2.36
297.61	2.33
297.986	2.53
298.363	2.43
298.739	2.2
299.115	2.15
299.491	2.39
299.867	2.32
300.243	2.14
300.619	2.59
300.995	2.36
301.371	2.37
301.746	2.41
302.122	3
302.498	2.49
302.874	2.6
303.249	3.15
303.625	2.12
304	2.16
304.376	2.37
304.751	2.43
305.127	2.53
305.502	2.41
305.878	2.35
306.253	2.38
306.628	2.69
307.003	2.54
307.378	2.65
307.754	2.67
308.129	2.95
308.504	3.42
308.879	1.92
309.254	2.73
309.629	2.45
310.003	2.63
310.378	2.83
310.753	2.51
311.128	2.54
311.502	1.88
311.877	2.5
312.252	2.08
312.626	2.35
313.001	2.6
313.375	2.16
313.75	2.83
314.124	2.89
314.498	2.7
314.873	2.43
315.247	2.69
315.621	2.15
315.995	2.8
316.369	2.5
316.743	1.79
317.117	2
317.491	2.98
317.865	2.62
318.239	2.37
318.613	3
318.987	3.66
319.361	2.28
319.734	2.67
320.108	3.17
320.482	2.57
320.855	1.93
321.229	3.21
321.602	2.97
321.976	3.23
322.349	3.58
322.723	2.28
323.096	3.06
323.469	2.54
323.843	3.98
324.216	2.21
324.589	2.48
324.962	3.08
325.335	3.23
325.708	2.76
326.081	3.24
326.454	2.61
326.827	3.15
327.2	2.7
327.573	2.1
327.945	2.39
328.318	3.04
328.691	2.09
329.063	2.87
329.436	3.04
329.809	2.83
330.181	2.37
330.553	2.23
330.926	2.93
331.298	2.18
331.671	2.63
332.043	3.19
332.415	2.69
332.787	2.24
333.159	2.76
333.532	2.84
333.904	2.72
334.276	3.15
334.648	2.34
335.02	2.73
335.391	2.65
335.763	2.86
336.135	3.02
336.507	3.04
336.879	2.58
337.25	2.75
337.622	2.69
337.993	2.55
338.365	2.46
338.736	3.05
339.108	2.7
339.479	3.35
339.851	2.4
340.222	2.48
340.593	2.43
340.964	2.52
341.336	3.28
341.707	2.4
342.078	2.41
342.449	2.54
342.82	2.72
343.191	3.06
343.562	2.78
343.933	3.01
344.303	3.22
344.674	3.01
345.045	2.6
345.416	2.54
345.786	2.56
346.157	2.59
346.527	3.13
346.898	2.33
347.268	2.63
347.639	3.09
348.009	2.38
348.38	2.48
348.75	3.08
349.12	2.98
349.49	2.34
349.861	2.58
350.231	2.77
350.601	2.81
350.971	2.88
351.341	3.08
351.711	3.11
352.081	2.54
352.45	2.47
352.82	3.68
353.19	2.57
353.56	2.88
353.929	2.3
354.299	2.46
354.669	2.79
355.038	2.3
355.408	2.75
355.777	3.5
356.147	2.46
356.516	2.62
356.885	2.68
357.254	2.56
357.624	2.82
357.993	2.55
358.362	2.8
358.731	2.72
359.1	2.31
359.469	2.19
359.838	2.44
360.207	2.67
360.576	3.06
360.945	2.44
361.314	2.77
361.682	2.54
362.051	2.81
362.42	2.92
362.788	2.59
363.157	2.91
363.525	2.61
363.894	2.75
364.262	2.96
364.631	2.54
364.999	2.91
365.367	2.91
365.735	2.36
366.104	2.71
366.472	2.61
366.84	2.91
367.208	2.66
367.576	2.61
367.944	2.89
368.312	2.63
368.68	2.59
369.048	2.95
369.416	2.84
369.783	2.95
370.151	2.52
370.519	2.75
370.886	3.03
371.254	2.77
371.621	3
371.989	2.55
372.356	2.81
372.724	2.37
373.091	2.61
373.458	3.02
373.826	2.85
374.193	2.95
374.56	3
374.927	2.98
375.294	2.86
375.661	3.1
376.028	2.87
376.395	3.22
376.762	3.2
377.129	2.81
377.496	2.78
377.863	2.89
378.229	2.79
378.596	2.6
378.963	3.21
379.329	2.6
379.696	2.52
380.062	3.25
380.429	2.84
380.795	3.02
381.161	2.97
381.528	2.9
381.894	3.11
382.26	2.84
382.626	2.87
382.993	3.11
383.359	2.66
383.725	2.84
384.091	2.92
384.457	2.61
384.823	3.08
385.188	2.89
385.554	2.91
385.92	2.77
386.286	3.27
386.651	2.97
387.017	3.06
387.383	2.97
387.748	2.84
388.114	2.9
388.479	2.98
388.845	3.16
389.21	2.9
389.575	3.05
389.94	2.87
390.306	2.94
390.671	2.86
391.036	2.89
391.401	2.67
391.766	3.03
392.131	3.07
392.496	3.06
392.861	2.88
393.226	3.08
393.591	2.71
393.956	2.79
394.32	2.88
394.685	3.2
395.05	2.86
395.414	3.01
395.779	2.96
396.143	2.92
396.508	2.88
396.872	2.7
397.236	2.98
397.601	2.97
397.965	2.9
398.329	3.04
398.694	2.69
399.058	3.2
399.422	2.79
399.786	3
400.15	2.92
400.514	3.03
400.878	3.06
401.242	2.97
401.605	2.98
401.969	2.84
402.333	2.92
402.697	2.79
403.06	2.75
403.424	2.9
403.787	2.96
404.151	2.94
404.514	2.7
404.878	2.99
405.241	2.93
405.604	2.88
405.968	2.85
406.331	3.1
406.694	3.15
407.057	2.57
407.42	2.99
407.783	2.81
408.146	2.93
408.509	2.97
408.872	2.91
409.235	2.84
409.598	2.78
409.961	2.88
410.323	3.11
410.686	3.08
411.049	3.09
411.411	3.11
411.774	3.07
412.136	2.94
412.499	3.07
412.861	2.95
413.223	3.25
413.586	2.71
413.948	2.93
414.31	3.05
414.672	2.91
415.035	3.02
415.397	2.72
415.759	3.04
416.121	3.14
416.483	2.92
416.845	2.64
417.206	3.11
417.568	2.9
417.93	3.03
418.292	2.86
418.653	2.84
419.015	2.89
419.377	2.98
419.738	2.75
420.1	2.86
420.461	2.99
420.822	2.93
421.184	2.9
421.545	3.02
421.906	2.98
422.267	2.85
422.629	2.94
422.99	2.9
423.351	2.98
423.712	2.84
424.073	2.9
424.434	2.84
424.795	3.02
425.155	2.68
425.516	2.66
425.877	2.88
426.238	2.76
426.598	2.83
426.959	2.82
427.32	2.85
427.68	2.87
428.041	2.97
428.401	2.86
428.761	2.94
429.122	3
429.482	3.08
429.842	3.02
430.202	3.01
430.563	3.09
430.923	2.97
431.283	2.97
431.643	2.96
432.003	2.92
432.363	2.9
432.722	2.77
433.082	2.99
433.442	2.93
433.802	2.97
434.161	2.92
434.521	2.97
434.881	2.98
435.24	3.09
435.6	2.96
435.959	2.98
436.319	3.01
436.678	3.01
437.037	2.9
437.396	2.89
437.756	3.05
438.115	3.11
438.474	3.01
438.833	3.09
439.192	3.14
439.551	3.21
439.91	2.96
440.269	2.93
440.628	2.91
440.987	2.93
441.345	3.03
441.704	2.85
442.063	2.97
442.421	3.04
442.78	3.03
443.138	2.97
443.497	3.05
443.855	2.95
444.214	2.96
444.572	3.05
444.93	3.07
445.288	2.82
445.647	3.04
446.005	2.95
446.363	2.78
446.721	2.93
447.079	3.06
447.437	2.78
447.795	3.05
448.153	2.94
448.51	2.95
448.868	3.03
449.226	3.03
449.584	2.95
449.941	2.94
450.299	3.06
450.656	2.94
451.014	3.13
451.371	2.93
451.729	3.04
452.086	3.06
452.443	3.27
452.801	3.06
453.158	2.88
453.515	3.09
453.872	2.99
454.229	3.08
454.586	2.87
454.943	2.93
455.3	3.05
455.657	2.89
456.014	3.12
456.371	3.25
456.727	3.1
457.084	3.11
457.441	2.99
457.797	3.02
458.154	3.15
458.51	2.94
458.867	3.2
459.223	3.08
459.58	3.02
459.936	2.87
460.292	2.92
460.648	3.14
461.005	3
461.361	3
461.717	3
462.073	2.94
462.429	2.93
462.785	2.97
463.141	3.02
463.496	3.01
463.852	3.23
464.208	3.05
464.564	3.1
464.919	3.19
465.275	3.19
465.631	3.12
465.986	3.05
466.342	2.98
466.697	3.01
467.052	3.37
467.408	3.05
467.763	3.15
468.118	3.03
468.473	3.23
468.829	3.26
469.184	3.01
469.539	3.21
469.894	3.08
470.249	3.23
470.603	3.2
470.958	3.1
471.313	3.21
471.668	3.33
472.023	3.05
472.377	3.04
472.732	3.05
473.086	3.1
473.441	3.36
473.795	3.17
474.15	3.05
474.504	2.99
474.859	3.18
475.213	2.92
475.567	3.04
475.921	3.11
476.275	3.05
476.63	3.2
476.984	3.22
477.338	3.01
477.692	3.12
478.045	3.1
478.399	3.19
478.753	3.13
479.107	3.22
479.461	3.15
479.814	3.09
480.168	3
480.521	2.99
480.875	3.1
481.228	3.17
481.582	3.21
481.935	3.19
482.289	3.14
482.642	3.24
482.995	3.09
483.348	3.08
483.701	3.26
484.055	3.11
484.408	3.01
484.761	3.04
485.114	2.98
485.466	2.89
485.819	2.89
486.172	2.88
486.525	2.95
486.878	2.99
487.23	2.95
487.583	2.95
487.936	3.04
488.288	2.95
488.641	2.94
488.993	3
489.345	3.01
489.698	2.98
490.05	3
490.402	2.99
490.754	2.98
491.107	3.02
491.459	3.07
491.811	3.13
492.163	3.05
492.515	3.06
492.866	2.99
493.218	2.98
493.57	2.98
493.922	2.98
494.274	3.04
494.625	3.07
494.977	3.08
495.328	3.23
495.68	3.15
496.031	3.21
496.383	3.18
496.734	3.24
497.086	3.21
497.437	3.14
497.788	3.13
498.139	3
498.49	3.15
498.842	3.09
499.193	3.08
499.544	3.24
499.894	3.19
500.245	3.25
500.596	3.15
500.947	3.08
501.298	3.21
501.648	3.28
501.999	3.16
502.35	3.06
502.7	3.14
503.051	3.12
503.401	3.13
503.752	3.43
504.102	3.24
504.452	3.2
504.803	3.29
505.153	3.2
505.503	3.26
505.853	3.24
506.203	3.28
506.553	3.15
506.903	3.23
507.253	3.24
507.603	3.23
507.953	3.16
508.303	3.22
508.652	3.11
509.002	3.2
509.352	3.22
509.701	3.21
510.051	3.27
510.4	3.16
510.75	3.17
511.099	3.18
511.449	3.19
511.798	3.09
512.147	3.25
512.496	3.27
512.846	3.18
513.195	3.12
513.544	3.13
513.893	3.26
514.242	3.18
514.591	3.17
514.939	3.21
515.288	3.11
515.637	3.06
515.986	3.23
516.334	3.28
516.683	3.1
517.032	3.18
517.38	3.14
517.729	3.22
518.077	3.17
518.426	3.2
518.774	3.27
519.122	3.24
519.47	3.29
519.819	3.16
520.167	3.12
520.515	3.11
520.863	3.15
521.211	3.15
521.559	3.2
521.907	3.09
522.255	3.2
522.602	3.18
522.95	3.16
523.298	3.18
523.645	3.33
523.993	3.3
524.341	3.32
524.688	3.18
525.036	3.3
525.383	3.17
525.73	3.17
526.078	3.2
526.425	3.18
526.772	3.17
527.119	3.15
527.466	3.16
527.814	3.12
528.161	3.2
528.508	3.18
528.854	3.11
529.201	3.11
529.548	3.14
529.895	3.06
530.242	2.99
530.588	3.03
530.935	3.04
531.282	3.05
531.628	3.12
531.975	3.08
532.321	3.11
532.667	3.11
533.014	3.2
533.36	3.19
533.706	3.12
534.052	3.12
534.399	3.06
534.745	3.12
535.091	3.04
535.437	3.14
535.783	3.1
536.129	3.19
536.474	3.17
536.82	3.27
537.166	3.26
537.512	3.24
537.857	3.19
538.203	3.13
538.549	3.07
538.894	3.14
539.239	3.2
539.585	3.17
539.93	3.22
540.276	3.32
540.621	3.23
540.966	3.27
541.311	3.24
541.656	3.2
542.001	3.24
542.346	3.2
542.691	3.15
543.036	3.05
543.381	2.98
543.726	3.13
544.071	3.1
544.415	3.12
544.76	3.14
545.105	3.19
545.449	3.21
545.794	3.29
546.138	3.01
546.483	3.22
546.827	3.26
547.171	3.26
547.516	3.26
547.86	3.23
548.204	3.21
548.548	3.2
548.892	3.25
549.236	3.26
549.58	3.2
549.924	3.16
550.268	3.42
550.612	3.22
550.956	3.37
551.3	3.37
551.643	3.27
551.987	3.41
552.33	3.41
552.674	3.5
553.017	3.57
553.361	3.46
553.704	3.33
554.048	3.41
554.391	3.39
554.734	3.34
555.077	3.44
555.42	3.2
555.764	3.39
556.107	3.43
556.45	3.26
556.793	3.32
557.135	3.39
557.478	3.32
557.821	3.43
558.164	3.49
558.507	3.46
558.849	3.37
559.192	3.38
559.534	3.34
559.877	3.36
560.219	3.42
560.562	3.26
560.904	3.47
561.246	3.39
561.589	3.33
561.931	3.4
562.273	3.29
562.615	3.43
562.957	3.33
563.299	3.39
563.641	3.51
563.983	3.38
564.325	3.35
564.667	3.42
565.008	3.26
565.35	3.32
565.692	3.27
566.033	3.52
566.375	3.09
566.716	3.17
567.058	3.39
567.399	3.41
567.741	3.4
568.082	3.18
568.423	3.39
568.764	3.4
569.105	3.21
569.447	3.35
569.788	3.47
570.129	3.21
570.47	3.45
570.811	3.24
571.151	3.39
571.492	3.59
571.833	3.36
572.174	3.37
572.514	3.3
572.855	3.28
573.195	3.31
573.536	3.2
573.876	3.3
574.217	3.41
574.557	3.31
574.898	3.43
575.238	3.54
575.578	3.29
575.918	3.23
576.258	3.39
576.598	3.25
576.938	3.4
577.278	3.35
577.618	3.22
577.958	3.23
578.298	3.47
578.638	3.31
578.977	3.42
579.317	3.31
579.657	3.44
579.996	3.55
580.336	3.32
580.675	3.47
581.014	3.49
581.354	3.4
581.693	3.35
582.032	3.28
582.372	3.53
582.711	3.36
583.05	3.52
583.389	3.3
583.728	3.37
584.067	3.63
584.406	3.55
584.745	3.58
585.083	3.42
585.422	3.49
585.761	3.72
586.1	3.35
586.438	3.49
586.777	3.53
587.115	3.51
587.454	3.69
587.792	3.15
588.13	3.45
588.469	3.62
588.807	3.36
589.145	3.44
589.483	3.33
589.821	3.47
590.159	3.46
590.497	3.4
590.835	3.41
591.173	3.34
591.511	3.61
591.849	3.34
592.187	3.42
592.524	3.38
592.862	3.34
593.2	3.37
593.537	3.36
593.875	3.55
594.212	3.37
594.55	3.77
594.887	3.67
595.224	3.4
595.561	3.66
595.899	3.36
596.236	3.25
596.573	3.55
596.91	3.53
597.247	3.28
597.584	3.35
597.921	3.56
598.258	3.44
598.594	3.71
598.931	3.3
599.268	3.32
599.604	3.38
599.941	3.51
600.277	3.31
600.614	3.5
600.95	3.59
601.287	3.4
601.623	3.35
601.959	3.45
602.296	3.73
602.632	3.29
602.968	3.48
603.304	3.34
603.64	3.61
603.976	3.44
604.312	3.46
604.648	3.53
604.984	3.62
605.319	3.33
605.655	3.47
605.991	3.45
606.326	3.32
606.662	3.42
606.998	3.26
607.333	3.48
607.668	3.47
608.004	3.36
608.339	3.49
608.674	3.64
609.01	3.15
609.345	3.48
609.68	3.51
610.015	3.23
610.35	3.6
610.685	3.58
611.02	3.64
611.355	3.34
611.689	3.45
612.024	3.32
612.359	3.69
612.694	3.38
613.028	3.73
613.363	3.29
613.697	3.55
614.032	3.72
614.366	3.7
614.7	3.49
615.035	3.42
615.369	3.53
615.703	3.6
616.037	3.55
616.371	3.4
616.705	3.43
617.039	3.34
617.373	3.69
617.707	3.23
618.041	3.51
618.375	3.34
618.709	3.27
619.042	3.45
619.376	2.99
619.71	3.36
620.043	3.39
620.377	3.51
620.71	3.28
621.043	3.31
621.377	3.23
621.71	3.45
622.043	3.45
622.376	3.63
622.709	3.65
623.043	3.49
623.376	3.93
623.709	3.84
624.041	3.67
624.374	3.5
624.707	3.13
625.04	3.28
625.373	3.99
625.705	3.82
626.038	3.84
626.37	3.74
626.703	3.71
627.035	3.42
627.368	3.6
627.7	3.33
628.032	3.28
628.365	3.73
628.697	3.61
629.029	3.47
629.361	3.3
629.693	3.31
630.025	3.4
630.357	3.6
630.689	3.34
631.021	3.94
631.353	3.74
631.684	3.58
632.016	3.29
632.348	3.56
632.679	3.17
633.011	4.01
633.342	3.64
633.674	3.69
634.005	3.81
634.336	3.52
634.668	3.53
634.999	3.63
635.33	3.69
635.661	3.65
635.992	3.57
636.323	3.5
636.654	3.77
636.985	3.8
637.316	3.5
637.647	3.66
637.977	3.79
638.308	3.7
638.639	3.49
638.969	2.96
639.3	3.59
639.63	3.78
639.961	3.8
640.291	3.43
640.622	3.4
640.952	3.73
641.282	3.61
641.612	3.36
641.943	3.6
642.273	3.92
642.603	4.12
642.933	3.52
643.263	3.55
643.592	3.88
643.922	4.12
644.252	3.86
644.582	2.8
644.911	3.47
645.241	3.12
645.571	4.05
645.9	3.34
646.23	3.24
646.559	3.9
646.888	3.77
647.218	4.1
647.547	3.86
647.876	3.59
648.205	3.81
648.534	4.1
648.863	4.03
649.192	4.28
649.521	4.5
649.85	3.25
650.179	3.68
650.508	4.03
650.837	3.75
651.165	3.34
651.494	3.48
651.822	3.63
652.151	3.66
652.479	3.76
652.808	3.69
653.136	4.3
653.465	3.82
653.793	3.87
654.121	3.98
654.449	3.59
654.777	4.16
655.105	3.67
655.433	3.72
655.761	3.75
656.089	3.64
656.417	4.14
656.745	3.78
657.073	3.36
657.4	3.72
657.728	3.21
658.056	3.6
658.383	3.02
658.711	3.41
659.038	3.52
659.365	3.87
659.693	3.26
660.02	3.18
660.347	3.65
660.674	3.41
661.001	3.62
661.329	3.66
661.656	3.79
661.982	3.36
662.309	4.06
662.636	3.85
662.963	3.66
663.29	4.16
663.616	3.67
663.943	4.07
664.27	4.17
664.596	3.71
664.923	3.67
665.249	2.98
665.576	3.99
665.902	3.48
666.228	4.19
666.554	3.14
666.881	3.05
667.207	3.68
667.533	4.3
667.859	4.03
668.185	4.28
668.511	3.59
668.837	3.73
669.162	4.08
669.488	3.57
669.814	4.04
670.139	3.58
670.465	3.27
670.791	3.94
671.116	3.21
671.442	3.75
671.767	3.72
672.092	4.59
672.418	3.21
672.743	4.25
673.068	3.23
673.393	3.78
673.718	4.38
674.043	3.68
674.368	2.71
674.693	3.5
675.018	2.89
675.343	3.33
675.667	3.88
675.992	3.56
676.317	3.4
676.641	3.54
676.966	4.16
677.29	3.62
677.615	3.43
677.939	3.65
678.264	3.9
678.588	4.37
678.912	4.28
679.236	3.15
679.56	3.82
679.885	4.25
680.209	3.8
680.532	3.92
680.856	3.46
681.18	3.48
681.504	3.78
681.828	3.66
682.152	3.22
682.475	4.11
682.799	3.84
683.122	3.78
683.446	3.8
683.769	4.75
684.093	3.49
684.416	4.05
684.739	4.28
685.062	3.78
685.386	4.45
685.709	4.18
686.032	3.78
686.355	3.77
686.678	3.94
687.001	4.2
687.324	3.4
687.646	4.19
687.969	3.24
688.292	3.33
688.614	3.77
688.937	4.07
689.26	3.56
689.582	3.65
689.904	4.24
690.227	4.21
690.549	3.87
690.871	3.88
691.194	4.22
691.516	4.08
691.838	3.52
692.16	3.84
692.482	3.51
692.804	4.61
693.126	3.16
693.448	3.63
693.769	3.89
694.091	3.3
694.413	4.68
694.735	4.19
695.056	3.94
695.378	4.38
695.699	3.47
696.021	3.25
696.342	4.06
696.663	3.98
696.984	2.82
697.306	3.77
697.627	3.56
697.948	3.9
698.269	4.06
698.59	4.26
698.911	4.03
699.232	2.9
699.553	3.43
699.873	4.48
700.194	4.06
700.515	4.31
700.835	3.67
701.156	3.87
701.477	3.98
701.797	3.8
702.117	3.53
702.438	4.18
702.758	4.07
703.078	4.55
703.398	3.85
703.719	4.11
704.039	4.11
704.359	4.16
704.679	3.85
704.999	4.51
705.319	3.77
705.638	4.66
705.958	3.32
706.278	5.26
706.597	5.15
706.917	4.3
707.237	4.22
707.556	4.69
707.876	3.67
708.195	3.91
708.514	4.41
708.834	4.75
709.153	4.44
709.472	4.75
709.791	4.25
710.11	4.66
710.429	4.51
710.748	2.49
711.067	4.16
711.386	3.41
711.705	4.84
712.023	4.86
712.342	4.64
712.661	3.9
712.979	4.8
713.298	4.22
713.616	4.09
713.935	4.43
714.253	3.93
714.572	3.47
714.89	5.09
715.208	4.3
715.526	5.05
715.844	5.22
716.162	4.89
716.48	4.61
716.798	4.24
717.116	4.88
717.434	3.61
717.752	3.58
718.069	4.21
718.387	4.7
718.705	4.14
719.022	5.05
719.34	3.54
719.657	4.88
719.975	4.3
720.292	5.05
720.609	4.27
720.927	3.17
721.244	4.09
721.561	4.32
721.878	3.56
722.195	3.1
722.512	5.02
722.829	4.06
723.146	3.68
723.463	4.54
723.779	3.84
724.096	4.39
724.413	3.34
724.729	3.35
725.046	4.6
725.362	4.81
725.679	2.7
725.995	3.82
726.311	3.83
726.628	4.34
726.944	3.89
727.26	4.78
727.576	3.62
727.892	4.11
728.208	4.39
728.524	4.54
728.84	4.86
729.156	3.51
729.472	5.93
729.787	4.31
730.103	4.38
730.419	3.62
730.734	2.91
731.05	5.38
731.365	4.97
731.681	4.09
731.996	4.93
732.311	5.11
732.626	4.88
732.942	4.65
733.257	3.83
733.572	3.91
733.887	4.75
734.202	5.45
734.517	2.98
734.832	5.1
735.146	5.56
735.461	4.5
735.776	3.6
736.091	3.6
736.405	4.09
736.72	3.92
737.034	4.51
737.349	3.09
737.663	4.51
737.977	3.01
738.292	3.86
738.606	2.91
738.92	4.58
739.234	3.64
739.548	4.28
739.862	4.42
740.176	2.9
740.49	4.6
740.804	5.03
741.117	4.14
741.431	5.31
741.745	5.9
742.058	5.49
742.372	5.01
742.685	3.01
742.999	4.43
743.312	4.16
743.626	4.22
743.939	5.77
744.252	5.33
744.565	4.21
744.878	3.83
745.191	3.78
745.505	4.61
745.817	6.54
746.13	4.63
746.443	3.06
746.756	5.7
747.069	5.95
747.381	3.65
747.694	3.35
748.007	3.04
748.319	4.73
748.632	5
748.944	2.25
749.256	5.35
749.569	4
749.881	4.71
750.193	3.4
750.505	5.54
750.817	4.18
751.129	5.56
751.441	5.34
751.753	6.2
752.065	5.1
752.377	5.35
752.689	3.98
753	3.15
753.312	4.59
753.624	4.61
753.935	4.02
754.247	4.85
754.558	4.42
754.869	3.55
755.181	4.95
755.492	4.2
755.803	4.11
756.114	3.85
756.425	5.25
756.736	3.65
757.047	3.71
757.358	5.06
757.669	5.48
757.98	5.32
758.291	2.04
758.601	5.26
758.912	5.38
759.223	3.36
759.533	3.04
759.844	3.44
760.154	7.03
760.464	4.11
760.775	5.95
761.085	4.22
761.395	4.6
761.705	5.35
762.016	5.74
762.326	4.29
762.636	4.54
762.945	4.37
763.255	6.38
763.565	4.15
763.875	3.83
764.185	4.11
764.494	4.56
764.804	2.48
765.113	6.71
765.423	4.15
765.732	3.94
766.042	4.61
766.351	4.44
766.66	3.71
766.97	4.84
767.279	2.75
767.588	4.34
767.897	6.27
768.206	6.04
768.515	5.36
768.824	5.91
769.133	5.46
769.441	4.85
769.75	2.88
770.059	4.14
770.367	3.89
770.676	6.85
770.984	6.32
771.293	6.39
771.601	1.84
771.91	5.96
772.218	5.1
772.526	1.54
772.834	4.57
773.142	6.1
773.45	5.84
773.758	2.61
774.066	5.8
774.374	0.33
774.682	5.34
774.99	-0.87
775.298	6.1
775.605	4.65
775.913	5.29
776.22	5.38
776.528	2.87
776.835	6.94
777.143	5.98
777.45	3.72
777.757	3.49
778.065	7.55
778.372	5.64
778.679	2.48
778.986	7
779.293	1.19
779.6	2.72
779.907	5.28
780.214	5.5
780.52	2.05
780.827	3.52
781.134	3.92
781.44	7.83
781.747	4.43
782.053	3.11
782.36	2.33
782.666	5.65
782.973	2.93
783.279	2.82
783.585	1.65
783.891	8.84
784.197	8.56
784.503	7.43
784.809	4.41
785.115	7.56
785.421	2.81
785.727	1.04
786.033	3.63
786.339	2.6
786.644	1.77
786.95	7.33
787.255	7.2
787.561	0.32
787.866	6.98
788.172	3.56
788.477	4.2
788.782	4.35
789.088	6.67
789.393	5.89
789.698	1.87
790.003	4.5
790.308	4.81
790.613	5.77
790.918	2.18
791.223	7.28
791.527	8.8
791.832	10.28
792.137	2.55
792.441	6.22
792.746	7.86
793.05	8.05
793.355	3.78
793.659	6.44
793.963	6.34
794.268	4.37
794.572	5.91
794.876	3.49
795.18	4.04
795.484	3.48
795.788	8.06
796.092	-1.16
796.396	7.21
796.7	-2.16
797.004	4.38
797.307	0.85
797.611	2.69
797.915	5.47
798.218	1.44
798.522	0.75
798.825	8.81
799.128	6.82
799.432	9.04
799.735	4.53
800.038	7.23
800.341	6.53
800.644	6.51
800.947	10.42
801.25	2.92
801.553	-0.97
801.856	4.52
802.159	4.77
802.462	8.27
802.764	6.03
803.067	5.25
803.37	-5.1
803.672	-2.27
803.975	-1.17
804.277	8.48
804.579	-3.41
804.882	5.63
805.184	3.74
805.486	2.02
805.788	7.69
806.09	2
806.392	-1.48
806.694	7.82
806.996	-4.61
807.298	2.92
807.6	4.72
807.902	3.65
808.203	7.65
808.505	6.1
808.807	4.43
809.108	1.61
809.409	4.5
809.711	3.65
810.012	2.04
810.313	3.48
810.615	2.62
810.916	0.87
811.217	4.64
811.518	-8.33
811.819	5.18
812.12	10.35
812.421	-0.47
812.722	7.49
813.023	3.79
813.323	3.64
813.624	-0.55
813.925	12.27
814.225	-0.35
814.526	6.32
814.826	10.01
815.126	-1.09
815.427	4.19
815.727	1.17
816.027	4.55
816.327	4.82
816.627	15.66
816.927	12.51
817.227	-2.32
817.527	9.51
817.827	3.43
818.127	10.7
818.427	1.34
818.727	-3.95
819.026	2.74
819.326	9.1
819.625	-1.19
819.925	3.88
820.224	-0.34
820.524	3.62
820.823	8.1
821.122	2.59
821.421	1.92
821.72	3.57
822.019	0.79
822.318	0.41
822.617	7.54
822.916	-3.77
823.215	4.29
823.514	5.96
823.813	5.67
824.111	2.99
824.41	4.29
824.709	5.16
825.007	6.61
825.306	5.44
825.604	5.16
825.902	6.15
826.201	6.31
826.499	5.94
826.797	7.16
827.095	7.32
827.393	5.99
827.691	5.64
827.989	3.69
828.287	6.55
828.585	9.28
828.882	6.2
829.18	9.74
829.478	6.14
829.775	8.18
830.073	6.29
830.37	8.6
830.668	7.12
830.965	6.57
831.263	6.87
831.56	7.4
831.857	2.3
832.154	5.67
832.451	5.6
832.748	4.84
833.045	3.09
833.342	4.4
833.639	10.09
833.936	3.76
834.232	6.31
834.529	5.08
834.826	5.01
835.122	4.78
835.419	7.4
835.715	5.99
836.012	5.28
836.308	1.92
836.604	5.09
836.901	6.79
837.197	7.59
837.493	4.91
837.789	7.86
838.085	5.36
838.381	5.71
838.677	6.98
838.972	9.07
839.268	0.51
839.564	2.45
839.86	8.2
840.155	1.4
840.451	7.78
840.746	21.12
841.042	3.89
841.337	6.55
841.632	5.47
841.928	6.95
842.223	11.83
842.518	-2.33
842.813	4.67
843.108	-3.81
843.403	1.77
843.698	8.46
843.993	3.11
844.287	3.51
844.582	5.56
844.877	5.13
845.171	3.79
845.466	0.02
845.761	-0.24
846.055	5.38
846.349	2.48
846.644	6.05
846.938	17.51
847.232	7.2
847.526	5.61
847.82	14.96
848.114	18.83
848.408	-4
848.702	4.89
848.996	6.8
849.29	2.7
849.584	4.36
849.877	7.49
850.171	4.4
850.465	-9.37
850.758	17.32
851.052	2.53
851.345	13.57
851.638	18.41
851.932	7.58
852.225	-26.92
852.518	25.4
852.811	6.41
853.104	-15.37
853.397	16.6
853.69	-3.23
853.983	14.92
854.276	4.4
854.569	15.77
854.861	-2.73
855.154	21.1
855.447	-1.59
855.739	7.32
856.032	-3.49
856.324	0.32
856.616	-9.85
856.909	-11.92
857.201	10.43
857.493	-38.27
857.785	-7.61
858.077	-8.71
858.369	12.56
858.661	1.21
858.953	8.36
859.245	-7.53
859.537	38.57
859.829	5.55
860.12	-29.18
860.412	-40.04
860.703	1.75
860.995	40.26
861.286	-11.19
861.578	26.9
861.869	6.93
862.16	-5.13
862.452	-1.72
862.743	-24.33
863.034	24.8
863.325	12.34
863.616	11.1
863.907	17.64
864.198	3.39
864.488	20.54
864.779	14.99
865.07	-31.97
865.36	4.15
865.651	-29.2
865.941	-25.73
866.232	-25.08
866.522	-6.5
866.813	0.63
867.103	9.04
867.393	-12.21
867.683	-19.34
867.973	30.69
868.263	-12.99
868.553	28.2
868.843	-21.48
869.133	1.88
869.423	6.98
869.713	16.67
870.002	-33.49
870.292	12.68
870.582	0.14
870.871	-9.6
871.161	-1.35
871.45	5.23
871.739	-11.34
872.029	-17.81
872.318	8.29
872.607	3.08
872.896	26.48
873.185	-13.33
873.474	15.57
873.763	5.12
874.052	-11.42
874.341	-16.69
874.63	32.26
874.918	-30.98
875.207	3.53
875.496	45.39
875.784	23.5
876.073	-10.79
876.361	11.84
876.649	12.7
876.938	0.33
877.226	6.55
877.514	-102.02
877.802	31.64
878.09	-14.57
878.378	11.46
878.666	12.94
878.954	16.9
879.242	0.16
879.53	-10.9
879.817	-1.84
880.105	1.88
880.392	18.4
880.68	7.32
880.967	20.51
881.255	25.08
881.542	9.95
881.83	24.08
882.117	-14.38
882.404	7.24
882.691	-9.08
882.978	-12.18
883.265	0.04
883.552	8.96
883.839	30.28
884.126	21.73
884.413	-5.42
884.699	9.4
884.986	6.54
885.273	8.88
885.559	8.88
885.846	8.88
