Data from 428_crown_Reflection__3__85.txt Node

Date: Tue Dec 12 18:52:53 CST 2023
User: ToomeyLab
Spectrometer: FLMS14357
Trigger mode: 0
Integration Time (sec): 1.000000E-2
Scans to average: 100
Electric dark correction enabled: true
Nonlinearity correction enabled: false
Boxcar width: 0
XAxis mode: Wavelengths
Number of Pixels in Spectrum: 2048
>>>>>Begin Spectral Data<<<<<
189.047	-190.9
189.435	-190.9
189.823	-190.9
190.211	83.25
190.599	60.3
190.987	103.29
191.375	-16.02
191.763	-326.32
192.151	138.15
192.538	-134.68
192.926	419.37
193.314	143.55
193.702	120.92
194.089	267.74
194.477	205.73
194.864	114.45
195.252	13.93
195.639	1087.62
196.027	27.03
196.414	-3733.77
196.801	100.87
197.189	71.53
197.576	10.84
197.963	1.18
198.351	5.87
198.738	37.09
199.125	130.69
199.512	-12.28
199.899	0.78
200.286	7.15
200.673	-31.82
201.06	-17.24
201.447	-110.75
201.833	-55.29
202.22	40.11
202.607	-360.82
202.994	-40.25
203.38	34.41
203.767	14.43
204.154	30.23
204.54	25.38
204.927	8.09
205.313	34.74
205.699	-1.99
206.086	-26.15
206.472	24.44
206.858	3.8
207.245	11.1
207.631	6.16
208.017	-3.71
208.403	-33.99
208.789	31.86
209.175	9.59
209.561	38.65
209.947	-7.52
210.333	29.95
210.719	-13
211.105	3.35
211.491	12.47
211.876	18.61
212.262	-5.19
212.648	-18.86
213.034	-36.02
213.419	-1.97
213.805	8.39
214.19	11.84
214.576	17.36
214.961	7.65
215.346	-12.48
215.732	22.11
216.117	52.58
216.502	-15.58
216.888	-11.02
217.273	-34.95
217.658	-58.21
218.043	-37.07
218.428	11.14
218.813	17.71
219.198	-55.84
219.583	17.22
219.968	-1.48
220.353	-21.05
220.738	15.4
221.122	-14.8
221.507	-9.69
221.892	-6.53
222.276	7.72
222.661	1.93
223.046	-14.96
223.43	-6.87
223.815	-2.36
224.199	7.58
224.583	7.62
224.968	12.12
225.352	-6.52
225.736	11.83
226.121	-2.18
226.505	-2.77
226.889	-0.84
227.273	8
227.657	10.18
228.041	3.37
228.425	1.68
228.809	5.49
229.193	-0.1
229.577	4.82
229.961	1.9
230.344	2.73
230.728	4.01
231.112	3.34
231.495	2.72
231.879	3.38
232.263	2.36
232.646	1.23
233.03	3.26
233.413	1.37
233.797	2.48
234.18	-2.17
234.563	1.13
234.946	5.17
235.33	4.24
235.713	2.48
236.096	2.05
236.479	2.67
236.862	3.61
237.245	3.74
237.628	3.07
238.011	3.76
238.394	1.89
238.777	3.85
239.16	2.49
239.543	2.2
239.925	2.19
240.308	3.05
240.691	3.43
241.073	3.59
241.456	2.63
241.838	1.57
242.221	2.87
242.603	3.78
242.986	1.71
243.368	3.49
243.75	2.54
244.133	2.37
244.515	2.88
244.897	3.42
245.279	3.31
245.661	2.6
246.043	2.12
246.425	3.84
246.807	3.26
247.189	3.74
247.571	2.79
247.953	2.21
248.335	2.63
248.717	2.73
249.098	3.13
249.48	2.82
249.862	2.49
250.243	2.46
250.625	3.37
251.006	2.8
251.388	2.37
251.769	2.27
252.151	2.57
252.532	2.32
252.913	2.93
253.295	2.64
253.676	2.39
254.057	1.75
254.438	3.16
254.819	2.52
255.2	2.35
255.581	1.95
255.962	1.17
256.343	0.83
256.724	2.37
257.105	3.89
257.486	2.44
257.867	2.19
258.247	2.72
258.628	2.86
259.009	1.8
259.389	3.23
259.77	2.43
260.15	2.58
260.531	3.39
260.911	2.84
261.292	2.27
261.672	2.41
262.052	2.49
262.432	2.67
262.813	2.78
263.193	3.13
263.573	2.55
263.953	3.75
264.333	3.79
264.713	2.6
265.093	3.17
265.473	3.16
265.853	1.51
266.233	1.22
266.612	2.09
266.992	2.9
267.372	2.4
267.752	3.92
268.131	1.91
268.511	2.27
268.89	1.64
269.27	2.04
269.649	2.47
270.029	2.98
270.408	2.78
270.787	2.41
271.167	3.05
271.546	2.76
271.925	3.04
272.304	3.34
272.683	2
273.062	2.49
273.441	2.99
273.82	2.36
274.199	2.38
274.578	2.4
274.957	2.48
275.336	2.37
275.715	2.28
276.093	1.66
276.472	2.35
276.851	2.63
277.229	2.16
277.608	3.09
277.986	2.29
278.365	2.84
278.743	2.97
279.122	3.2
279.5	1.93
279.878	1.61
280.257	1.81
280.635	2.12
281.013	2.19
281.391	2.7
281.769	1.93
282.147	2.28
282.525	1.62
282.903	2.66
283.281	1.7
283.659	2.09
284.037	2.8
284.415	2.52
284.792	2.95
285.17	2.11
285.548	2.85
285.925	2.23
286.303	2.45
286.68	2.56
287.058	2.9
287.435	2.03
287.813	2.34
288.19	2.24
288.567	2.23
288.945	2.5
289.322	1.59
289.699	2.3
290.076	2.7
290.453	3.26
290.83	2.41
291.207	2.43
291.584	2.33
291.961	2.46
292.338	2.86
292.715	2.46
293.092	2.34
293.469	2.59
293.845	1.91
294.222	2.1
294.599	2.87
294.975	1.94
295.352	2.37
295.728	2.53
296.105	2.42
296.481	2.97
296.858	2.61
297.234	2.33
297.61	2.78
297.986	3.01
298.363	2.53
298.739	2.36
299.115	2.35
299.491	2.38
299.867	2.46
300.243	2.37
300.619	2.34
300.995	2.6
301.371	2.86
301.746	2.4
302.122	3.42
302.498	2.82
302.874	2.87
303.249	3.16
303.625	2.48
304	2.82
304.376	2.61
304.751	3.05
305.127	2.12
305.502	2.68
305.878	2.38
306.253	2.23
306.628	2.7
307.003	2.69
307.378	2.59
307.754	2.69
308.129	2.6
308.504	3.18
308.879	2.43
309.254	2.94
309.629	2.35
310.003	2.44
310.378	2.57
310.753	3.03
311.128	3.16
311.502	2.06
311.877	2.4
312.252	2.27
312.626	2.62
313.001	2.57
313.375	2.18
313.75	2.96
314.124	2.94
314.498	2.69
314.873	2.97
315.247	2.55
315.621	2.36
315.995	3.13
316.369	2.89
316.743	2.48
317.117	2.12
317.491	2.67
317.865	2.57
318.239	2.6
318.613	2.76
318.987	3.41
319.361	2.6
319.734	2.64
320.108	2.59
320.482	2.28
320.855	2.11
321.229	2.73
321.602	2.73
321.976	2.69
322.349	2.84
322.723	2.24
323.096	2.23
323.469	2.54
323.843	3.83
324.216	2.75
324.589	2.94
324.962	2.82
325.335	3.12
325.708	2.87
326.081	2.88
326.454	2.47
326.827	3.15
327.2	3.25
327.573	2.29
327.945	3.22
328.318	2.93
328.691	1.81
329.063	2.92
329.436	3.17
329.809	2.82
330.181	2.19
330.553	2.92
330.926	2.91
331.298	2.68
331.671	3.32
332.043	2.66
332.415	2.58
332.787	2.86
333.159	2.64
333.532	2.99
333.904	2.57
334.276	3.18
334.648	2.36
335.02	2.19
335.391	2.71
335.763	2.48
336.135	3.1
336.507	3.16
336.879	2.85
337.25	2.66
337.622	2.8
337.993	2.53
338.365	2.75
338.736	3.05
339.108	2.31
339.479	3.08
339.851	1.81
340.222	2.4
340.593	2.81
340.964	2.48
341.336	2.74
341.707	1.97
342.078	2.24
342.449	2.15
342.82	2.87
343.191	2.78
343.562	2.91
343.933	3.11
344.303	2.94
344.674	3.15
345.045	2.69
345.416	2.77
345.786	2.88
346.157	2.98
346.527	3.13
346.898	2.57
347.268	2.65
347.639	2.68
348.009	2.71
348.38	2.52
348.75	3.19
349.12	3.54
349.49	2.39
349.861	3.15
350.231	3.24
350.601	2.87
350.971	2.76
351.341	2.39
351.711	2.47
352.081	3.06
352.45	2.5
352.82	2.99
353.19	2.62
353.56	2.2
353.929	2.63
354.299	2.76
354.669	2.45
355.038	2.45
355.408	2.66
355.777	3.31
356.147	2.26
356.516	2.92
356.885	2.74
357.254	2.69
357.624	2.76
357.993	2.48
358.362	2.84
358.731	2.85
359.1	2.45
359.469	2.77
359.838	2.62
360.207	2.5
360.576	3.16
360.945	2.42
361.314	2.76
361.682	2.91
362.051	2.68
362.42	2.97
362.788	2.68
363.157	3.21
363.525	2.97
363.894	2.42
364.262	2.54
364.631	2.64
364.999	2.73
365.367	2.91
365.735	2.7
366.104	2.88
366.472	2.91
366.84	3.11
367.208	2.76
367.576	2.58
367.944	2.93
368.312	2.79
368.68	2.79
369.048	2.63
369.416	2.63
369.783	2.83
370.151	2.72
370.519	2.47
370.886	3.11
371.254	2.88
371.621	3.31
371.989	2.7
372.356	2.98
372.724	2.88
373.091	2.86
373.458	2.89
373.826	2.81
374.193	2.5
374.56	2.97
374.927	3.07
375.294	2.71
375.661	3.17
376.028	2.91
376.395	2.67
376.762	3.19
377.129	2.92
377.496	2.89
377.863	3.17
378.229	3
378.596	2.64
378.963	3.04
379.329	2.82
379.696	2.84
380.062	3.13
380.429	3.08
380.795	3.28
381.161	2.92
381.528	2.75
381.894	3.49
382.26	2.96
382.626	2.89
382.993	3.18
383.359	2.73
383.725	2.97
384.091	3.14
384.457	2.84
384.823	3.12
385.188	2.91
385.554	2.98
385.92	2.85
386.286	3.14
386.651	3.08
387.017	3.37
387.383	2.88
387.748	2.97
388.114	2.78
388.479	3.09
388.845	3.04
389.21	2.76
389.575	2.72
389.94	3.16
390.306	3.05
390.671	2.87
391.036	3
391.401	3.05
391.766	2.89
392.131	2.87
392.496	2.54
392.861	2.69
393.226	3.17
393.591	2.75
393.956	3.02
394.32	3.11
394.685	2.98
395.05	2.88
395.414	3.16
395.779	2.91
396.143	3.25
396.508	2.91
396.872	2.63
397.236	2.82
397.601	2.95
397.965	2.98
398.329	3.03
398.694	2.67
399.058	3.11
399.422	2.76
399.786	3.18
400.15	2.79
400.514	3.25
400.878	3
401.242	2.86
401.605	3.19
401.969	2.91
402.333	3.17
402.697	2.84
403.06	2.84
403.424	3.01
403.787	2.89
404.151	3.45
404.514	2.6
404.878	2.89
405.241	3.07
405.604	2.81
405.968	2.91
406.331	3.2
406.694	3.04
407.057	2.69
407.42	3.04
407.783	2.77
408.146	2.86
408.509	2.9
408.872	3.01
409.235	2.84
409.598	2.87
409.961	2.96
410.323	2.98
410.686	2.85
411.049	2.74
411.411	3.15
411.774	3.21
412.136	3.26
412.499	2.96
412.861	2.92
413.223	3.33
413.586	2.87
413.948	3.04
414.31	2.99
414.672	3.04
415.035	2.97
415.397	3.04
415.759	2.93
416.121	2.94
416.483	2.98
416.845	3
417.206	3.11
417.568	3.1
417.93	3.28
418.292	2.8
418.653	3.15
419.015	2.89
419.377	3.09
419.738	2.94
420.1	2.83
420.461	2.97
420.822	2.96
421.184	2.92
421.545	3.2
421.906	3.02
422.267	2.9
422.629	2.93
422.99	2.83
423.351	2.81
423.712	2.85
424.073	2.98
424.434	3.04
424.795	3.05
425.155	2.83
425.516	2.85
425.877	2.95
426.238	2.96
426.598	2.97
426.959	2.95
427.32	2.93
427.68	2.99
428.041	2.99
428.401	3.05
428.761	3.13
429.122	3.13
429.482	3.23
429.842	3.06
430.202	2.92
430.563	2.98
430.923	3.08
431.283	2.87
431.643	3.11
432.003	2.77
432.363	3.2
432.722	2.93
433.082	3.17
433.442	3.12
433.802	3.14
434.161	2.94
434.521	3.23
434.881	3.11
435.24	3.15
435.6	3.14
435.959	3.14
436.319	2.99
436.678	3.23
437.037	3.02
437.396	3.01
437.756	2.96
438.115	3.16
438.474	3.08
438.833	3.23
439.192	3.06
439.551	3.1
439.91	3.1
440.269	3
440.628	3
440.987	3
441.345	3.12
441.704	3
442.063	3.16
442.421	3.16
442.78	3.05
443.138	2.97
443.497	3.04
443.855	3.16
444.214	3.12
444.572	3.15
444.93	3.13
445.288	2.95
445.647	3.19
446.005	3.07
446.363	3.03
446.721	3.01
447.079	3.03
447.437	2.87
447.795	3.09
448.153	3
448.51	3.02
448.868	3.01
449.226	3.12
449.584	3.01
449.941	3.07
450.299	3.13
450.656	3.02
451.014	3.07
451.371	3.04
451.729	3.14
452.086	2.93
452.443	3.17
452.801	3.36
453.158	3.07
453.515	3.13
453.872	3.01
454.229	3.08
454.586	2.97
454.943	3.04
455.3	3.12
455.657	3.19
456.014	3.23
456.371	3.07
456.727	3.27
457.084	3.11
457.441	3.22
457.797	3.14
458.154	3.08
458.51	3.12
458.867	3.29
459.223	3.11
459.58	3.02
459.936	2.82
460.292	3.09
460.648	3.18
461.005	3.03
461.361	3.02
461.717	3.08
462.073	3.14
462.429	3.08
462.785	3.06
463.141	3.11
463.496	3.11
463.852	3.34
464.208	3.21
464.564	2.99
464.919	3.52
465.275	3.04
465.631	3.24
465.986	3.1
466.342	2.98
466.697	3.13
467.052	3.38
467.408	3.23
467.763	3.23
468.118	3.06
468.473	3.11
468.829	3.09
469.184	3.09
469.539	3.35
469.894	3.25
470.249	3.3
470.603	3.3
470.958	3.2
471.313	3.47
471.668	3.29
472.023	3.21
472.377	3.25
472.732	3.25
473.086	3.27
473.441	3.42
473.795	3.3
474.15	3.23
474.504	3.18
474.859	3.27
475.213	3.23
475.567	3.24
475.921	3.28
476.275	3.01
476.63	3.14
476.984	3.31
477.338	3.21
477.692	3.26
478.045	3.22
478.399	3.16
478.753	3.25
479.107	3.27
479.461	3.18
479.814	3.26
480.168	3.16
480.521	3.11
480.875	3.24
481.228	3.2
481.582	3.26
481.935	3.26
482.289	3.28
482.642	3.31
482.995	3.23
483.348	3.19
483.701	3.23
484.055	3.19
484.408	3.09
484.761	3.1
485.114	2.98
485.466	2.97
485.819	2.93
486.172	2.95
486.525	3.02
486.878	3.09
487.23	3.05
487.583	2.99
487.936	3.13
488.288	3.05
488.641	3.04
488.993	3.01
489.345	3.04
489.698	3.02
490.05	3.08
490.402	3.05
490.754	3.12
491.107	3.1
491.459	3.11
491.811	3.21
492.163	3.06
492.515	3.21
492.866	3.07
493.218	3.02
493.57	3.03
493.922	2.98
494.274	3.09
494.625	3.23
494.977	3.28
495.328	3.3
495.68	3.19
496.031	3.28
496.383	3.21
496.734	3.26
497.086	3.17
497.437	3.3
497.788	3.19
498.139	3.15
498.49	3.31
498.842	3.19
499.193	3.26
499.544	3.25
499.894	3.26
500.245	3.31
500.596	3.26
500.947	3.29
501.298	3.23
501.648	3.29
501.999	3.22
502.35	3.26
502.7	3.19
503.051	3.2
503.401	3.32
503.752	3.41
504.102	3.24
504.452	3.37
504.803	3.28
505.153	3.32
505.503	3.25
505.853	3.25
506.203	3.31
506.553	3.1
506.903	3.31
507.253	3.3
507.603	3.26
507.953	3.3
508.303	3.28
508.652	3.34
509.002	3.31
509.352	3.32
509.701	3.35
510.051	3.32
510.4	3.27
510.75	3.15
511.099	3.15
511.449	3.28
511.798	3.18
512.147	3.3
512.496	3.35
512.846	3.28
513.195	3.17
513.544	3.31
513.893	3.21
514.242	3.24
514.591	3.18
514.939	3.32
515.288	3.27
515.637	3.22
515.986	3.31
516.334	3.32
516.683	3.22
517.032	3.33
517.38	3.29
517.729	3.32
518.077	3.24
518.426	3.23
518.774	3.12
519.122	3.34
519.47	3.25
519.819	3.17
520.167	3.15
520.515	3.2
520.863	3.24
521.211	3.17
521.559	3.35
521.907	3.27
522.255	3.28
522.602	3.38
522.95	3.29
523.298	3.18
523.645	3.34
523.993	3.3
524.341	3.26
524.688	3.23
525.036	3.38
525.383	3.25
525.73	3.13
526.078	3.25
526.425	3.22
526.772	3.29
527.119	3.21
527.466	3.2
527.814	3.13
528.161	3.24
528.508	3.29
528.854	3.26
529.201	3.25
529.548	3.2
529.895	3.17
530.242	3.01
530.588	3.07
530.935	3.1
531.282	3.15
531.628	3.2
531.975	3.23
532.321	3.21
532.667	3.13
533.014	3.19
533.36	3.21
533.706	3.21
534.052	3.21
534.399	3.24
534.745	3.22
535.091	3.16
535.437	3.23
535.783	3.15
536.129	3.26
536.474	3.28
536.82	3.25
537.166	3.41
537.512	3.27
537.857	3.28
538.203	3.22
538.549	3.32
538.894	3.29
539.239	3.23
539.585	3.26
539.93	3.44
540.276	3.25
540.621	3.34
540.966	3.24
541.311	3.26
541.656	3.41
542.001	3.29
542.346	3.28
542.691	3.16
543.036	3.14
543.381	3.07
543.726	3.18
544.071	3.21
544.415	3.16
544.76	3.2
545.105	3.23
545.449	3.34
545.794	3.33
546.138	3.22
546.483	3.32
546.827	3.36
547.171	3.41
547.516	3.25
547.86	3.3
548.204	3.27
548.548	3.31
548.892	3.26
549.236	3.19
549.58	3.3
549.924	3.32
550.268	3.34
550.612	3.24
550.956	3.38
551.3	3.5
551.643	3.38
551.987	3.51
552.33	3.36
552.674	3.48
553.017	3.5
553.361	3.53
553.704	3.18
554.048	3.38
554.391	3.37
554.734	3.36
555.077	3.4
555.42	3.16
555.764	3.52
556.107	3.5
556.45	3.41
556.793	3.34
557.135	3.29
557.478	3.35
557.821	3.4
558.164	3.32
558.507	3.46
558.849	3.47
559.192	3.29
559.534	3.39
559.877	3.63
560.219	3.4
560.562	3.38
560.904	3.27
561.246	3.47
561.589	3.59
561.931	3.42
562.273	3.45
562.615	3.37
562.957	3.46
563.299	3.49
563.641	3.52
563.983	3.3
564.325	3.47
564.667	3.57
565.008	3.19
565.35	3.38
565.692	3.29
566.033	3.48
566.375	3.13
566.716	3.31
567.058	3.58
567.399	3.39
567.741	3.46
568.082	3.36
568.423	3.46
568.764	3.53
569.105	3.45
569.447	3.55
569.788	3.44
570.129	3.38
570.47	3.45
570.811	3.46
571.151	3.45
571.492	3.39
571.833	3.37
572.174	3.47
572.514	3.44
572.855	3.4
573.195	3.33
573.536	3.33
573.876	3.3
574.217	3.31
574.557	3.28
574.898	3.49
575.238	3.43
575.578	3.42
575.918	3.33
576.258	3.45
576.598	3.35
576.938	3.45
577.278	3.59
577.618	3.39
577.958	3.4
578.298	3.53
578.638	3.29
578.977	3.31
579.317	3.4
579.657	3.42
579.996	3.47
580.336	3.58
580.675	3.42
581.014	3.62
581.354	3.39
581.693	3.48
582.032	3.4
582.372	3.43
582.711	3.4
583.05	3.46
583.389	3.5
583.728	3.34
584.067	3.28
584.406	3.64
584.745	3.52
585.083	3.23
585.422	3.7
585.761	3.56
586.1	3.39
586.438	3.64
586.777	3.47
587.115	3.32
587.454	3.5
587.792	3.15
588.13	3.63
588.469	3.55
588.807	3.28
589.145	3.63
589.483	3.54
589.821	3.55
590.159	3.42
590.497	3.29
590.835	3.67
591.173	3.32
591.511	3.47
591.849	3.33
592.187	3.6
592.524	3.33
592.862	3.51
593.2	3.34
593.537	3.2
593.875	3.59
594.212	3.27
594.55	3.44
594.887	3.71
595.224	3.41
595.561	3.64
595.899	3.3
596.236	3.45
596.573	3.46
596.91	3.76
597.247	3.38
597.584	3.41
597.921	3.59
598.258	3.68
598.594	3.63
598.931	3.46
599.268	3.3
599.604	3.66
599.941	3.53
600.277	3.69
600.614	3.83
600.95	3.7
601.287	3.33
601.623	3.49
601.959	3.67
602.296	3.84
602.632	3.35
602.968	3.52
603.304	3.39
603.64	3.77
603.976	3.42
604.312	3.6
604.648	3.59
604.984	3.37
605.319	3.4
605.655	3.31
605.991	3.58
606.326	3.38
606.662	3.56
606.998	3.23
607.333	3.3
607.668	3.47
608.004	3.47
608.339	3.45
608.674	3.51
609.01	3.58
609.345	3.68
609.68	3.68
610.015	3.4
610.35	3.77
610.685	3.34
611.02	3.65
611.355	3.27
611.689	3.57
612.024	3.41
612.359	3.51
612.694	3.52
613.028	3.55
613.363	3.55
613.697	3.62
614.032	3.68
614.366	3.94
614.7	3.66
615.035	3.68
615.369	3.42
615.703	3.64
616.037	3.56
616.371	3.34
616.705	3.57
617.039	3.49
617.373	3.71
617.707	3.47
618.041	3.72
618.375	3.08
618.709	3.45
619.042	3.49
619.376	3.31
619.71	3.52
620.043	3.54
620.377	3.54
620.71	3.05
621.043	3.27
621.377	3.1
621.71	3.74
622.043	3.65
622.376	3.61
622.709	3.57
623.043	3.41
623.376	4.04
623.709	3.56
624.041	3.49
624.374	3
624.707	3.65
625.04	3.64
625.373	3.92
625.705	3.76
626.038	3.51
626.37	3.58
626.703	3.81
627.035	3.65
627.368	3.65
627.7	3.62
628.032	3.47
628.365	3.53
628.697	3.6
629.029	3.18
629.361	3.55
629.693	3.27
630.025	3.39
630.357	3.46
630.689	3.4
631.021	3.55
631.353	3.69
631.684	3.65
632.016	3.51
632.348	3.85
632.679	3.27
633.011	3.72
633.342	4.01
633.674	3.89
634.005	3.6
634.336	3.77
634.668	3.77
634.999	3.64
635.33	3.64
635.661	3.63
635.992	3.6
636.323	3.16
636.654	3.58
636.985	3.71
637.316	3.7
637.647	3.72
637.977	3.58
638.308	3.77
638.639	3.6
638.969	3.8
639.3	3.61
639.63	3.76
639.961	4
640.291	3.31
640.622	3.63
640.952	3.56
641.282	3.29
641.612	3.96
641.943	3.61
642.273	4.12
642.603	4.14
642.933	3.21
643.263	3.28
643.592	3.97
643.922	3.96
644.252	3.39
644.582	3.51
644.911	3.74
645.241	3.19
645.571	4.25
645.9	3.48
646.23	3.32
646.559	3.93
646.888	3.69
647.218	3.89
647.547	3.44
647.876	4.04
648.205	3.82
648.534	3.77
648.863	3.6
649.192	4.44
649.521	3.79
649.85	3.31
650.179	4.6
650.508	3.89
650.837	3.75
651.165	3.63
651.494	3.57
651.822	3.81
652.151	3.96
652.479	3.58
652.808	3.68
653.136	3.98
653.465	3.72
653.793	3.64
654.121	4.05
654.449	3.39
654.777	4.1
655.105	4.08
655.433	3.9
655.761	3.77
656.089	3.88
656.417	3.86
656.745	3.96
657.073	3.51
657.4	3.94
657.728	2.91
658.056	3.54
658.383	2.99
658.711	3.87
659.038	3.51
659.365	3.65
659.693	3.79
660.02	3.79
660.347	3.3
660.674	3.74
661.001	3.71
661.329	4.11
661.656	3.68
661.982	3.56
662.309	3.93
662.636	3.9
662.963	3.92
663.29	4.1
663.616	3.63
663.943	3.99
664.27	3.93
664.596	3.56
664.923	4.35
665.249	3.09
665.576	3.79
665.902	3.74
666.228	4.14
666.554	3.69
666.881	3.97
667.207	3.69
667.533	3.59
667.859	3.49
668.185	3.57
668.511	3.86
668.837	4.2
669.162	4.57
669.488	3.67
669.814	4.11
670.139	4.14
670.465	3.62
670.791	3.48
671.116	3.29
671.442	3.37
671.767	3.71
672.092	4.54
672.418	3.65
672.743	3.83
673.068	3.37
673.393	3.83
673.718	4.05
674.043	3.65
674.368	2.98
674.693	3.35
675.018	3.39
675.343	3.98
675.667	4.12
675.992	3.56
676.317	2.81
676.641	3.41
676.966	3.95
677.29	3.57
677.615	3.6
677.939	3.56
678.264	3.82
678.588	3.91
678.912	3.9
679.236	4.03
679.56	3.6
679.885	4.47
680.209	4.25
680.532	3.82
680.856	3.42
681.18	3.55
681.504	3.52
681.828	4.26
682.152	3.61
682.475	4.01
682.799	3.99
683.122	4.15
683.446	3.81
683.769	4.79
684.093	3.54
684.416	3.99
684.739	4.6
685.062	4.07
685.386	4.45
685.709	4.08
686.032	3.9
686.355	3.72
686.678	4.15
687.001	3.04
687.324	3.98
687.646	3.61
687.969	3.99
688.292	3.59
688.614	4
688.937	3.93
689.26	4.63
689.582	3.89
689.904	3.91
690.227	4.11
690.549	4.21
690.871	3.44
691.194	3.9
691.516	3.69
691.838	3.3
692.16	4.8
692.482	3.73
692.804	3.68
693.126	4.34
693.448	3.5
693.769	4.15
694.091	4.66
694.413	4.32
694.735	3.65
695.056	4.24
695.378	4.43
695.699	4.62
696.021	2.51
696.342	3.42
696.663	3.28
696.984	2.81
697.306	3.99
697.627	3.19
697.948	4.23
698.269	3.92
698.59	4.74
698.911	4.38
699.232	3.13
699.553	3.68
699.873	4.8
700.194	4.53
700.515	3.94
700.835	3.78
701.156	3.77
701.477	4.5
701.797	3.99
702.117	3.8
702.438	4.57
702.758	3.49
703.078	4.11
703.398	4.07
703.719	3.3
704.039	3.43
704.359	3.73
704.679	4.27
704.999	3.96
705.319	3.45
705.638	4.81
705.958	4.8
706.278	5.94
706.597	3.47
706.917	3.99
707.237	4.46
707.556	4.63
707.876	4.16
708.195	5.43
708.514	4.32
708.834	5.43
709.153	4.18
709.472	3.68
709.791	4.81
710.11	4.07
710.429	4.45
710.748	3.79
711.067	5.03
711.386	3.75
711.705	5.39
712.023	3.71
712.342	4.69
712.661	4.2
712.979	3.98
713.298	4.9
713.616	3.64
713.935	4.09
714.253	4.43
714.572	3.34
714.89	4.16
715.208	4.19
715.526	3.78
715.844	3.44
716.162	3.37
716.48	3.91
716.798	3.91
717.116	5.5
717.434	2.81
717.752	3.3
718.069	3.96
718.387	4.39
718.705	4.47
719.022	4.06
719.34	3.76
719.657	4.25
719.975	4.48
720.292	4.95
720.609	4.21
720.927	3.64
721.244	3.66
721.561	5.15
721.878	3.19
722.195	3.38
722.512	4.12
722.829	3.63
723.146	4.09
723.463	4.01
723.779	4.71
724.096	4.03
724.413	4.04
724.729	3.46
725.046	4.67
725.362	3.65
725.679	4.04
725.995	4.46
726.311	4.33
726.628	5.22
726.944	5.1
727.26	4.06
727.576	3
727.892	3.41
728.208	4.2
728.524	4.66
728.84	3.7
729.156	3.77
729.472	4.81
729.787	3.4
730.103	4.64
730.419	3.67
730.734	3.03
731.05	4.01
731.365	4.44
731.681	5.08
731.996	4.61
732.311	5.04
732.626	4.04
732.942	5.49
733.257	4.28
733.572	5.29
733.887	6.29
734.202	5.1
734.517	4.33
734.832	5.62
735.146	5.71
735.461	5.09
735.776	3.71
736.091	3.69
736.405	2.74
736.72	4.08
737.034	5.31
737.349	3.45
737.663	5.98
737.977	3.5
738.292	4.31
738.606	1.98
738.92	3.64
739.234	4.04
739.548	5.98
739.862	5.36
740.176	2.69
740.49	4.56
740.804	5
741.117	3.57
741.431	4.73
741.745	5.76
742.058	4.76
742.372	4.03
742.685	4.98
742.999	2.93
743.312	5.23
743.626	3.76
743.939	6.6
744.252	3.76
744.565	5.59
744.878	3.84
745.191	5.6
745.505	5.23
745.817	5.21
746.13	2.56
746.443	3.36
746.756	3.59
747.069	4.17
747.381	2.76
747.694	4.19
748.007	3.88
748.319	2.74
748.632	6.38
748.944	3.94
749.256	4.77
749.569	4.94
749.881	5.2
750.193	5.07
750.505	3.5
750.817	3.46
751.129	4.8
751.441	5.86
751.753	6.18
752.065	3.59
752.377	6.48
752.689	4.33
753	3.97
753.312	5.07
753.624	5.63
753.935	4.19
754.247	3.91
754.558	6.45
754.869	3.56
755.181	5.35
755.492	4.66
755.803	3.72
756.114	3.75
756.425	4.86
756.736	5.76
757.047	3.57
757.358	4.17
757.669	6.56
757.98	3.6
758.291	3.44
758.601	6.22
758.912	3.78
759.223	3.45
759.533	3.28
759.844	4.87
760.154	5.57
760.464	3.24
760.775	5.79
761.085	1.89
761.395	4.44
761.705	5.14
762.016	4
762.326	3.86
762.636	5.47
762.945	5.26
763.255	4.76
763.565	2.46
763.875	5.01
764.185	4.19
764.494	5.55
764.804	3.13
765.113	6.25
765.423	5.88
765.732	4.33
766.042	5.52
766.351	5.03
766.66	4.3
766.97	5.05
767.279	2.86
767.588	4.61
767.897	6
768.206	4.71
768.515	4.97
768.824	5.94
769.133	7.22
769.441	4.96
769.75	4.15
770.059	4.21
770.367	1.68
770.676	6.82
770.984	6.56
771.293	7.5
771.601	2.63
771.91	5.76
772.218	4.1
772.526	4.27
772.834	2.77
773.142	2.92
773.45	7.31
773.758	5.39
774.066	7.25
774.374	0.5
774.682	6.43
774.99	-1.24
775.298	5.32
775.605	4.26
775.913	5.22
776.22	1.11
776.528	3.52
776.835	4.47
777.143	8.92
777.45	5
777.757	4.59
778.065	5.49
778.372	5.66
778.679	5.93
778.986	5.78
779.293	7.77
779.6	5.95
779.907	0.89
780.214	6.87
780.52	4.24
780.827	6.44
781.134	8.38
781.44	8.3
781.747	5.31
782.053	5.17
782.36	3.78
782.666	5.51
782.973	2.48
783.279	6.95
783.585	-1.7
783.891	6.4
784.197	10.19
784.503	4.47
784.809	7.45
785.115	7.15
785.421	10.08
785.727	4.47
786.033	3.58
786.339	1.74
786.644	4.58
786.95	7.31
787.255	7.21
787.561	4.66
787.866	4.94
788.172	4.01
788.477	4.22
788.782	5.99
789.088	9
789.393	4.61
789.698	3.66
790.003	5.73
790.308	7.27
790.613	3.82
790.918	3.57
791.223	3.94
791.527	2.77
791.832	4.45
792.137	3.65
792.441	6.15
792.746	7.87
793.05	10.99
793.355	8.59
793.659	7.5
793.963	3.48
794.268	5.55
794.572	5.39
794.876	4.81
795.18	0.97
795.484	6.77
795.788	7.3
796.092	-3.13
796.396	3.51
796.7	0.62
797.004	1.96
797.307	2.42
797.611	-0.58
797.915	4.75
798.218	4.42
798.522	2.06
798.825	8.4
799.128	7.97
799.432	5.82
799.735	1.96
800.038	11.37
800.341	11.71
800.644	3.5
800.947	3.08
801.25	5.87
801.553	1.63
801.856	4.99
802.159	7.17
802.462	10.16
802.764	8.43
803.067	3.24
803.37	1.71
803.672	1.48
803.975	0.66
804.277	5.71
804.579	2.63
804.882	9.71
805.184	1.76
805.486	0.56
805.788	2.44
806.09	2.51
806.392	8.29
806.694	2.53
806.996	-0.01
807.298	9.25
807.6	7.93
807.902	8.46
808.203	6.58
808.505	6.25
808.807	6.18
809.108	0.44
809.409	3.64
809.711	1.48
810.012	3.77
810.313	5.84
810.615	7.23
810.916	5.67
811.217	1.35
811.518	-1.54
811.819	1.55
812.12	4.29
812.421	5.67
812.722	8.27
813.023	-9.26
813.323	6.69
813.624	7.7
813.925	15.28
814.225	4.82
814.526	5.34
814.826	9.85
815.126	-7.97
815.427	2.49
815.727	2.43
816.027	7.99
816.327	2.52
816.627	9.06
816.927	16.42
817.227	7.27
817.527	5.26
817.827	3.34
818.127	9.95
818.427	-0.78
818.727	-10.91
819.026	7.28
819.326	1.32
819.625	-4.6
819.925	8.68
820.224	2.69
820.524	0.12
820.823	15.08
821.122	17.84
821.421	5.6
821.72	0.71
822.019	1.45
822.318	6.77
822.617	10.54
822.916	1.88
823.215	5.32
823.514	5.78
823.813	3.43
824.111	7.32
824.41	7.51
824.709	5.72
825.007	5.85
825.306	6.87
825.604	6
825.902	6.85
826.201	6.91
826.499	5.92
826.797	6.74
827.095	7.22
827.393	6.94
827.691	6.83
827.989	4.71
828.287	6.28
828.585	7.99
828.882	3.8
829.18	7.37
829.478	8
829.775	6.37
830.073	5.38
830.37	7.74
830.668	6.2
830.965	10.44
831.263	8.35
831.56	4.84
831.857	2.86
832.154	5.08
832.451	3.77
832.748	5.05
833.045	8.21
833.342	10.72
833.639	8.85
833.936	11.56
834.232	10.6
834.529	3.18
834.826	8.95
835.122	9.02
835.419	8.32
835.715	2.48
836.012	-0.69
836.308	4.04
836.604	10.33
836.901	8.57
837.197	8.91
837.493	6.04
837.789	4.81
838.085	6.31
838.381	6.69
838.677	5.1
838.972	7.19
839.268	-1.87
839.564	4.65
839.86	12.25
840.155	0.96
840.451	-0.73
840.746	10.73
841.042	3.35
841.337	5.6
841.632	5.81
841.928	3.6
842.223	13.25
842.518	9.14
842.813	18.8
843.108	-1.14
843.403	-2.91
843.698	8.92
843.993	1.04
844.287	6.75
844.582	3.64
844.877	12.5
845.171	3.08
845.466	3.16
845.761	6.34
846.055	2.99
846.349	9.41
846.644	10.4
846.938	-4.18
847.232	1.43
847.526	10.54
847.82	13.67
848.114	21.08
848.408	-9.78
848.702	20.04
848.996	17.43
849.29	12.56
849.584	-4.5
849.877	18.52
850.171	-12.01
850.465	12.26
850.758	5.37
851.052	-5.55
851.345	6.39
851.638	23.43
851.932	-8.18
852.225	3.68
852.518	32.55
852.811	11.48
853.104	-10.2
853.397	14.23
853.69	-9.29
853.983	17
854.276	-6.78
854.569	14.05
854.861	-4.18
855.154	22.88
855.447	5.33
855.739	21.25
856.032	-2.6
856.324	6.04
856.616	11.77
856.909	-5.41
857.201	25.24
857.493	-31.89
857.785	12.37
858.077	-9.53
858.369	-7.03
858.661	4.06
858.953	17.06
859.245	0.3
859.537	14.15
859.829	2.05
860.12	2.38
860.412	-27.83
860.703	9.42
860.995	-2.59
861.286	-8.17
861.578	0.91
861.869	32.61
862.16	-1.9
862.452	-0.45
862.743	-6.77
863.034	32.32
863.325	17.58
863.616	23.65
863.907	36.31
864.198	18.38
864.488	6.46
864.779	-5.38
865.07	11.36
865.36	32.5
865.651	-25.66
865.941	-4.61
866.232	5.28
866.522	-22.76
866.813	29.62
867.103	18.11
867.393	-10.12
867.683	-23.75
867.973	32.3
868.263	6.92
868.553	0.9
868.843	1.66
869.133	-11.84
869.423	14.52
869.713	-3.84
870.002	-43.22
870.292	13.62
870.582	16.38
870.871	25.73
871.161	-6.59
871.45	22.1
871.739	7.83
872.029	14.27
872.318	31.89
872.607	-8.23
872.896	-11.69
873.185	-37.69
873.474	-12.93
873.763	4.2
874.052	23.03
874.341	21.14
874.63	41.95
874.918	-13.27
875.207	9.37
875.496	11.4
875.784	38.27
876.073	0.64
876.361	13.56
876.649	24.27
876.938	24.25
877.226	-19.67
877.514	-78.96
877.802	-12.08
878.09	-3.32
878.378	9.57
878.666	25.78
878.954	21.34
879.242	15.6
879.53	-14.61
879.817	-12.73
880.105	8.32
880.392	35.71
880.68	17.91
880.967	27.17
881.255	-18.34
881.542	7.06
881.83	5.64
882.117	-10.61
882.404	4.7
882.691	-35.79
882.978	-21.48
883.265	-27.69
883.552	-5.66
883.839	-7.97
884.126	28.66
884.413	6.59
884.699	12.81
884.986	2.97
885.273	4.79
885.559	4.79
885.846	4.79
