Data from 0360_crown_Reflection__0__36.txt Node

Date: Mon Dec 11 18:00:22 CST 2023
User: ToomeyLab
Spectrometer: FLMS14357
Trigger mode: 0
Integration Time (sec): 1.000000E-2
Scans to average: 100
Electric dark correction enabled: true
Nonlinearity correction enabled: false
Boxcar width: 0
XAxis mode: Wavelengths
Number of Pixels in Spectrum: 2048
>>>>>Begin Spectral Data<<<<<
189.047	-114.65
189.435	-114.65
189.823	-114.65
190.211	-26.98
190.599	53.8
190.987	38.41
191.375	152.23
191.763	100.14
192.151	11.25
192.538	114.71
192.926	128.74
193.314	-201.35
193.702	69.26
194.089	433.8
194.477	65.6
194.864	37.3
195.252	17.83
195.639	-490.89
196.027	60.99
196.414	-114.41
196.801	247.8
197.189	-110.24
197.576	314.86
197.963	13.09
198.351	4.65
198.738	13.6
199.125	-31.6
199.512	-27.19
199.899	20.96
200.286	13.12
200.673	-175.27
201.06	38.52
201.447	8.03
201.833	15.7
202.22	18.67
202.607	-14.69
202.994	-65.91
203.38	-50.13
203.767	49.59
204.154	30.39
204.54	-22.89
204.927	-6.47
205.313	9.27
205.699	-7.57
206.086	-3.32
206.472	1.1
206.858	35.48
207.245	10.05
207.631	19.19
208.017	6
208.403	-6.72
208.789	0.13
209.175	7.56
209.561	-4.17
209.947	-18.2
210.333	31.75
210.719	19.39
211.105	-0.27
211.491	30.22
211.876	16.94
212.262	8.86
212.648	-33.97
213.034	-1.95
213.419	-33.35
213.805	3.24
214.19	-13.66
214.576	-4.48
214.961	4.15
215.346	-5.33
215.732	8.88
216.117	-11.73
216.502	-4.27
216.888	5.9
217.273	13.58
217.658	18.49
218.043	-6.18
218.428	12.15
218.813	-1.5
219.198	-2.5
219.583	3.28
219.968	-4.46
220.353	-9.95
220.738	22
221.122	6.68
221.507	21.48
221.892	-2.97
222.276	8.62
222.661	-0.74
223.046	-9.48
223.43	6.03
223.815	-18.11
224.199	1.93
224.583	3.8
224.968	8.22
225.352	5.4
225.736	4.98
226.121	-0.7
226.505	-3.85
226.889	7.48
227.273	3.48
227.657	11.8
228.041	7.72
228.425	1.57
228.809	2.17
229.193	2.66
229.577	5.52
229.961	2.64
230.344	2.69
230.728	3.22
231.112	3.04
231.495	2.87
231.879	2.84
232.263	1.89
232.646	2.39
233.03	1.97
233.413	2.66
233.797	3.27
234.18	1.49
234.563	3.74
234.946	3.39
235.33	4.25
235.713	2.34
236.096	2.8
236.479	2.9
236.862	0.6
237.245	3.22
237.628	1.59
238.011	2.21
238.394	3.4
238.777	2.79
239.16	2.65
239.543	2.91
239.925	2.75
240.308	3.2
240.691	0.89
241.073	1.96
241.456	3.55
241.838	5.17
242.221	3.31
242.603	1.87
242.986	2.53
243.368	1.84
243.75	2.79
244.133	2.87
244.515	2.77
244.897	2.76
245.279	3.05
245.661	2.73
246.043	3.46
246.425	2.75
246.807	2.76
247.189	3.46
247.571	2.23
247.953	2.57
248.335	2.76
248.717	2.94
249.098	2.84
249.48	2.88
249.862	3.4
250.243	2.65
250.625	2.72
251.006	2.12
251.388	2
251.769	2.55
252.151	3.13
252.532	3.15
252.913	3.01
253.295	3.75
253.676	2.08
254.057	2.66
254.438	3.42
254.819	2.15
255.2	2.03
255.581	1.72
255.962	2.31
256.343	2.79
256.724	2.78
257.105	2.31
257.486	2.13
257.867	3
258.247	2.76
258.628	2.82
259.009	3.24
259.389	3.6
259.77	2.87
260.15	2.42
260.531	2.84
260.911	1.9
261.292	2.22
261.672	2.72
262.052	2.69
262.432	2.57
262.813	2.53
263.193	2.38
263.573	2.47
263.953	2.56
264.333	1.85
264.713	2.79
265.093	2.61
265.473	2.34
265.853	2.91
266.233	1.98
266.612	3.33
266.992	2.67
267.372	3.06
267.752	2.75
268.131	2.72
268.511	2.21
268.89	2.75
269.27	3.06
269.649	2.46
270.029	3.03
270.408	2.36
270.787	2.33
271.167	1.58
271.546	2.17
271.925	2.14
272.304	2.57
272.683	2.27
273.062	1.91
273.441	2.4
273.82	2.32
274.199	2.41
274.578	2.44
274.957	2.88
275.336	2.35
275.715	2.26
276.093	3.12
276.472	2.1
276.851	2.74
277.229	2.53
277.608	2.71
277.986	2.73
278.365	2.22
278.743	2.07
279.122	2.09
279.5	2.8
279.878	2.47
280.257	2.38
280.635	2.03
281.013	2.33
281.391	2.64
281.769	2.12
282.147	2.29
282.525	2.03
282.903	2.75
283.281	2.02
283.659	2.38
284.037	2.35
284.415	2.24
284.792	3.03
285.17	2.07
285.548	2.27
285.925	1.73
286.303	2.35
286.68	2.62
287.058	2.63
287.435	2.48
287.813	2.5
288.19	2.35
288.567	2.26
288.945	2.12
289.322	2.18
289.699	2.09
290.076	2.32
290.453	2.32
290.83	2.71
291.207	2.18
291.584	2.26
291.961	2.25
292.338	2.14
292.715	2.69
293.092	2.65
293.469	2.41
293.845	2.03
294.222	2.63
294.599	2.06
294.975	2.68
295.352	2.6
295.728	2.37
296.105	1.96
296.481	1.96
296.858	2.32
297.234	2.53
297.61	2.38
297.986	2.61
298.363	2.46
298.739	2.51
299.115	2.27
299.491	2.46
299.867	2.56
300.243	2.52
300.619	2.2
300.995	2.24
301.371	1.91
301.746	2.17
302.122	2.24
302.498	2.31
302.874	2.44
303.249	2.4
303.625	2.12
304	2.65
304.376	2.34
304.751	2.64
305.127	2.5
305.502	2.48
305.878	2.06
306.253	2.75
306.628	2.72
307.003	2.79
307.378	2.12
307.754	2.72
308.129	2.04
308.504	2.12
308.879	2.12
309.254	2.71
309.629	2.68
310.003	2.29
310.378	2.29
310.753	2.44
311.128	2.38
311.502	1.93
311.877	2.39
312.252	2.7
312.626	2.45
313.001	2.46
313.375	2.17
313.75	2.29
314.124	2.67
314.498	2.06
314.873	2.28
315.247	2.59
315.621	2.91
315.995	2.41
316.369	2.44
316.743	2.69
317.117	2.4
317.491	3.06
317.865	2.23
318.239	2.52
318.613	2.41
318.987	2.34
319.361	2.87
319.734	2.3
320.108	2.22
320.482	2.28
320.855	2.43
321.229	2.55
321.602	2
321.976	3.02
322.349	2.21
322.723	2.28
323.096	2.28
323.469	3.08
323.843	2.95
324.216	2.88
324.589	2.58
324.962	2.79
325.335	2.1
325.708	2.42
326.081	2.7
326.454	2.34
326.827	2.17
327.2	1.92
327.573	2.87
327.945	2.78
328.318	2.92
328.691	2.24
329.063	2.78
329.436	2.06
329.809	1.91
330.181	2.78
330.553	2.2
330.926	2.18
331.298	2.87
331.671	2.09
332.043	2.39
332.415	2.38
332.787	2.8
333.159	2.53
333.532	2.67
333.904	2.63
334.276	2.51
334.648	2.75
335.02	2.75
335.391	2.42
335.763	2.38
336.135	2.85
336.507	2.75
336.879	3.03
337.25	2.7
337.622	2.53
337.993	3
338.365	2.26
338.736	2.65
339.108	2.85
339.479	2.35
339.851	2.5
340.222	2.45
340.593	2.15
340.964	2.5
341.336	2.48
341.707	2.4
342.078	2.8
342.449	2.22
342.82	1.98
343.191	2.21
343.562	2.79
343.933	2.32
344.303	2.04
344.674	2.53
345.045	2.93
345.416	2.05
345.786	3.04
346.157	2.73
346.527	2.55
346.898	2.51
347.268	2.65
347.639	2.42
348.009	2.46
348.38	1.96
348.75	2.44
349.12	2.78
349.49	2.25
349.861	2.51
350.231	2.43
350.601	2.78
350.971	2.65
351.341	2.22
351.711	2.42
352.081	2.19
352.45	2.42
352.82	2.01
353.19	2.35
353.56	2.23
353.929	2.66
354.299	2.49
354.669	2.68
355.038	2.47
355.408	2.12
355.777	2.48
356.147	2.55
356.516	2.48
356.885	2.03
357.254	2.78
357.624	2.48
357.993	2.35
358.362	2.63
358.731	2.34
359.1	2.43
359.469	2.56
359.838	2.49
360.207	2.73
360.576	2.66
360.945	2.81
361.314	2.68
361.682	2.59
362.051	2.69
362.42	2.52
362.788	2.2
363.157	2.4
363.525	2.31
363.894	2.38
364.262	2.45
364.631	2.48
364.999	2.59
365.367	2.93
365.735	2.51
366.104	2.49
366.472	2.63
366.84	2.46
367.208	2.62
367.576	3.05
367.944	2.79
368.312	2.6
368.68	2.72
369.048	2.63
369.416	2.21
369.783	2.6
370.151	2.96
370.519	2.91
370.886	2.62
371.254	2.92
371.621	2.82
371.989	2.84
372.356	2.87
372.724	2.85
373.091	2.92
373.458	2.73
373.826	2.79
374.193	2.83
374.56	2.9
374.927	2.7
375.294	2.78
375.661	2.53
376.028	2.59
376.395	2.64
376.762	2.64
377.129	2.8
377.496	2.81
377.863	2.79
378.229	2.51
378.596	2.68
378.963	3.01
379.329	2.76
379.696	2.98
380.062	2.43
380.429	2.8
380.795	2.84
381.161	2.61
381.528	2.91
381.894	2.95
382.26	2.83
382.626	2.92
382.993	2.89
383.359	2.94
383.725	2.8
384.091	2.75
384.457	2.55
384.823	2.96
385.188	2.76
385.554	2.43
385.92	2.65
386.286	2.79
386.651	2.56
387.017	2.82
387.383	2.67
387.748	2.79
388.114	2.8
388.479	2.71
388.845	2.72
389.21	2.62
389.575	2.73
389.94	2.78
390.306	2.81
390.671	2.86
391.036	3.05
391.401	2.93
391.766	2.82
392.131	2.76
392.496	2.82
392.861	2.78
393.226	2.82
393.591	2.88
393.956	2.69
394.32	3.06
394.685	2.76
395.05	3.07
395.414	2.71
395.779	2.45
396.143	2.8
396.508	2.88
396.872	2.66
397.236	2.82
397.601	2.72
397.965	2.79
398.329	2.8
398.694	2.68
399.058	2.86
399.422	2.84
399.786	2.8
400.15	2.69
400.514	2.92
400.878	2.75
401.242	2.76
401.605	2.92
401.969	2.67
402.333	2.42
402.697	2.79
403.06	2.87
403.424	3
403.787	3.02
404.151	2.83
404.514	2.62
404.878	2.9
405.241	2.82
405.604	2.96
405.968	2.61
406.331	2.64
406.694	2.85
407.057	2.95
407.42	2.93
407.783	2.9
408.146	2.85
408.509	2.63
408.872	2.71
409.235	2.77
409.598	2.89
409.961	2.89
410.323	2.92
410.686	2.99
411.049	2.76
411.411	2.87
411.774	3.09
412.136	2.74
412.499	2.89
412.861	2.76
413.223	2.96
413.586	2.97
413.948	2.9
414.31	2.55
414.672	2.55
415.035	2.75
415.397	2.57
415.759	2.93
416.121	2.85
416.483	2.74
416.845	2.87
417.206	2.81
417.568	2.98
417.93	2.94
418.292	2.71
418.653	2.73
419.015	2.63
419.377	2.96
419.738	2.96
420.1	2.77
420.461	2.82
420.822	2.83
421.184	2.74
421.545	2.73
421.906	2.76
422.267	2.97
422.629	2.67
422.99	2.79
423.351	2.63
423.712	2.82
424.073	2.77
424.434	2.79
424.795	2.82
425.155	2.7
425.516	2.76
425.877	2.74
426.238	2.68
426.598	2.86
426.959	2.84
427.32	2.86
427.68	2.88
428.041	2.83
428.401	2.71
428.761	2.79
429.122	2.66
429.482	2.78
429.842	2.86
430.202	2.85
430.563	2.8
430.923	2.8
431.283	2.99
431.643	2.84
432.003	2.97
432.363	2.79
432.722	2.98
433.082	2.88
433.442	3.07
433.802	2.82
434.161	2.94
434.521	2.78
434.881	2.95
435.24	2.83
435.6	2.82
435.959	2.86
436.319	2.77
436.678	2.92
437.037	2.94
437.396	2.96
437.756	2.99
438.115	3.06
438.474	3.16
438.833	2.74
439.192	2.89
439.551	2.92
439.91	3.01
440.269	3.06
440.628	2.92
440.987	3.04
441.345	2.97
441.704	2.93
442.063	2.86
442.421	2.98
442.78	2.82
443.138	2.83
443.497	2.86
443.855	2.77
444.214	2.99
444.572	2.9
444.93	2.93
445.288	2.97
445.647	3.13
446.005	2.73
446.363	2.93
446.721	2.93
447.079	2.83
447.437	2.86
447.795	2.85
448.153	2.89
448.51	2.89
448.868	2.74
449.226	2.73
449.584	2.94
449.941	2.97
450.299	2.82
450.656	3.02
451.014	2.92
451.371	2.79
451.729	3.03
452.086	2.9
452.443	3.07
452.801	2.95
453.158	2.94
453.515	2.85
453.872	3.04
454.229	2.95
454.586	2.83
454.943	2.97
455.3	3.03
455.657	2.99
456.014	2.96
456.371	3.18
456.727	3.07
457.084	2.9
457.441	3.03
457.797	3.06
458.154	2.93
458.51	2.97
458.867	2.75
459.223	2.91
459.58	2.97
459.936	2.97
460.292	2.96
460.648	2.99
461.005	2.95
461.361	2.88
461.717	2.83
462.073	2.9
462.429	2.91
462.785	2.89
463.141	2.93
463.496	3.12
463.852	2.89
464.208	2.91
464.564	2.92
464.919	2.9
465.275	2.85
465.631	2.85
465.986	3.07
466.342	3
466.697	2.95
467.052	2.88
467.408	3.1
467.763	2.87
468.118	2.88
468.473	2.94
468.829	3.05
469.184	3.25
469.539	3.15
469.894	2.93
470.249	3.09
470.603	2.95
470.958	3.02
471.313	3.04
471.668	3.14
472.023	3.03
472.377	2.99
472.732	3.13
473.086	3.17
473.441	3.05
473.795	3.05
474.15	3
474.504	3.04
474.859	3.18
475.213	3.02
475.567	3.08
475.921	2.98
476.275	2.96
476.63	3
476.984	2.95
477.338	2.86
477.692	2.91
478.045	2.98
478.399	2.96
478.753	2.79
479.107	2.99
479.461	3.03
479.814	3.04
480.168	3.05
480.521	3.15
480.875	2.94
481.228	2.86
481.582	3.15
481.935	3.01
482.289	3.17
482.642	2.96
482.995	3.06
483.348	2.94
483.701	2.85
484.055	3.1
484.408	3.02
484.761	2.97
485.114	3
485.466	2.88
485.819	2.8
486.172	2.79
486.525	2.81
486.878	2.9
487.23	2.91
487.583	2.9
487.936	2.96
488.288	3.01
488.641	2.85
488.993	2.83
489.345	2.86
489.698	2.82
490.05	2.87
490.402	2.82
490.754	2.93
491.107	2.91
491.459	2.97
491.811	3.02
492.163	3.04
492.515	3.04
492.866	2.9
493.218	2.86
493.57	2.89
493.922	2.84
494.274	2.95
494.625	3
494.977	3.01
495.328	3.05
495.68	3.08
496.031	3.04
496.383	2.95
496.734	3.01
497.086	3.14
497.437	3.14
497.788	3.1
498.139	3.07
498.49	3.17
498.842	3.24
499.193	3.11
499.544	3.04
499.894	3.02
500.245	3.07
500.596	3.11
500.947	3.06
501.298	3.06
501.648	3
501.999	3.06
502.35	3.2
502.7	3.21
503.051	3
503.401	3.12
503.752	3.16
504.102	3.01
504.452	3.18
504.803	3.22
505.153	3.18
505.503	3.21
505.853	3.08
506.203	2.95
506.553	3.09
506.903	2.97
507.253	3.06
507.603	3.07
507.953	3.13
508.303	3.03
508.652	3.06
509.002	3
509.352	3.19
509.701	3.04
510.051	2.96
510.4	3.07
510.75	3.04
511.099	3.05
511.449	3.12
511.798	3.03
512.147	3.16
512.496	3.06
512.846	3.12
513.195	3.17
513.544	3.11
513.893	3.02
514.242	3.13
514.591	2.93
514.939	3.08
515.288	3.17
515.637	2.99
515.986	3.05
516.334	3.13
516.683	3.29
517.032	3.2
517.38	3.1
517.729	3.06
518.077	3.11
518.426	3.3
518.774	3.08
519.122	3.08
519.47	3.09
519.819	3.05
520.167	3.09
520.515	3
520.863	3.02
521.211	3.15
521.559	3.07
521.907	3.17
522.255	3.08
522.602	3.13
522.95	3.21
523.298	3.18
523.645	3.26
523.993	3.17
524.341	3.12
524.688	3.12
525.036	3.17
525.383	3.06
525.73	3.33
526.078	3.17
526.425	3.06
526.772	3.18
527.119	3
527.466	3.03
527.814	3.09
528.161	3.09
528.508	3.09
528.854	3.07
529.201	3.08
529.548	3.07
529.895	3
530.242	3
530.588	2.91
530.935	2.98
531.282	3
531.628	3.01
531.975	3.01
532.321	3.08
532.667	3.09
533.014	3.04
533.36	3.07
533.706	3.22
534.052	3.09
534.399	3.13
534.745	3.09
535.091	3.01
535.437	3.02
535.783	3.02
536.129	3.13
536.474	3.18
536.82	3.13
537.166	3.07
537.512	3.08
537.857	3.14
538.203	3.04
538.549	3.16
538.894	3.12
539.239	3.12
539.585	3.12
539.93	3.08
540.276	3.14
540.621	3.23
540.966	3.09
541.311	3.18
541.656	3.24
542.001	3.24
542.346	3.11
542.691	3.1
543.036	3.07
543.381	3.01
543.726	3.06
544.071	3.06
544.415	3.03
544.76	3.09
545.105	3.17
545.449	3.04
545.794	3.1
546.138	3.13
546.483	3.13
546.827	3.28
547.171	3.09
547.516	3.19
547.86	3.23
548.204	3.23
548.548	3.09
548.892	3.24
549.236	3.16
549.58	3.33
549.924	3.27
550.268	3.1
550.612	3.13
550.956	3.19
551.3	3.15
551.643	3.24
551.987	3.39
552.33	3.37
552.674	3.38
553.017	3.27
553.361	3.21
553.704	3.23
554.048	3.11
554.391	3.12
554.734	3.25
555.077	3.33
555.42	3.32
555.764	3.25
556.107	3.31
556.45	3.23
556.793	3.23
557.135	3.38
557.478	3.21
557.821	3.22
558.164	3.31
558.507	3.13
558.849	3.18
559.192	3.32
559.534	3.14
559.877	3.38
560.219	3.43
560.562	3.38
560.904	3.48
561.246	3.26
561.589	3.33
561.931	3.32
562.273	3.16
562.615	3.3
562.957	3.32
563.299	3.33
563.641	3.15
563.983	3.36
564.325	3.42
564.667	3.64
565.008	3.35
565.35	3.63
565.692	3.37
566.033	3.19
566.375	3.49
566.716	3.34
567.058	3.31
567.399	3.25
567.741	3.24
568.082	3.33
568.423	3.23
568.764	3.27
569.105	3.34
569.447	3.4
569.788	3.15
570.129	3.38
570.47	3.36
570.811	3.11
571.151	3.38
571.492	3.27
571.833	3.24
572.174	3.52
572.514	3.19
572.855	3.17
573.195	3.29
573.536	3.27
573.876	3.3
574.217	3.21
574.557	3.19
574.898	3.35
575.238	3.4
575.578	3.31
575.918	3.5
576.258	3.35
576.598	3.39
576.938	3.36
577.278	3.31
577.618	3.26
577.958	3.24
578.298	3.45
578.638	3.45
578.977	3.51
579.317	3.36
579.657	3.31
579.996	3.22
580.336	3.34
580.675	3.39
581.014	3.4
581.354	3.31
581.693	3.31
582.032	3.08
582.372	3.52
582.711	3.27
583.05	3.33
583.389	3.39
583.728	3.5
584.067	3.26
584.406	3.37
584.745	3.42
585.083	3.42
585.422	3.53
585.761	3.51
586.1	3.37
586.438	3.32
586.777	3.47
587.115	3
587.454	3.48
587.792	3.42
588.13	3.41
588.469	3.37
588.807	3.47
589.145	3.67
589.483	3.44
589.821	3.26
590.159	3.4
590.497	3.5
590.835	3.58
591.173	3.31
591.511	3.57
591.849	3.8
592.187	3.09
592.524	3.37
592.862	3.49
593.2	3.39
593.537	3.35
593.875	3.33
594.212	3.32
594.55	3.3
594.887	3.5
595.224	3.56
595.561	3.44
595.899	3.33
596.236	3.58
596.573	3.2
596.91	3.25
597.247	3.49
597.584	3.26
597.921	3.2
598.258	3.43
598.594	3.3
598.931	3.33
599.268	3.45
599.604	3.46
599.941	3.57
600.277	3.37
600.614	3.75
600.95	3.35
601.287	3.46
601.623	3.6
601.959	3.53
602.296	3.48
602.632	3.39
602.968	3.25
603.304	3.52
603.64	3.58
603.976	3.48
604.312	3.25
604.648	3.38
604.984	3.55
605.319	3.41
605.655	3.48
605.991	3.38
606.326	3.36
606.662	3.4
606.998	3.22
607.333	3.33
607.668	3.36
608.004	3.38
608.339	3.57
608.674	3.62
609.01	3.19
609.345	3.24
609.68	3.48
610.015	3.47
610.35	3.54
610.685	3.25
611.02	3.23
611.355	3.59
611.689	3.64
612.024	3.47
612.359	3.37
612.694	3.38
613.028	3.21
613.363	3.17
613.697	3.36
614.032	3.4
614.366	3.42
614.7	3.29
615.035	3.29
615.369	3.45
615.703	3.67
616.037	3.52
616.371	3.77
616.705	3.46
617.039	3.76
617.373	3.34
617.707	3.76
618.041	3.54
618.375	3.76
618.709	3.56
619.042	3.49
619.376	3.81
619.71	3.22
620.043	3.44
620.377	3.31
620.71	3.65
621.043	3.7
621.377	3.3
621.71	3.48
622.043	3.23
622.376	3.41
622.709	3.49
623.043	3.92
623.376	3.46
623.709	3.73
624.041	3.81
624.374	3.73
624.707	3.16
625.04	3.85
625.373	3.55
625.705	3.57
626.038	3.22
626.37	3.89
626.703	3.85
627.035	3.38
627.368	3.4
627.7	3.6
628.032	3.49
628.365	3.72
628.697	3.47
629.029	3.41
629.361	3.26
629.693	3.31
630.025	3.55
630.357	3.3
630.689	3.25
631.021	3.4
631.353	3.43
631.684	3.61
632.016	3.65
632.348	3.76
632.679	3.85
633.011	3.64
633.342	3.8
633.674	3.84
634.005	3.96
634.336	3.63
634.668	3.76
634.999	3.86
635.33	3.66
635.661	3.48
635.992	3.71
636.323	3.55
636.654	3.58
636.985	3.41
637.316	3.64
637.647	3.61
637.977	3.44
638.308	3.61
638.639	3.32
638.969	3.56
639.3	3.75
639.63	3.23
639.961	3.76
640.291	3.77
640.622	3.51
640.952	3.81
641.282	3.26
641.612	3.69
641.943	3.47
642.273	3.41
642.603	3.7
642.933	3.49
643.263	3.34
643.592	3.98
643.922	3.65
644.252	3.09
644.582	3.44
644.911	3.94
645.241	3.55
645.571	3.74
645.9	3.49
646.23	3.65
646.559	3.6
646.888	3.49
647.218	3.59
647.547	3.43
647.876	3.63
648.205	3.43
648.534	3.56
648.863	3.65
649.192	3.78
649.521	4.26
649.85	3.83
650.179	3.58
650.508	3.72
650.837	3.08
651.165	4.04
651.494	3.75
651.822	3.44
652.151	4.1
652.479	3.82
652.808	3.74
653.136	3.49
653.465	3.87
653.793	3.47
654.121	3.84
654.449	3.52
654.777	3.68
655.105	3.75
655.433	3.65
655.761	4.13
656.089	3.46
656.417	3.57
656.745	3.84
657.073	3.97
657.4	3.94
657.728	4.25
658.056	4.17
658.383	3.79
658.711	4.16
659.038	3.83
659.365	3.78
659.693	4.18
660.02	3.59
660.347	3.47
660.674	3.85
661.001	3.39
661.329	3.86
661.656	3.51
661.982	3.39
662.309	3.87
662.636	3.62
662.963	4.46
663.29	3.53
663.616	3.31
663.943	2.85
664.27	3.88
664.596	4.15
664.923	3.61
665.249	4.11
665.576	3.61
665.902	3.54
666.228	3.39
666.554	3.43
666.881	3.37
667.207	4.22
667.533	3.73
667.859	3.8
668.185	3.98
668.511	4.16
668.837	4.02
669.162	4.58
669.488	4.24
669.814	3.56
670.139	3.73
670.465	4.09
670.791	3.88
671.116	4.02
671.442	3.85
671.767	3.84
672.092	4.1
672.418	4.14
672.743	3.66
673.068	3.49
673.393	4.32
673.718	3.82
674.043	4.48
674.368	3.42
674.693	3.42
675.018	4.38
675.343	3.77
675.667	3.76
675.992	3.65
676.317	3.57
676.641	4.36
676.966	3.92
677.29	4.15
677.615	4.66
677.939	3.45
678.264	3.78
678.588	4.4
678.912	3.66
679.236	3.95
679.56	4.5
679.885	3.83
680.209	4.24
680.532	4.18
680.856	4.07
681.18	3.85
681.504	3.49
681.828	3.48
682.152	3.53
682.475	4
682.799	4.03
683.122	3.74
683.446	3.34
683.769	4.06
684.093	4.14
684.416	3.91
684.739	4.62
685.062	4.23
685.386	4.57
685.709	3.37
686.032	3.85
686.355	3.89
686.678	3.71
687.001	3.46
687.324	3.29
687.646	3.66
687.969	4.32
688.292	4.07
688.614	5.07
688.937	4.27
689.26	3.59
689.582	3.95
689.904	3.8
690.227	4.34
690.549	3.74
690.871	3.43
691.194	3.65
691.516	4.81
691.838	4.19
692.16	4.19
692.482	4.36
692.804	3.68
693.126	4.04
693.448	4.08
693.769	3.28
694.091	4.02
694.413	4.57
694.735	3.51
695.056	3.56
695.378	4.75
695.699	3.55
696.021	4.55
696.342	3.9
696.663	4.25
696.984	3.75
697.306	4.82
697.627	4.59
697.948	4.62
698.269	4.58
698.59	3.95
698.911	3.34
699.232	3.94
699.553	4.08
699.873	3.54
700.194	4.55
700.515	4.3
700.835	4.37
701.156	4.39
701.477	3.43
701.797	3.94
702.117	4.15
702.438	3.64
702.758	4.12
703.078	4.22
703.398	3.9
703.719	5.09
704.039	4.09
704.359	3.93
704.679	5.28
704.999	4.69
705.319	3.59
705.638	4.02
705.958	4.62
706.278	4.61
706.597	4.66
706.917	5
707.237	4.23
707.556	3.85
707.876	4.09
708.195	4.71
708.514	5.61
708.834	4.24
709.153	2.96
709.472	2.72
709.791	5.89
710.11	4.31
710.429	3.77
710.748	3.56
711.067	4.39
711.386	4.06
711.705	3.81
712.023	4.9
712.342	5.33
712.661	3.85
712.979	3.65
713.298	3.16
713.616	5.38
713.935	4.49
714.253	3.43
714.572	4.15
714.89	4.69
715.208	3.68
715.526	3.65
715.844	4.25
716.162	3.33
716.48	4.37
716.798	3.88
717.116	4.7
717.434	4.8
717.752	3.77
718.069	3.7
718.387	4.92
718.705	3.71
719.022	4.1
719.34	4.94
719.657	3.48
719.975	4.29
720.292	5.49
720.609	4.64
720.927	5.54
721.244	4.39
721.561	4.36
721.878	4.94
722.195	4.01
722.512	4.26
722.829	3.9
723.146	4.57
723.463	4.39
723.779	4.01
724.096	4.98
724.413	2.49
724.729	5.3
725.046	3.66
725.362	4.06
725.679	4.56
725.995	4.73
726.311	5.54
726.628	4.47
726.944	4.77
727.26	3.56
727.576	3.46
727.892	3.42
728.208	4.04
728.524	3.13
728.84	4.23
729.156	4.22
729.472	4.02
729.787	4.13
730.103	5.56
730.419	6.67
730.734	3.9
731.05	4.16
731.365	5.24
731.681	4.44
731.996	3.54
732.311	4.51
732.626	4.44
732.942	4.17
733.257	4.83
733.572	2.32
733.887	4.49
734.202	4.41
734.517	4.59
734.832	4.4
735.146	4.47
735.461	5.2
735.776	4.59
736.091	4.08
736.405	3.93
736.72	5.29
737.034	5.17
737.349	2.73
737.663	3.56
737.977	3.29
738.292	5.08
738.606	4.74
738.92	4.32
739.234	3.61
739.548	3.82
739.862	5.32
740.176	4.71
740.49	3.61
740.804	5.63
741.117	2.98
741.431	5.07
741.745	2.67
742.058	5.18
742.372	4.38
742.685	3.17
742.999	5.8
743.312	4.08
743.626	2.64
743.939	5.04
744.252	5.15
744.565	4.27
744.878	3.8
745.191	3.4
745.505	4.72
745.817	4.33
746.13	5.32
746.443	5.73
746.756	4.92
747.069	4.9
747.381	2.94
747.694	4.77
748.007	5.46
748.319	4.65
748.632	4.83
748.944	2.78
749.256	3.64
749.569	3.8
749.881	3.94
750.193	5.56
750.505	5.57
750.817	2.13
751.129	4.59
751.441	4.39
751.753	4.73
752.065	5.92
752.377	5.98
752.689	3.22
753	3.82
753.312	4.54
753.624	4.92
753.935	3.2
754.247	4.16
754.558	6.16
754.869	4.33
755.181	3.83
755.492	5.63
755.803	2.9
756.114	5.29
756.425	6.13
756.736	3.6
757.047	6.02
757.358	5.12
757.669	5.27
757.98	3.17
758.291	2.16
758.601	4.2
758.912	4.63
759.223	4.22
759.533	4.96
759.844	6.03
760.154	6
760.464	6.19
760.775	6.25
761.085	5.01
761.395	4.51
761.705	6.17
762.016	4.89
762.326	4.42
762.636	6.61
762.945	3.61
763.255	2.49
763.565	4.68
763.875	6.54
764.185	3.37
764.494	5.11
764.804	3.95
765.113	6.16
765.423	3.24
765.732	5.41
766.042	4.32
766.351	4.65
766.66	6.17
766.97	5.7
767.279	6.68
767.588	4.86
767.897	3.16
768.206	4.45
768.515	4.09
768.824	4.31
769.133	6.62
769.441	3.16
769.75	5.8
770.059	5.18
770.367	6.05
770.676	3.8
770.984	2.87
771.293	3.55
771.601	5.23
771.91	5.17
772.218	4.66
772.526	5.89
772.834	3.94
773.142	2.16
773.45	3.96
773.758	2.97
774.066	4.43
774.374	5.59
774.682	4.03
774.99	4.05
775.298	6.42
775.605	1.75
775.913	9.39
776.22	5.34
776.528	3.28
776.835	2.57
777.143	4.48
777.45	0.87
777.757	5.89
778.065	4.22
778.372	6.89
778.679	5.35
778.986	6.63
779.293	5.63
779.6	5.45
779.907	4.97
780.214	2.97
780.52	5.99
780.827	5.85
781.134	4.61
781.44	4.99
781.747	1.86
782.053	3.46
782.36	6.53
782.666	4.63
782.973	6.29
783.279	7.7
783.585	3.83
783.891	6.77
784.197	6.56
784.503	5.66
784.809	6.33
785.115	6.76
785.421	6.99
785.727	4.18
786.033	3.97
786.339	4.3
786.644	4.85
786.95	6.33
787.255	7.09
787.561	11.98
787.866	4.06
788.172	4.57
788.477	5.39
788.782	4.86
789.088	5.43
789.393	4.38
789.698	5.6
790.003	0.83
790.308	2.34
790.613	3.21
790.918	5.85
791.223	5.86
791.527	6.99
791.832	5.65
792.137	-0.5
792.441	8.2
792.746	6.51
793.05	4.17
793.355	9.91
793.659	2.55
793.963	8.49
794.268	11.04
794.572	5.04
794.876	4.6
795.18	5.92
795.484	7.72
795.788	4.9
796.092	5.3
796.396	-0.98
796.7	3.55
797.004	8.16
797.307	1.94
797.611	6.19
797.915	5.97
798.218	6.26
798.522	4.8
798.825	4.2
799.128	7.67
799.432	5.49
799.735	3.97
800.038	2.2
800.341	1.02
800.644	5.35
800.947	3.57
801.25	6.87
801.553	8.32
801.856	7.16
802.159	7.57
802.462	9.38
802.764	8.23
803.067	5.67
803.37	7.32
803.672	10.55
803.975	6.43
804.277	0.78
804.579	5.02
804.882	7.09
805.184	7.84
805.486	8.92
805.788	7.64
806.09	6.03
806.392	4.35
806.694	3.16
806.996	9.16
807.298	10.66
807.6	8.01
807.902	5.68
808.203	8.01
808.505	0.87
808.807	2.57
809.108	3.45
809.409	7.7
809.711	2.04
810.012	4.57
810.313	5.44
810.615	4.94
810.916	7.37
811.217	11.96
811.518	4.55
811.819	4
812.12	6.52
812.421	6.74
812.722	1.87
813.023	3.24
813.323	12.57
813.624	3.53
813.925	0.65
814.225	-2.77
814.526	7.47
814.826	6.19
815.126	1.16
815.427	0.32
815.727	1.07
816.027	6.95
816.327	11.88
816.627	10.15
816.927	7.55
817.227	6.62
817.527	3.41
817.827	2.95
818.127	-1.02
818.427	2.06
818.727	7.16
819.026	10.21
819.326	7.94
819.625	-0.7
819.925	1.9
820.224	11.12
820.524	7.13
820.823	2.35
821.122	9.62
821.421	2.53
821.72	10.77
822.019	11.45
822.318	7.78
822.617	7.31
822.916	3.5
823.215	2.2
823.514	4.77
823.813	7.95
824.111	4.2
824.41	8.38
824.709	4.48
825.007	8.21
825.306	6.58
825.604	6.27
825.902	6.3
826.201	6.36
826.499	5.5
826.797	6.29
827.095	6.44
827.393	6.17
827.691	6.63
827.989	5.37
828.287	6.99
828.585	5.35
828.882	7.12
829.18	5.11
829.478	4.35
829.775	7.65
830.073	5.7
830.37	5.82
830.668	2.64
830.965	7.07
831.263	4.75
831.56	7.33
831.857	5.6
832.154	6.79
832.451	3.79
832.748	6.38
833.045	4.62
833.342	1.44
833.639	8.86
833.936	8.05
834.232	2.16
834.529	11.31
834.826	5.37
835.122	12.9
835.419	-1.07
835.715	5.62
836.012	7.27
836.308	11.99
836.604	7.02
836.901	9.7
837.197	7.48
837.493	7.21
837.789	6.13
838.085	7.08
838.381	4.6
838.677	6.24
838.972	8.78
839.268	3.33
839.564	-0.05
839.86	11.73
840.155	9.83
840.451	-0.75
840.746	6.08
841.042	5.1
841.337	9.09
841.632	17.22
841.928	-2.78
842.223	9.95
842.518	8.87
842.813	10.92
843.108	-0.05
843.403	2.91
843.698	10.14
843.993	10.75
844.287	1.8
844.582	-0.3
844.877	4.9
845.171	-23.34
845.466	4.93
845.761	4.5
846.055	-4.26
846.349	8.55
846.644	13.12
846.938	15.33
847.232	-1.82
847.526	3.49
847.82	-2.9
848.114	-5.88
848.408	11.6
848.702	10.53
848.996	8.25
849.29	6.89
849.584	21.38
849.877	13.13
850.171	3.11
850.465	-3.78
850.758	-3.62
851.052	20.79
851.345	-4.85
851.638	-15.07
851.932	1.01
852.225	-1.44
852.518	0
852.811	-9.58
853.104	3.91
853.397	-3.38
853.69	-20.11
853.983	0.88
854.276	-11.9
854.569	16.94
854.861	-0.26
855.154	-25.94
855.447	-12.07
855.739	-5.21
856.032	33.88
856.324	5.38
856.616	10.25
856.909	8.55
857.201	15.23
857.493	-5.53
857.785	-6.02
858.077	-7.6
858.369	24.13
858.661	-0.2
858.953	-9.3
859.245	5.68
859.537	38.92
859.829	14.34
860.12	-5.08
860.412	8.8
860.703	11.18
860.995	12.44
861.286	19.66
861.578	16.49
861.869	7.9
862.16	12.98
862.452	-7.25
862.743	16.04
863.034	6.31
863.325	-31.85
863.616	-5.93
863.907	4.59
864.198	24.76
864.488	1.03
864.779	20.84
865.07	-20.17
865.36	13.09
865.651	-16.24
865.941	17.15
866.232	-54.11
866.522	-44.48
866.813	7.65
867.103	6.7
867.393	29.55
867.683	-15.25
867.973	-29.11
868.263	-29.78
868.553	-8.8
868.843	7.02
869.133	5.83
869.423	21.01
869.713	-27.01
870.002	1.18
870.292	13
870.582	39.08
870.871	5.99
871.161	10.23
871.45	-37.96
871.739	6.51
872.029	12.79
872.318	-7.95
872.607	16.3
872.896	13.18
873.185	9.01
873.474	-9.38
873.763	20.84
874.052	7.51
874.341	4.94
874.63	24.21
874.918	-0.19
875.207	7.69
875.496	-7.97
875.784	-4.34
876.073	29.77
876.361	-4.53
876.649	30.13
876.938	11.91
877.226	4.23
877.514	7.91
877.802	37.28
878.09	25.33
878.378	18.99
878.666	-1.64
878.954	9.37
879.242	7.14
879.53	10.64
879.817	-49.22
880.105	10.82
880.392	9.74
880.68	-3.71
880.967	8.21
881.255	6.19
881.542	-12.08
881.83	36.88
882.117	-9.09
882.404	5.5
882.691	-13.37
882.978	2.57
883.265	-42.59
883.552	14.98
883.839	2.53
884.126	-5.2
884.413	6.48
884.699	-4.41
884.986	-0.03
885.273	16.03
885.559	16.03
885.846	16.03
