Data from 20-6_forehead_Reflection__4__135.txt Node

Date: Fri Nov 11 21:08:32 CST 2022
User: ToomeyLab
Spectrometer: FLMS14357
Trigger mode: 0
Integration Time (sec): 1.000000E-2
Scans to average: 100
Electric dark correction enabled: true
Nonlinearity correction enabled: false
Boxcar width: 0
XAxis mode: Wavelengths
Number of Pixels in Spectrum: 2048
>>>>>Begin Spectral Data<<<<<
189.047	119.65
189.435	119.65
189.823	119.65
190.211	788.51
190.599	-56.67
190.987	73.51
191.375	235.59
191.763	-87.25
192.151	219.57
192.538	-170.11
192.926	219.84
193.314	138.88
193.702	118.48
194.089	-561.88
194.477	51.87
194.864	95.27
195.252	107.75
195.639	229.81
196.027	103.2
196.414	119.98
196.801	119.89
197.189	141.54
197.576	187.77
197.963	-9.01
198.351	-166.81
198.738	5.53
199.125	39.57
199.512	38.1
199.899	-38.29
200.286	9.86
200.673	-17.61
201.06	4.18
201.447	37.47
201.833	14.42
202.22	-0.01
202.607	23.42
202.994	37.82
203.38	28.94
203.767	19.21
204.154	49.28
204.54	56.04
204.927	3.72
205.313	17.64
205.699	-66.58
206.086	24.08
206.472	38.39
206.858	15.36
207.245	34.45
207.631	23.06
208.017	6.65
208.403	9.95
208.789	-4.74
209.175	12.05
209.561	52.87
209.947	4.01
210.333	5.1
210.719	10.98
211.105	47.89
211.491	38.43
211.876	12.56
212.262	60.84
212.648	-11.61
213.034	-7.95
213.419	-46.13
213.805	-3.7
214.19	-5.63
214.576	1.9
214.961	-97.15
215.346	-7.92
215.732	1.29
216.117	29.95
216.502	30.88
216.888	-25.07
217.273	40.17
217.658	-25.31
218.043	-1.44
218.428	-5.3
218.813	18.39
219.198	4.75
219.583	16.63
219.968	-1.97
220.353	6.51
220.738	-8.53
221.122	9.38
221.507	3.73
221.892	-29.19
222.276	22.2
222.661	19.85
223.046	-11.93
223.43	1.22
223.815	10.89
224.199	16.91
224.583	-5.3
224.968	-12.5
225.352	3.47
225.736	10.5
226.121	-4.23
226.505	3.33
226.889	-7.93
227.273	-1.94
227.657	-4.25
228.041	2.02
228.425	-2.89
228.809	4.45
229.193	4.3
229.577	2.82
229.961	1.83
230.344	1.93
230.728	1.3
231.112	0.57
231.495	1.53
231.879	0.74
232.263	1.73
232.646	0.77
233.03	1.86
233.413	1.18
233.797	3.45
234.18	-0.7
234.563	2.21
234.946	1.8
235.33	3.37
235.713	0.82
236.096	2.22
236.479	0.73
236.862	4.38
237.245	2.12
237.628	0.97
238.011	2.33
238.394	2.05
238.777	3.09
239.16	2.75
239.543	1.01
239.925	1.57
240.308	0.9
240.691	2.3
241.073	1.9
241.456	1.04
241.838	3.24
242.221	2.04
242.603	2.51
242.986	1.1
243.368	1.57
243.75	1.5
244.133	2.12
244.515	1.34
244.897	1.77
245.279	1.5
245.661	1.39
246.043	1.41
246.425	1.68
246.807	1.57
247.189	1.49
247.571	1.73
247.953	1.7
248.335	2
248.717	1.9
249.098	2.21
249.48	1.48
249.862	1.94
250.243	1.87
250.625	2.03
251.006	2.54
251.388	2.5
251.769	2.17
252.151	2.62
252.532	1.64
252.913	2.69
253.295	1.93
253.676	1.45
254.057	1.15
254.438	2.06
254.819	1.51
255.2	2.52
255.581	1.77
255.962	1
256.343	2.56
256.724	1.63
257.105	0.93
257.486	0.99
257.867	2.59
258.247	1.63
258.628	1.34
259.009	1.84
259.389	1.93
259.77	2.2
260.15	2.03
260.531	2.05
260.911	1.8
261.292	1.99
261.672	1.64
262.052	1.66
262.432	2.12
262.813	2.09
263.193	1.29
263.573	2.14
263.953	2.46
264.333	1.79
264.713	2.11
265.093	2.37
265.473	1.34
265.853	2.15
266.233	2.37
266.612	2.11
266.992	1.65
267.372	2.78
267.752	1.42
268.131	1.33
268.511	1.41
268.89	1.61
269.27	1.85
269.649	1.34
270.029	2.56
270.408	2.02
270.787	1.17
271.167	1.54
271.546	1.71
271.925	2.11
272.304	2.14
272.683	2.03
273.062	1.56
273.441	1.57
273.82	1.97
274.199	1.89
274.578	1.59
274.957	1.84
275.336	2.16
275.715	2.36
276.093	1.23
276.472	2.06
276.851	1.91
277.229	1.89
277.608	2.22
277.986	2.08
278.365	1.42
278.743	1.77
279.122	1.87
279.5	1.78
279.878	2.22
280.257	2.03
280.635	1.89
281.013	1.5
281.391	1.38
281.769	1.68
282.147	1.67
282.525	1.24
282.903	1.38
283.281	1.32
283.659	1.95
284.037	2.11
284.415	1.64
284.792	1.79
285.17	1.91
285.548	1.39
285.925	1.35
286.303	1.64
286.68	1.89
287.058	1.67
287.435	1.76
287.813	1.41
288.19	1.6
288.567	1.81
288.945	1.78
289.322	2.02
289.699	1.65
290.076	2.38
290.453	1.98
290.83	1.35
291.207	1.78
291.584	1.96
291.961	1.84
292.338	2.12
292.715	1.83
293.092	2.14
293.469	1.79
293.845	2.01
294.222	1.65
294.599	2.25
294.975	2.18
295.352	2.07
295.728	2.23
296.105	1.98
296.481	1.97
296.858	1.87
297.234	2.53
297.61	2.29
297.986	2.34
298.363	2.2
298.739	2.22
299.115	2.5
299.491	2.57
299.867	2.29
300.243	2.1
300.619	2.31
300.995	2.32
301.371	2.94
301.746	2.58
302.122	2.41
302.498	2.32
302.874	2.72
303.249	2.75
303.625	2.13
304	2.11
304.376	2.74
304.751	2.58
305.127	1.99
305.502	2.96
305.878	3.02
306.253	3.17
306.628	2.69
307.003	2.59
307.378	2.53
307.754	3.36
308.129	3.25
308.504	3.04
308.879	3.07
309.254	3.21
309.629	3.19
310.003	3.04
310.378	2.93
310.753	3.27
311.128	3.67
311.502	3.39
311.877	2.85
312.252	2.9
312.626	2.85
313.001	3.28
313.375	3.08
313.75	3.34
314.124	3.08
314.498	3.31
314.873	3.43
315.247	3.58
315.621	3.94
315.995	3.81
316.369	3.83
316.743	3.64
317.117	3.86
317.491	3.4
317.865	3.35
318.239	4
318.613	4.3
318.987	3.77
319.361	3.45
319.734	4.12
320.108	3.74
320.482	4.13
320.855	3.66
321.229	3.97
321.602	4.22
321.976	4.01
322.349	4.9
322.723	4.75
323.096	4.52
323.469	4.91
323.843	4.58
324.216	3.94
324.589	4.57
324.962	4.66
325.335	4.16
325.708	4.4
326.081	4.88
326.454	4.73
326.827	4.63
327.2	5.23
327.573	5
327.945	5.03
328.318	4.78
328.691	4.74
329.063	4.98
329.436	4.72
329.809	5.11
330.181	5.31
330.553	4.51
330.926	5.24
331.298	5
331.671	4.87
332.043	4.42
332.415	5.46
332.787	5.37
333.159	4.89
333.532	5.61
333.904	5.5
334.276	5.18
334.648	5.36
335.02	5.18
335.391	5.78
335.763	5.66
336.135	5.05
336.507	5.3
336.879	5.35
337.25	5.17
337.622	5.63
337.993	5.62
338.365	6.02
338.736	5.84
339.108	5.7
339.479	5.51
339.851	5.98
340.222	5.72
340.593	5.65
340.964	5.88
341.336	6.2
341.707	5.64
342.078	5.56
342.449	5.76
342.82	5.84
343.191	6.33
343.562	5.85
343.933	5.94
344.303	5.82
344.674	6.11
345.045	6.07
345.416	6.17
345.786	6.03
346.157	5.95
346.527	5.99
346.898	5.55
347.268	6.27
347.639	6.53
348.009	6.47
348.38	6.41
348.75	6.5
349.12	6.72
349.49	7.01
349.861	6.28
350.231	6.92
350.601	6.62
350.971	6.59
351.341	7.04
351.711	6.7
352.081	6.74
352.45	6.92
352.82	6.62
353.19	6.91
353.56	6.63
353.929	6.87
354.299	6.77
354.669	7.11
355.038	6.61
355.408	7.23
355.777	7.22
356.147	6.91
356.516	6.86
356.885	6.99
357.254	6.89
357.624	6.27
357.993	7.06
358.362	6.99
358.731	6.91
359.1	7.12
359.469	6.83
359.838	7.14
360.207	7.34
360.576	7.4
360.945	7.39
361.314	7.26
361.682	7.12
362.051	7.3
362.42	7.62
362.788	7.58
363.157	7.3
363.525	7.18
363.894	7.35
364.262	7.62
364.631	7.64
364.999	7.57
365.367	7.69
365.735	7.72
366.104	7.47
366.472	7.55
366.84	7.26
367.208	7.88
367.576	8.03
367.944	7.9
368.312	7.44
368.68	7.72
369.048	8
369.416	7.96
369.783	7.95
370.151	8.24
370.519	8.36
370.886	8.04
371.254	8.29
371.621	7.96
371.989	7.84
372.356	8.5
372.724	8.59
373.091	8.42
373.458	8.29
373.826	8.01
374.193	8.21
374.56	8.18
374.927	8.25
375.294	8.37
375.661	8.63
376.028	8.56
376.395	8.75
376.762	8.62
377.129	8.49
377.496	8.6
377.863	8.77
378.229	8.62
378.596	8.38
378.963	8.79
379.329	8.55
379.696	8.69
380.062	8.6
380.429	8.74
380.795	8.95
381.161	9.02
381.528	8.8
381.894	9.06
382.26	9.05
382.626	9.23
382.993	9.05
383.359	9.2
383.725	8.75
384.091	9.19
384.457	9.04
384.823	8.92
385.188	8.86
385.554	8.9
385.92	8.74
386.286	9.08
386.651	9.08
387.017	9.13
387.383	9.18
387.748	9.04
388.114	9.26
388.479	9.18
388.845	9.09
389.21	9.1
389.575	9.39
389.94	9.25
390.306	9.32
390.671	9.37
391.036	9.4
391.401	9.44
391.766	9.46
392.131	9.43
392.496	9.43
392.861	9.39
393.226	9.3
393.591	9.32
393.956	9.44
394.32	9.33
394.685	9.68
395.05	9.74
395.414	9.4
395.779	9.48
396.143	9.54
396.508	9.72
396.872	9.4
397.236	9.42
397.601	9.71
397.965	9.67
398.329	9.64
398.694	9.69
399.058	9.91
399.422	9.61
399.786	9.8
400.15	9.88
400.514	9.82
400.878	9.91
401.242	9.76
401.605	9.81
401.969	9.84
402.333	9.73
402.697	10.08
403.06	10.15
403.424	9.83
403.787	9.95
404.151	9.83
404.514	9.93
404.878	10
405.241	10.06
405.604	9.95
405.968	9.88
406.331	9.6
406.694	9.9
407.057	9.87
407.42	9.94
407.783	9.98
408.146	10.12
408.509	9.81
408.872	10.2
409.235	10.08
409.598	10.08
409.961	10.14
410.323	9.95
410.686	10.04
411.049	10.13
411.411	10.33
411.774	10.2
412.136	9.9
412.499	10.09
412.861	10.37
413.223	9.99
413.586	10.08
413.948	10.35
414.31	10.27
414.672	10.33
415.035	10.38
415.397	10.25
415.759	10.29
416.121	10.48
416.483	10.27
416.845	10.4
417.206	10.28
417.568	10.41
417.93	10.34
418.292	10.3
418.653	10.54
419.015	10.58
419.377	10.44
419.738	10.57
420.1	10.44
420.461	10.62
420.822	10.42
421.184	10.47
421.545	10.54
421.906	10.56
422.267	10.45
422.629	10.44
422.99	10.6
423.351	10.61
423.712	10.68
424.073	10.86
424.434	10.8
424.795	10.97
425.155	10.86
425.516	10.9
425.877	10.89
426.238	10.97
426.598	10.92
426.959	10.97
427.32	11.18
427.68	11.29
428.041	11.41
428.401	11.31
428.761	11.44
429.122	11.69
429.482	11.69
429.842	11.62
430.202	11.78
430.563	12.02
430.923	11.83
431.283	11.74
431.643	11.79
432.003	12.16
432.363	11.9
432.722	12.33
433.082	12.04
433.442	12.32
433.802	12.22
434.161	12.06
434.521	12.26
434.881	12.35
435.24	12.23
435.6	12.26
435.959	12.44
436.319	12.39
436.678	12.51
437.037	12.6
437.396	12.82
437.756	12.62
438.115	12.71
438.474	12.79
438.833	12.98
439.192	12.9
439.551	12.95
439.91	12.9
440.269	12.78
440.628	13.05
440.987	12.82
441.345	13.06
441.704	12.97
442.063	12.95
442.421	13.08
442.78	12.89
443.138	13.08
443.497	13.12
443.855	13.38
444.214	13.39
444.572	13.43
444.93	13.52
445.288	13.47
445.647	13.66
446.005	13.51
446.363	13.59
446.721	13.56
447.079	13.43
447.437	13.41
447.795	13.46
448.153	13.36
448.51	13.55
448.868	13.51
449.226	13.7
449.584	13.75
449.941	13.8
450.299	13.81
450.656	13.92
451.014	14.08
451.371	14.07
451.729	14.08
452.086	14.25
452.443	14.45
452.801	14.4
453.158	14.46
453.515	14.39
453.872	14.3
454.229	14.48
454.586	14.41
454.943	14.54
455.3	14.57
455.657	14.56
456.014	14.54
456.371	14.62
456.727	14.85
457.084	14.56
457.441	14.92
457.797	14.71
458.154	14.8
458.51	15
458.867	14.83
459.223	15.11
459.58	15.1
459.936	15.02
460.292	15.16
460.648	15.02
461.005	14.94
461.361	14.77
461.717	14.82
462.073	14.89
462.429	15.03
462.785	15.18
463.141	15.22
463.496	15.28
463.852	15.48
464.208	15.53
464.564	15.67
464.919	15.47
465.275	15.48
465.631	15.54
465.986	15.96
466.342	15.74
466.697	15.86
467.052	15.68
467.408	15.81
467.763	15.94
468.118	15.96
468.473	16
468.829	16.03
469.184	15.96
469.539	16.07
469.894	16.17
470.249	16.3
470.603	16.01
470.958	16.16
471.313	16.19
471.668	16.34
472.023	16.27
472.377	16.47
472.732	16.52
473.086	16.35
473.441	16.48
473.795	16.51
474.15	16.51
474.504	16.67
474.859	16.67
475.213	16.69
475.567	16.64
475.921	16.66
476.275	16.53
476.63	16.81
476.984	17.04
477.338	16.83
477.692	16.87
478.045	16.91
478.399	17.04
478.753	16.83
479.107	16.89
479.461	16.95
479.814	16.91
480.168	17.04
480.521	17.16
480.875	17.16
481.228	17.1
481.582	17.14
481.935	17.01
482.289	17.05
482.642	17.22
482.995	17.14
483.348	17.06
483.701	17.12
484.055	16.88
484.408	16.86
484.761	16.75
485.114	16.48
485.466	16.43
485.819	16.45
486.172	16.53
486.525	16.69
486.878	16.87
487.23	17.02
487.583	17.15
487.936	17.15
488.288	17.08
488.641	16.93
488.993	16.88
489.345	16.91
489.698	16.93
490.05	16.98
490.402	17.09
490.754	17.22
491.107	17.45
491.459	17.59
491.811	17.63
492.163	17.84
492.515	17.61
492.866	17.5
493.218	17.27
493.57	17.33
493.922	17.46
494.274	17.64
494.625	17.78
494.977	18.02
495.328	18.16
495.68	18.24
496.031	18.41
496.383	18.55
496.734	18.59
497.086	18.51
497.437	18.59
497.788	18.46
498.139	18.46
498.49	18.34
498.842	18.35
499.193	18.35
499.544	18.58
499.894	18.51
500.245	18.6
500.596	18.69
500.947	18.68
501.298	18.8
501.648	18.85
501.999	19
502.35	19.03
502.7	19.03
503.051	19.13
503.401	19
503.752	18.98
504.102	19.03
504.452	19.29
504.803	19.18
505.153	19.21
505.503	19.18
505.853	19.28
506.203	19.26
506.553	19.26
506.903	19.29
507.253	19.23
507.603	19.45
507.953	19.47
508.303	19.29
508.652	19.53
509.002	19.36
509.352	19.41
509.701	19.44
510.051	19.48
510.4	19.52
510.75	19.33
511.099	19.33
511.449	19.46
511.798	19.33
512.147	19.5
512.496	19.56
512.846	19.61
513.195	19.53
513.544	19.56
513.893	19.66
514.242	19.61
514.591	19.79
514.939	19.63
515.288	19.85
515.637	19.89
515.986	19.86
516.334	19.96
516.683	19.96
517.032	20.15
517.38	19.99
517.729	20.19
518.077	20.1
518.426	20.11
518.774	19.96
519.122	19.98
519.47	20.06
519.819	19.9
520.167	19.75
520.515	19.84
520.863	19.76
521.211	19.79
521.559	19.93
521.907	19.99
522.255	20.15
522.602	20.21
522.95	20.15
523.298	20.36
523.645	20.42
523.993	20.35
524.341	20.48
524.688	20.53
525.036	20.44
525.383	20.5
525.73	20.4
526.078	20.43
526.425	20.28
526.772	20.32
527.119	20.18
527.466	20.13
527.814	20.24
528.161	20.27
528.508	20.18
528.854	20.27
529.201	20.26
529.548	19.97
529.895	19.8
530.242	19.65
530.588	19.77
530.935	19.9
531.282	20.05
531.628	20.16
531.975	20.2
532.321	20.36
532.667	20.52
533.014	20.42
533.36	20.65
533.706	20.73
534.052	20.7
534.399	20.61
534.745	20.28
535.091	20.28
535.437	20.29
535.783	20.52
536.129	20.67
536.474	20.9
536.82	20.83
537.166	20.94
537.512	21.02
537.857	20.93
538.203	20.87
538.549	20.88
538.894	20.94
539.239	21.04
539.585	21.12
539.93	21.25
540.276	21.58
540.621	21.32
540.966	21.6
541.311	21.39
541.656	21.49
542.001	21.34
542.346	21.2
542.691	20.82
543.036	20.69
543.381	20.77
543.726	20.86
544.071	21.07
544.415	21.25
544.76	21.37
545.105	21.18
545.449	21.41
545.794	21.51
546.138	21.57
546.483	21.68
546.827	21.96
547.171	21.81
547.516	21.76
547.86	21.75
548.204	21.98
548.548	21.66
548.892	21.76
549.236	21.98
549.58	22.06
549.924	22.22
550.268	22.43
550.612	22.42
550.956	22.57
551.3	22.36
551.643	22.59
551.987	22.56
552.33	22.65
552.674	22.36
553.017	22.78
553.361	22.82
553.704	22.63
554.048	22.65
554.391	22.71
554.734	22.65
555.077	22.78
555.42	22.69
555.764	22.8
556.107	22.84
556.45	23.05
556.793	23.03
557.135	23.13
557.478	23.17
557.821	23.01
558.164	23.01
558.507	23.02
558.849	23.12
559.192	23.15
559.534	23.43
559.877	23.36
560.219	23.28
560.562	23.55
560.904	23.38
561.246	23.17
561.589	23.5
561.931	23.26
562.273	23.35
562.615	23.35
562.957	23.33
563.299	23.37
563.641	23.42
563.983	23.71
564.325	23.48
564.667	23.62
565.008	23.85
565.35	23.84
565.692	23.46
566.033	23.61
566.375	23.68
566.716	23.65
567.058	23.78
567.399	23.68
567.741	23.82
568.082	23.74
568.423	23.64
568.764	23.64
569.105	23.65
569.447	23.87
569.788	24.04
570.129	23.8
570.47	23.94
570.811	24.13
571.151	24.25
571.492	24.09
571.833	24.25
572.174	24.34
572.514	24.24
572.855	24.07
573.195	23.91
573.536	24.05
573.876	24.22
574.217	24.28
574.557	23.98
574.898	24.33
575.238	24.27
575.578	24.48
575.918	24.37
576.258	24.27
576.598	24.51
576.938	24.5
577.278	24.29
577.618	24.51
577.958	24.5
578.298	24.68
578.638	24.8
578.977	24.71
579.317	24.8
579.657	24.99
579.996	24.72
580.336	24.86
580.675	25.12
581.014	24.79
581.354	25.17
581.693	25.13
582.032	24.85
582.372	25.3
582.711	25.49
583.05	25.05
583.389	25.21
583.728	25.21
584.067	25.35
584.406	25.32
584.745	25.37
585.083	24.98
585.422	25.3
585.761	25.32
586.1	25.24
586.438	25.52
586.777	25.67
587.115	25.51
587.454	25.45
587.792	25.54
588.13	25.64
588.469	25.37
588.807	25.89
589.145	25.54
589.483	26.02
589.821	25.74
590.159	25.71
590.497	25.95
590.835	25.82
591.173	25.93
591.511	25.78
591.849	25.64
592.187	25.77
592.524	26.03
592.862	25.94
593.2	25.99
593.537	26.15
593.875	26.09
594.212	26.1
594.55	26.16
594.887	26.31
595.224	26.02
595.561	26.06
595.899	26.25
596.236	26.33
596.573	26.34
596.91	26.37
597.247	26.25
597.584	26.18
597.921	26.44
598.258	26.26
598.594	26.09
598.931	26.13
599.268	26.06
599.604	26.34
599.941	26.5
600.277	26.63
600.614	26.71
600.95	26.44
601.287	26.76
601.623	26.94
601.959	26.96
602.296	26.86
602.632	26.87
602.968	27.17
603.304	26.96
603.64	27.08
603.976	26.92
604.312	26.71
604.648	26.71
604.984	27.06
605.319	26.97
605.655	26.84
605.991	26.88
606.326	27.05
606.662	26.79
606.998	26.87
607.333	27.07
607.668	27
608.004	27.24
608.339	27.07
608.674	27.2
609.01	27.26
609.345	27.18
609.68	27.3
610.015	27.57
610.35	27.18
610.685	27.21
611.02	27.14
611.355	27.13
611.689	27.26
612.024	27.47
612.359	27.34
612.694	27.61
613.028	27.58
613.363	27.9
613.697	27.84
614.032	27.93
614.366	27.65
614.7	27.81
615.035	27.76
615.369	27.8
615.703	27.86
616.037	28.13
616.371	28.21
616.705	27.92
617.039	28.1
617.373	28.18
617.707	28.23
618.041	28.2
618.375	28.13
618.709	28.22
619.042	27.99
619.376	28.34
619.71	28.17
620.043	28.29
620.377	28.2
620.71	28.2
621.043	28.24
621.377	28.2
621.71	28.22
622.043	28.5
622.376	28.4
622.709	28.35
623.043	28.39
623.376	28.73
623.709	28.52
624.041	28.85
624.374	27.97
624.707	28.77
625.04	28.2
625.373	28.61
625.705	28.71
626.038	28.99
626.37	28.68
626.703	28.77
627.035	28.79
627.368	28.4
627.7	29.02
628.032	28.95
628.365	28.56
628.697	28.93
629.029	28.72
629.361	28.69
629.693	28.81
630.025	29.07
630.357	29.11
630.689	28.49
631.021	28.84
631.353	29.21
631.684	29.04
632.016	29.01
632.348	29.2
632.679	29.25
633.011	29.24
633.342	29.15
633.674	29.12
634.005	29.27
634.336	29.19
634.668	29.29
634.999	29.19
635.33	29.48
635.661	29.49
635.992	29.48
636.323	29.07
636.654	29.36
636.985	29.57
637.316	29.18
637.647	29.88
637.977	29.81
638.308	29.54
638.639	29.62
638.969	29.72
639.3	29.94
639.63	29.54
639.961	29.79
640.291	30.02
640.622	30.5
640.952	30.04
641.282	29.8
641.612	29.77
641.943	30.08
642.273	29.82
642.603	29.97
642.933	30.05
643.263	29.93
643.592	30.36
643.922	30.08
644.252	30.22
644.582	30.07
644.911	29.69
645.241	29.97
645.571	30.47
645.9	30.43
646.23	30.32
646.559	29.88
646.888	30.05
647.218	30.2
647.547	29.94
647.876	30.08
648.205	30.24
648.534	30.25
648.863	30.21
649.192	31.05
649.521	30.84
649.85	30.28
650.179	30.7
650.508	30.57
650.837	30.89
651.165	30.04
651.494	30.63
651.822	29.93
652.151	30.42
652.479	30.45
652.808	30.51
653.136	30.16
653.465	31.21
653.793	30.77
654.121	30.88
654.449	30.68
654.777	30.97
655.105	30.74
655.433	31.11
655.761	30.75
656.089	31.01
656.417	31.14
656.745	31.15
657.073	31.01
657.4	30.79
657.728	30.57
658.056	31.43
658.383	31.45
658.711	31.4
659.038	31.46
659.365	30.64
659.693	31.27
660.02	31.31
660.347	31.04
660.674	30.86
661.001	31.15
661.329	31.4
661.656	31.09
661.982	31.54
662.309	31.13
662.636	31.73
662.963	31.29
663.29	31.51
663.616	30.92
663.943	31.22
664.27	31.37
664.596	31.76
664.923	31.32
665.249	31.77
665.576	31.81
665.902	31.5
666.228	31.72
666.554	31.62
666.881	31.86
667.207	32.04
667.533	32.62
667.859	31.66
668.185	31.92
668.511	32.14
668.837	31.77
669.162	32.53
669.488	32.42
669.814	31.68
670.139	31.63
670.465	31.77
670.791	32.24
671.116	31.41
671.442	32.1
671.767	32.13
672.092	32.04
672.418	31.96
672.743	31.43
673.068	32.4
673.393	32.66
673.718	32.42
674.043	31.84
674.368	32.67
674.693	31.73
675.018	32.26
675.343	32.12
675.667	32.44
675.992	32.59
676.317	32.37
676.641	31.53
676.966	32.73
677.29	32.02
677.615	32.12
677.939	32.37
678.264	31.95
678.588	32.38
678.912	32.01
679.236	32.14
679.56	32.83
679.885	32.09
680.209	32.1
680.532	32.48
680.856	32.93
681.18	31.69
681.504	32.36
681.828	32.5
682.152	32.37
682.475	32.54
682.799	31.88
683.122	32.38
683.446	32.61
683.769	33.07
684.093	32.74
684.416	32.81
684.739	32.77
685.062	32.66
685.386	33.05
685.709	32.88
686.032	33.37
686.355	33.04
686.678	32.52
687.001	32.44
687.324	32.87
687.646	32.69
687.969	33.04
688.292	33.29
688.614	33.3
688.937	32.78
689.26	32.69
689.582	33.51
689.904	32.93
690.227	32.85
690.549	32.8
690.871	32.73
691.194	33.58
691.516	33.27
691.838	33.32
692.16	32.86
692.482	33.3
692.804	33.2
693.126	33.22
693.448	33.24
693.769	33.92
694.091	33.38
694.413	33.53
694.735	33.32
695.056	33.39
695.378	34.47
695.699	33.69
696.021	32.8
696.342	33.08
696.663	33.48
696.984	33.52
697.306	33.9
697.627	33.56
697.948	34.41
698.269	33.6
698.59	33.03
698.911	34.03
699.232	33.64
699.553	33.91
699.873	33.79
700.194	33.62
700.515	33.95
700.835	33.42
701.156	33.6
701.477	33.52
701.797	33.83
702.117	33.8
702.438	33.82
702.758	33.34
703.078	34.65
703.398	34.35
703.719	33.39
704.039	34.39
704.359	34.23
704.679	34.77
704.999	33.8
705.319	33.32
705.638	34.86
705.958	33.81
706.278	33.92
706.597	33.43
706.917	33.51
707.237	34.24
707.556	34.44
707.876	34.87
708.195	34.18
708.514	33.99
708.834	33.88
709.153	33.84
709.472	33.87
709.791	34.25
710.11	34.39
710.429	33.93
710.748	34.23
711.067	34.41
711.386	33.83
711.705	34.09
712.023	35.08
712.342	34.77
712.661	34.24
712.979	34.19
713.298	34.89
713.616	35.14
713.935	34.49
714.253	34.96
714.572	34.38
714.89	34.36
715.208	34.54
715.526	34.61
715.844	34.17
716.162	34.53
716.48	34.24
716.798	34.13
717.116	34.26
717.434	35.09
717.752	34.16
718.069	34.8
718.387	34.3
718.705	33.84
719.022	35.14
719.34	35.69
719.657	34.24
719.975	34.9
720.292	34.63
720.609	34.26
720.927	34.1
721.244	34.53
721.561	35.29
721.878	35.02
722.195	34.76
722.512	34.79
722.829	35.18
723.146	34.97
723.463	34.04
723.779	34.41
724.096	34.95
724.413	34.47
724.729	35.25
725.046	35.46
725.362	35.2
725.679	35.12
725.995	35.34
726.311	34.09
726.628	34.79
726.944	35.19
727.26	33.71
727.576	35.71
727.892	34.72
728.208	35.24
728.524	35.43
728.84	35.77
729.156	35.56
729.472	34.49
729.787	34.09
730.103	35.33
730.419	35.33
730.734	33.95
731.05	35.58
731.365	35.71
731.681	35.63
731.996	35.76
732.311	35.61
732.626	35.38
732.942	35.9
733.257	34.43
733.572	35.96
733.887	35.83
734.202	36.49
734.517	35.65
734.832	34.49
735.146	35.64
735.461	34.71
735.776	36.07
736.091	35.93
736.405	35.86
736.72	35.29
737.034	34.77
737.349	35.81
737.663	36.28
737.977	36.12
738.292	36.36
738.606	34.95
738.92	36.16
739.234	34.88
739.548	36.7
739.862	36.64
740.176	34.5
740.49	35.56
740.804	37.1
741.117	35.07
741.431	32.97
741.745	35.01
742.058	35.15
742.372	34.27
742.685	35.45
742.999	36.42
743.312	36.61
743.626	35.15
743.939	37.74
744.252	34.48
744.565	35.85
744.878	37.98
745.191	35.49
745.505	35.44
745.817	37.5
746.13	37.06
746.443	37.08
746.756	35.7
747.069	37.61
747.381	36.59
747.694	36.41
748.007	36.31
748.319	36.08
748.632	35
748.944	37.17
749.256	35.82
749.569	36.7
749.881	35.88
750.193	36.68
750.505	36.83
750.817	37.51
751.129	37.34
751.441	34.65
751.753	34.92
752.065	36.96
752.377	36.27
752.689	36.34
753	37.55
753.312	36.51
753.624	36.1
753.935	35.81
754.247	35.32
754.558	36.14
754.869	37.56
755.181	38.02
755.492	37.94
755.803	35.06
756.114	36.38
756.425	37.24
756.736	36.26
757.047	36.39
757.358	36.56
757.669	35.73
757.98	36.41
758.291	37.38
758.601	36.04
758.912	35.76
759.223	36.85
759.533	37.23
759.844	35.32
760.154	37.89
760.464	36.72
760.775	37
761.085	37.08
761.395	36.48
761.705	37.14
762.016	35.3
762.326	36.51
762.636	36.47
762.945	36.47
763.255	38.25
763.565	37.29
763.875	36.04
764.185	37.12
764.494	38.51
764.804	37.71
765.113	37.06
765.423	37.06
765.732	35.94
766.042	36.63
766.351	37.49
766.66	37.31
766.97	36.72
767.279	35.97
767.588	36.78
767.897	37.76
768.206	37.54
768.515	35.78
768.824	35.84
769.133	37.19
769.441	36.31
769.75	38.29
770.059	38.24
770.367	35.02
770.676	38.47
770.984	35.36
771.293	38.55
771.601	38.42
771.91	36.3
772.218	39
772.526	36.3
772.834	38.27
773.142	37.22
773.45	35.75
773.758	37.93
774.066	38.45
774.374	36.42
774.682	36.84
774.99	35.5
775.298	37.16
775.605	38.28
775.913	40.01
776.22	36.85
776.528	38.39
776.835	35.72
777.143	39.73
777.45	34.28
777.757	39
778.065	38.44
778.372	38.08
778.679	35.49
778.986	39.33
779.293	37.55
779.6	37.82
779.907	37.08
780.214	38.04
780.52	35.7
780.827	37.08
781.134	41.05
781.44	36.66
781.747	38.79
782.053	38.47
782.36	38.68
782.666	39.17
782.973	35.23
783.279	36.53
783.585	38.17
783.891	38.72
784.197	38.91
784.503	35.25
784.809	36.88
785.115	37.14
785.421	35.35
785.727	39.09
786.033	39.75
786.339	37.08
786.644	35.49
786.95	37.29
787.255	37.13
787.561	38.04
787.866	35.16
788.172	34.77
788.477	39.78
788.782	37.53
789.088	35.7
789.393	41.32
789.698	37.5
790.003	39.32
790.308	37.38
790.613	37.15
790.918	36.98
791.223	37.86
791.527	36.74
791.832	36.68
792.137	37.51
792.441	38.24
792.746	33.87
793.05	34.29
793.355	40.12
793.659	37.9
793.963	35.59
794.268	41.42
794.572	38.73
794.876	34.16
795.18	36.25
795.484	34.48
795.788	31.08
796.092	35.77
796.396	38.32
796.7	38.94
797.004	40.79
797.307	40.1
797.611	35.59
797.915	40.44
798.218	37.87
798.522	38.63
798.825	39.08
799.128	38.03
799.432	33.74
799.735	37.11
800.038	37.7
800.341	39.19
800.644	38.11
800.947	34.99
801.25	37.48
801.553	36.52
801.856	41.41
802.159	32.76
802.462	36.1
802.764	37.1
803.067	35.92
803.37	36.09
803.672	36.94
803.975	35.04
804.277	36.21
804.579	39.54
804.882	38.78
805.184	39.49
805.486	41.57
805.788	38.59
806.09	38.56
806.392	39.21
806.694	41.34
806.996	41.88
807.298	32.81
807.6	37.77
807.902	38.06
808.203	35.64
808.505	38.87
808.807	38.7
809.108	38.37
809.409	38.91
809.711	36.97
810.012	41.9
810.313	43.45
810.615	36.58
810.916	35.8
811.217	35.19
811.518	35.34
811.819	41.18
812.12	36.4
812.421	44.49
812.722	41.54
813.023	31.7
813.323	37.71
813.624	37.04
813.925	39.42
814.225	35.6
814.526	36.93
814.826	33.63
815.126	35.61
815.427	42.4
815.727	33.62
816.027	32.26
816.327	37.19
816.627	37.93
816.927	33.57
817.227	37.47
817.527	37.68
817.827	40.38
818.127	43.35
818.427	39.8
818.727	30.55
819.026	36.12
819.326	33.6
819.625	41.47
819.925	42.12
820.224	37.49
820.524	32.08
820.823	39.96
821.122	43.82
821.421	35.17
821.72	38.74
822.019	40.16
822.318	38.99
822.617	36.44
822.916	38.58
823.215	40.32
823.514	39.36
823.813	37.7
824.111	38.31
824.41	40.24
824.709	39.33
825.007	38.17
825.306	38.5
825.604	39.41
825.902	39.46
826.201	39.54
826.499	39.7
826.797	38.82
827.095	39.82
827.393	38.67
827.691	39.32
827.989	40.71
828.287	39.1
828.585	39.42
828.882	39.44
829.18	38.84
829.478	39.05
829.775	39.37
830.073	39.96
830.37	40.93
830.668	38.26
830.965	39.15
831.263	41.4
831.56	40.02
831.857	40.47
832.154	36.54
832.451	41.57
832.748	36.55
833.045	39.96
833.342	42.48
833.639	35.13
833.936	38.32
834.232	37.83
834.529	37.12
834.826	39.86
835.122	40.53
835.419	38.83
835.715	39.01
836.012	39.34
836.308	35.66
836.604	38.82
836.901	39.42
837.197	40.83
837.493	37.73
837.789	38.29
838.085	39.4
838.381	41.6
838.677	39.54
838.972	41.27
839.268	43.79
839.564	41
839.86	35.88
840.155	43.19
840.451	40.67
840.746	34.71
841.042	36.02
841.337	38.67
841.632	39.91
841.928	35.92
842.223	36.79
842.518	39.85
842.813	29.94
843.108	40.51
843.403	43.83
843.698	42.5
843.993	42.65
844.287	41.06
844.582	37.82
844.877	41.67
845.171	42.51
845.466	42.81
845.761	34.55
846.055	37.32
846.349	17.55
846.644	24.68
846.938	44.08
847.232	36.6
847.526	41.09
847.82	35.4
848.114	31.21
848.408	42.15
848.702	55.26
848.996	49.31
849.29	35.65
849.584	35.33
849.877	30.7
850.171	18.67
850.465	39.36
850.758	33.19
851.052	33.79
851.345	34.03
851.638	55.28
851.932	10.5
852.225	21.98
852.518	33.17
852.811	27.03
853.104	44.64
853.397	34
853.69	32.82
853.983	28.18
854.276	44.81
854.569	41.39
854.861	32.88
855.154	42.95
855.447	51.26
855.739	17.47
856.032	47.15
856.324	46.39
856.616	28.6
856.909	5.56
857.201	56.52
857.493	46.16
857.785	46.04
858.077	52.14
858.369	30.49
858.661	33.19
858.953	36.79
859.245	38.52
859.537	41.53
859.829	47.04
860.12	23.76
860.412	47.76
860.703	22.81
860.995	32.35
861.286	23.85
861.578	20.29
861.869	44.91
862.16	7.71
862.452	64.47
862.743	26.22
863.034	-2.76
863.325	60.79
863.616	34.73
863.907	42.22
864.198	13.26
864.488	29.04
864.779	69.46
865.07	16.53
865.36	41.22
865.651	55.56
865.941	41.48
866.232	47.75
866.522	42.17
866.813	43.77
867.103	33.18
867.393	41.39
867.683	27.74
867.973	19.66
868.263	28.24
868.553	31.05
868.843	63.81
869.133	34.53
869.423	26.69
869.713	36.18
870.002	-16.86
870.292	29.15
870.582	52.83
870.871	39
871.161	37.77
871.45	57.53
871.739	34.51
872.029	22.47
872.318	24.21
872.607	42.51
872.896	19.21
873.185	42.43
873.474	24.74
873.763	27.51
874.052	27.02
874.341	41.26
874.63	42.78
874.918	35.6
875.207	29.79
875.496	29.45
875.784	22.22
876.073	27.98
876.361	31.08
876.649	51.94
876.938	14.53
877.226	18.75
877.514	34.67
877.802	32.43
878.09	50.39
878.378	48.92
878.666	63.43
878.954	14.7
879.242	45.81
879.53	31.46
879.817	24.24
880.105	45.99
880.392	35.65
880.68	49.29
880.967	62.07
881.255	33.74
881.542	22.7
881.83	21.65
882.117	27.84
882.404	39.62
882.691	52.19
882.978	58.55
883.265	41.72
883.552	41.45
883.839	27.86
884.126	37.99
884.413	38.41
884.699	36.61
884.986	38.61
885.273	41.92
885.559	41.92
885.846	41.92
