Data from 20-6_forehead_Reflection__0__131.txt Node

Date: Fri Nov 11 21:07:53 CST 2022
User: ToomeyLab
Spectrometer: FLMS14357
Trigger mode: 0
Integration Time (sec): 1.000000E-2
Scans to average: 100
Electric dark correction enabled: true
Nonlinearity correction enabled: false
Boxcar width: 0
XAxis mode: Wavelengths
Number of Pixels in Spectrum: 2048
>>>>>Begin Spectral Data<<<<<
189.047	88.98
189.435	88.98
189.823	88.98
190.211	1557.43
190.599	-20.4
190.987	74.68
191.375	12.63
191.763	-196.19
192.151	-185.29
192.538	410.11
192.926	58.05
193.314	23.61
193.702	170.22
194.089	-626.77
194.477	2.51
194.864	76.1
195.252	112.91
195.639	149.2
196.027	49.64
196.414	84.04
196.801	37.52
197.189	195.18
197.576	1403.72
197.963	115.15
198.351	-261.06
198.738	-11.26
199.125	-1.07
199.512	7.46
199.899	-55.99
200.286	-0.38
200.673	-17.97
201.06	41.21
201.447	44.38
201.833	4.22
202.22	13.1
202.607	35.21
202.994	12.84
203.38	9.31
203.767	71.82
204.154	31.21
204.54	79.17
204.927	45.28
205.313	17.32
205.699	-39.06
206.086	27.9
206.472	22.12
206.858	13.68
207.245	54.46
207.631	22.26
208.017	23.49
208.403	-17.31
208.789	8.85
209.175	-13.32
209.561	35.81
209.947	10.97
210.333	14.39
210.719	2.68
211.105	53.19
211.491	24.88
211.876	30.93
212.262	54.05
212.648	25.87
213.034	8.79
213.419	-30.4
213.805	-0.52
214.19	-5.93
214.576	21.57
214.961	-52.88
215.346	-41.88
215.732	-29.37
216.117	29.63
216.502	6.82
216.888	-35.83
217.273	18.61
217.658	-34.03
218.043	41.46
218.428	33.04
218.813	-2.33
219.198	-7.36
219.583	23.72
219.968	-0.41
220.353	7.12
220.738	-15.97
221.122	-12.3
221.507	-46.15
221.892	4.87
222.276	14.77
222.661	19.8
223.046	-9.62
223.43	-4.24
223.815	5.05
224.199	15.2
224.583	-3.81
224.968	-10.83
225.352	-1.48
225.736	-9.73
226.121	6.59
226.505	6.72
226.889	-12.72
227.273	2.23
227.657	-3.46
228.041	-0.84
228.425	-1.68
228.809	3.4
229.193	3.8
229.577	4.27
229.961	2.6
230.344	2.45
230.728	1.3
231.112	1.06
231.495	1.83
231.879	-0.52
232.263	1.19
232.646	0.59
233.03	2.07
233.413	1.28
233.797	0.37
234.18	0.75
234.563	2.68
234.946	3
235.33	2.04
235.713	0.99
236.096	1.11
236.479	0.97
236.862	4.26
237.245	1.03
237.628	0.79
238.011	1.66
238.394	-0.07
238.777	2.41
239.16	3.63
239.543	0.98
239.925	2.77
240.308	1.11
240.691	2.87
241.073	0.56
241.456	0.77
241.838	3.3
242.221	0.51
242.603	2.33
242.986	1.35
243.368	1.88
243.75	1.9
244.133	1.89
244.515	1.82
244.897	2.08
245.279	2.01
245.661	2.53
246.043	2.69
246.425	2.77
246.807	1.56
247.189	1.23
247.571	1.76
247.953	1.95
248.335	1.91
248.717	2.03
249.098	2.22
249.48	1.6
249.862	2.05
250.243	1.73
250.625	2.18
251.006	2.73
251.388	2.18
251.769	2.35
252.151	1.66
252.532	2.26
252.913	2.85
253.295	2.26
253.676	1.69
254.057	1.87
254.438	2.48
254.819	1.15
255.2	2.42
255.581	2.41
255.962	2.15
256.343	2.3
256.724	1.23
257.105	2.2
257.486	1.44
257.867	2.92
258.247	0.77
258.628	2.49
259.009	1.77
259.389	1.34
259.77	2.94
260.15	2.01
260.531	1.89
260.911	1.87
261.292	2.31
261.672	1.91
262.052	2.06
262.432	2.22
262.813	2.07
263.193	2.01
263.573	2.3
263.953	2.35
264.333	1.43
264.713	2.17
265.093	2.06
265.473	0.48
265.853	1.8
266.233	1.77
266.612	1.87
266.992	1.22
267.372	3.03
267.752	1.91
268.131	1.4
268.511	1.99
268.89	2.07
269.27	1.42
269.649	1.89
270.029	2.38
270.408	1.7
270.787	1.79
271.167	1.08
271.546	1.35
271.925	1.87
272.304	1.88
272.683	1.95
273.062	1.84
273.441	2.02
273.82	2.08
274.199	2.07
274.578	1.8
274.957	2.15
275.336	2.3
275.715	2.2
276.093	2.06
276.472	2.07
276.851	1.48
277.229	2.1
277.608	2.07
277.986	2.44
278.365	2.16
278.743	1.81
279.122	2.29
279.5	1.91
279.878	2.16
280.257	2.09
280.635	1.87
281.013	1.97
281.391	2.31
281.769	1.57
282.147	1.69
282.525	1.59
282.903	1.45
283.281	2.01
283.659	2.17
284.037	2.44
284.415	1.75
284.792	1.89
285.17	2.25
285.548	1.71
285.925	1.74
286.303	1.85
286.68	2.23
287.058	1.82
287.435	1.82
287.813	2
288.19	1.6
288.567	1.49
288.945	2.03
289.322	2.25
289.699	1.23
290.076	2.3
290.453	2.17
290.83	1.59
291.207	1.57
291.584	2.47
291.961	1.86
292.338	2.12
292.715	2.04
293.092	2.51
293.469	2.17
293.845	1.98
294.222	1.69
294.599	2.27
294.975	2.41
295.352	2.14
295.728	2.32
296.105	1.85
296.481	1.9
296.858	2.01
297.234	2.33
297.61	2.1
297.986	2.01
298.363	2.75
298.739	2.66
299.115	2.49
299.491	2.75
299.867	2.23
300.243	2.67
300.619	2.49
300.995	2.7
301.371	3
301.746	2.83
302.122	2.89
302.498	3.15
302.874	2.42
303.249	2.91
303.625	2.37
304	2.16
304.376	2.62
304.751	2.38
305.127	2.58
305.502	2.8
305.878	3.53
306.253	2.96
306.628	3.07
307.003	3.15
307.378	2.69
307.754	3.2
308.129	3.06
308.504	2.76
308.879	3.24
309.254	3.66
309.629	2.92
310.003	3.26
310.378	3.01
310.753	3.08
311.128	3.46
311.502	3.43
311.877	3.09
312.252	3.07
312.626	3.19
313.001	3.37
313.375	3.31
313.75	3.15
314.124	3.04
314.498	3.75
314.873	3.06
315.247	3.94
315.621	3.75
315.995	3.93
316.369	3.7
316.743	3.18
317.117	3.58
317.491	3.93
317.865	3.15
318.239	4.01
318.613	4.02
318.987	3.82
319.361	3.69
319.734	4.17
320.108	3.88
320.482	4.47
320.855	3.93
321.229	3.73
321.602	4.25
321.976	3.92
322.349	4.53
322.723	4.62
323.096	4.05
323.469	4.23
323.843	4.93
324.216	4.1
324.589	4.1
324.962	5.25
325.335	4.29
325.708	4.64
326.081	4.31
326.454	4.23
326.827	4.44
327.2	4.71
327.573	5.51
327.945	4.65
328.318	4.6
328.691	4.81
329.063	4.62
329.436	4.6
329.809	4.47
330.181	4.55
330.553	4.37
330.926	4.51
331.298	4.47
331.671	4.5
332.043	4.46
332.415	4.75
332.787	4.93
333.159	4.68
333.532	4.85
333.904	5
334.276	4.89
334.648	4.7
335.02	5.11
335.391	5.38
335.763	5.2
336.135	5.14
336.507	5.35
336.879	5.22
337.25	4.97
337.622	5.39
337.993	5.07
338.365	5.35
338.736	5.04
339.108	5.42
339.479	4.78
339.851	5.5
340.222	5.47
340.593	5.8
340.964	5.55
341.336	5.56
341.707	5.44
342.078	4.85
342.449	5.66
342.82	5.65
343.191	5.99
343.562	5.54
343.933	5.3
344.303	5.42
344.674	5.39
345.045	5.56
345.416	5.77
345.786	5.55
346.157	5.68
346.527	5.58
346.898	5.29
347.268	5.6
347.639	5.83
348.009	5.72
348.38	6
348.75	5.69
349.12	6.64
349.49	6.58
349.861	5.74
350.231	6.28
350.601	5.94
350.971	5.98
351.341	6.28
351.711	6.08
352.081	6.4
352.45	6.47
352.82	5.92
353.19	6.42
353.56	6.1
353.929	5.94
354.299	6.07
354.669	6.22
355.038	5.97
355.408	6.3
355.777	6.22
356.147	6.38
356.516	6.13
356.885	6.45
357.254	6.54
357.624	5.92
357.993	6.73
358.362	6.37
358.731	6.33
359.1	6.6
359.469	6.21
359.838	6.44
360.207	6.5
360.576	6.43
360.945	6.92
361.314	6.39
361.682	6.81
362.051	6.54
362.42	6.71
362.788	6.97
363.157	6.6
363.525	6.8
363.894	6.74
364.262	7.09
364.631	7.11
364.999	7.08
365.367	7.04
365.735	6.99
366.104	7.04
366.472	6.99
366.84	6.6
367.208	6.85
367.576	7.29
367.944	7.21
368.312	7.13
368.68	6.96
369.048	7.3
369.416	7.11
369.783	7.35
370.151	7.17
370.519	7.39
370.886	7.26
371.254	7.77
371.621	7.39
371.989	7.36
372.356	7.52
372.724	7.6
373.091	7.77
373.458	7.62
373.826	7.4
374.193	7.45
374.56	7.45
374.927	7.44
375.294	7.8
375.661	7.84
376.028	7.34
376.395	7.79
376.762	8.03
377.129	7.95
377.496	7.82
377.863	7.79
378.229	7.76
378.596	7.8
378.963	7.86
379.329	8.16
379.696	7.85
380.062	7.73
380.429	7.95
380.795	8.16
381.161	8.42
381.528	8.05
381.894	7.87
382.26	8.29
382.626	8.31
382.993	8.11
383.359	8.35
383.725	8.08
384.091	8.25
384.457	8.3
384.823	7.97
385.188	8.17
385.554	8.22
385.92	8.12
386.286	8.32
386.651	8.54
387.017	8.5
387.383	8.42
387.748	8.15
388.114	8.41
388.479	8.27
388.845	8.41
389.21	8.56
389.575	8.37
389.94	8.6
390.306	8.32
390.671	8.63
391.036	8.62
391.401	8.35
391.766	8.65
392.131	8.51
392.496	8.62
392.861	8.75
393.226	8.5
393.591	8.57
393.956	8.77
394.32	8.64
394.685	8.73
395.05	8.8
395.414	8.76
395.779	8.74
396.143	8.67
396.508	8.93
396.872	8.78
397.236	8.66
397.601	8.84
397.965	8.96
398.329	9.03
398.694	9.03
399.058	8.92
399.422	8.91
399.786	8.96
400.15	8.98
400.514	9.17
400.878	8.95
401.242	8.9
401.605	9.06
401.969	9.06
402.333	8.83
402.697	9.07
403.06	9.19
403.424	8.88
403.787	9.1
404.151	8.77
404.514	8.87
404.878	9.1
405.241	9.07
405.604	8.97
405.968	9.14
406.331	8.82
406.694	8.84
407.057	9.14
407.42	9.22
407.783	9.08
408.146	9.1
408.509	9.18
408.872	9.12
409.235	9.32
409.598	9.26
409.961	9.15
410.323	9.05
410.686	9.15
411.049	9.26
411.411	9.3
411.774	9.22
412.136	9.02
412.499	9.2
412.861	9.21
413.223	9.03
413.586	9.3
413.948	9.44
414.31	9.29
414.672	9.46
415.035	9.45
415.397	9.19
415.759	9.42
416.121	9.36
416.483	9.34
416.845	9.56
417.206	9.52
417.568	9.38
417.93	9.3
418.292	9.14
418.653	9.49
419.015	9.54
419.377	9.56
419.738	9.49
420.1	9.45
420.461	9.56
420.822	9.54
421.184	9.51
421.545	9.61
421.906	9.67
422.267	9.54
422.629	9.49
422.99	9.58
423.351	9.7
423.712	9.73
424.073	9.85
424.434	10.01
424.795	10.12
425.155	9.95
425.516	10.02
425.877	9.98
426.238	10.11
426.598	10.02
426.959	10.07
427.32	10.22
427.68	10.32
428.041	10.39
428.401	10.18
428.761	10.55
429.122	10.61
429.482	10.73
429.842	10.49
430.202	10.96
430.563	10.91
430.923	10.87
431.283	10.86
431.643	10.85
432.003	10.87
432.363	10.86
432.722	11.15
433.082	11.2
433.442	11.31
433.802	11.26
434.161	11.09
434.521	11.1
434.881	11.46
435.24	11.38
435.6	11.28
435.959	11.29
436.319	11.45
436.678	11.48
437.037	11.62
437.396	11.77
437.756	11.79
438.115	11.8
438.474	11.87
438.833	11.9
439.192	11.9
439.551	11.79
439.91	11.91
440.269	11.84
440.628	11.95
440.987	11.93
441.345	12.05
441.704	11.87
442.063	11.9
442.421	11.98
442.78	11.91
443.138	12.2
443.497	12.1
443.855	12.23
444.214	12.23
444.572	12.4
444.93	12.45
445.288	12.43
445.647	12.54
446.005	12.5
446.363	12.57
446.721	12.54
447.079	12.62
447.437	12.49
447.795	12.45
448.153	12.47
448.51	12.57
448.868	12.57
449.226	12.52
449.584	12.77
449.941	12.75
450.299	12.84
450.656	13.04
451.014	13.09
451.371	13.17
451.729	13.07
452.086	13.4
452.443	13.36
452.801	13.38
453.158	13.31
453.515	13.33
453.872	13.39
454.229	13.47
454.586	13.34
454.943	13.48
455.3	13.49
455.657	13.51
456.014	13.69
456.371	13.69
456.727	13.73
457.084	13.67
457.441	13.83
457.797	13.78
458.154	13.71
458.51	13.94
458.867	13.91
459.223	14
459.58	13.88
459.936	13.96
460.292	14.01
460.648	13.94
461.005	13.89
461.361	13.75
461.717	13.73
462.073	13.92
462.429	14
462.785	14.04
463.141	14.14
463.496	14.37
463.852	14.52
464.208	14.54
464.564	14.54
464.919	14.58
465.275	14.54
465.631	14.63
465.986	14.68
466.342	14.75
466.697	14.82
467.052	14.8
467.408	14.86
467.763	14.65
468.118	14.83
468.473	14.85
468.829	15.06
469.184	14.78
469.539	14.84
469.894	15.14
470.249	15.13
470.603	15.07
470.958	15.03
471.313	15.05
471.668	15.13
472.023	15.38
472.377	15.3
472.732	15.33
473.086	15.31
473.441	15.36
473.795	15.5
474.15	15.48
474.504	15.62
474.859	15.48
475.213	15.58
475.567	15.69
475.921	15.56
476.275	15.66
476.63	15.71
476.984	15.97
477.338	15.91
477.692	15.62
478.045	15.81
478.399	15.85
478.753	15.89
479.107	15.88
479.461	15.74
479.814	15.91
480.168	15.96
480.521	15.98
480.875	15.99
481.228	16.06
481.582	16.04
481.935	16.05
482.289	15.96
482.642	16.13
482.995	15.96
483.348	16.1
483.701	16.02
484.055	15.87
484.408	15.8
484.761	15.59
485.114	15.43
485.466	15.37
485.819	15.39
486.172	15.5
486.525	15.51
486.878	15.72
487.23	15.77
487.583	15.96
487.936	16.04
488.288	16.05
488.641	15.92
488.993	15.82
489.345	15.87
489.698	15.83
490.05	15.88
490.402	15.99
490.754	16.12
491.107	16.16
491.459	16.34
491.811	16.54
492.163	16.57
492.515	16.46
492.866	16.35
493.218	16.16
493.57	16.25
493.922	16.27
494.274	16.47
494.625	16.61
494.977	16.83
495.328	16.9
495.68	17.12
496.031	17.09
496.383	17.28
496.734	17.3
497.086	17.25
497.437	17.28
497.788	17.22
498.139	17.26
498.49	17.13
498.842	17.18
499.193	17.34
499.544	17.36
499.894	17.18
500.245	17.43
500.596	17.5
500.947	17.54
501.298	17.69
501.648	17.63
501.999	17.8
502.35	17.94
502.7	17.77
503.051	17.84
503.401	17.91
503.752	17.83
504.102	17.77
504.452	17.85
504.803	17.95
505.153	18.08
505.503	17.94
505.853	17.89
506.203	18.13
506.553	17.96
506.903	17.99
507.253	18.15
507.603	18.13
507.953	18.25
508.303	18.1
508.652	18.21
509.002	18.1
509.352	18.15
509.701	18.24
510.051	18.16
510.4	18.22
510.75	18.09
511.099	18.1
511.449	18.28
511.798	18.3
512.147	18.17
512.496	18.19
512.846	18.35
513.195	18.32
513.544	18.28
513.893	18.23
514.242	18.19
514.591	18.37
514.939	18.44
515.288	18.48
515.637	18.62
515.986	18.62
516.334	18.51
516.683	18.65
517.032	18.82
517.38	18.73
517.729	18.75
518.077	18.78
518.426	18.76
518.774	18.77
519.122	18.64
519.47	18.59
519.819	18.53
520.167	18.46
520.515	18.42
520.863	18.48
521.211	18.56
521.559	18.56
521.907	18.81
522.255	18.72
522.602	18.83
522.95	18.92
523.298	18.98
523.645	18.92
523.993	19.18
524.341	19.15
524.688	19.2
525.036	19.14
525.383	19.07
525.73	19.08
526.078	19.07
526.425	19.02
526.772	18.85
527.119	18.8
527.466	18.69
527.814	18.84
528.161	18.85
528.508	18.78
528.854	18.87
529.201	18.8
529.548	18.67
529.895	18.5
530.242	18.34
530.588	18.44
530.935	18.52
531.282	18.58
531.628	18.6
531.975	18.74
532.321	18.88
532.667	19
533.014	19.11
533.36	19.2
533.706	19.22
534.052	19.19
534.399	19.04
534.745	18.91
535.091	18.83
535.437	18.92
535.783	19.05
536.129	19.24
536.474	19.24
536.82	19.36
537.166	19.48
537.512	19.52
537.857	19.42
538.203	19.34
538.549	19.53
538.894	19.47
539.239	19.62
539.585	19.69
539.93	19.65
540.276	19.82
540.621	20.01
540.966	20.01
541.311	19.89
541.656	19.97
542.001	19.81
542.346	19.64
542.691	19.22
543.036	19.25
543.381	19.32
543.726	19.38
544.071	19.45
544.415	19.68
544.76	19.78
545.105	19.81
545.449	19.8
545.794	20.09
546.138	20.04
546.483	20.06
546.827	20.24
547.171	20.29
547.516	20.28
547.86	20.2
548.204	20.2
548.548	20.17
548.892	20.25
549.236	20.32
549.58	20.43
549.924	20.46
550.268	20.85
550.612	20.8
550.956	20.92
551.3	20.75
551.643	20.94
551.987	20.95
552.33	21.03
552.674	20.99
553.017	21.09
553.361	21.08
553.704	21.15
554.048	21.01
554.391	21.18
554.734	21.06
555.077	21.14
555.42	21.26
555.764	21.22
556.107	21.41
556.45	21.45
556.793	21.54
557.135	21.2
557.478	21.45
557.821	21.59
558.164	21.61
558.507	21.52
558.849	21.74
559.192	21.57
559.534	21.61
559.877	21.67
560.219	21.62
560.562	21.71
560.904	21.73
561.246	21.57
561.589	21.78
561.931	21.69
562.273	21.72
562.615	21.78
562.957	21.99
563.299	21.76
563.641	21.66
563.983	21.93
564.325	21.72
564.667	21.87
565.008	22.04
565.35	22
565.692	21.98
566.033	21.98
566.375	21.97
566.716	22.12
567.058	22.1
567.399	22.07
567.741	22.05
568.082	21.93
568.423	22.14
568.764	22.02
569.105	21.86
569.447	22.25
569.788	22.18
570.129	22.19
570.47	22.32
570.811	22.32
571.151	22.41
571.492	22.49
571.833	22.38
572.174	22.48
572.514	22.62
572.855	22.43
573.195	22.4
573.536	22.51
573.876	22.46
574.217	22.57
574.557	22.49
574.898	22.68
575.238	22.66
575.578	22.61
575.918	22.73
576.258	22.76
576.598	22.69
576.938	22.69
577.278	22.62
577.618	22.74
577.958	23.04
578.298	23.05
578.638	22.85
578.977	23.06
579.317	23.01
579.657	23.07
579.996	22.9
580.336	23.17
580.675	23.36
581.014	23.2
581.354	23.26
581.693	23.2
582.032	23.37
582.372	23.78
582.711	23.33
583.05	23.41
583.389	23.6
583.728	23.56
584.067	23.68
584.406	23.52
584.745	23.67
585.083	23.38
585.422	23.89
585.761	23.73
586.1	23.52
586.438	23.78
586.777	24.07
587.115	23.78
587.454	23.99
587.792	23.72
588.13	23.68
588.469	23.92
588.807	23.97
589.145	24.07
589.483	24.09
589.821	23.96
590.159	24.03
590.497	24.15
590.835	24.03
591.173	23.96
591.511	23.87
591.849	24.37
592.187	24.06
592.524	24.03
592.862	24.36
593.2	24.37
593.537	24.14
593.875	24.48
594.212	24.54
594.55	24.47
594.887	24.46
595.224	24.21
595.561	24.25
595.899	24.39
596.236	24.45
596.573	24.41
596.91	24.58
597.247	24.41
597.584	24.42
597.921	24.75
598.258	24.36
598.594	24.38
598.931	24.22
599.268	24.49
599.604	24.45
599.941	24.75
600.277	24.79
600.614	24.77
600.95	24.98
601.287	25.07
601.623	25.34
601.959	24.86
602.296	24.78
602.632	25.29
602.968	25.1
603.304	25.09
603.64	25.26
603.976	25.18
604.312	24.86
604.648	24.88
604.984	25.22
605.319	25.13
605.655	25.25
605.991	24.93
606.326	25.12
606.662	25.05
606.998	25.05
607.333	25.11
607.668	25.05
608.004	25.36
608.339	25.5
608.674	25.47
609.01	25.51
609.345	25.08
609.68	25.59
610.015	25.56
610.35	25.56
610.685	25.73
611.02	25.31
611.355	25.56
611.689	25.54
612.024	25.38
612.359	25.48
612.694	25.66
613.028	25.93
613.363	25.75
613.697	26.14
614.032	25.83
614.366	25.65
614.7	26.01
615.035	25.81
615.369	26.3
615.703	26.26
616.037	26.08
616.371	26.13
616.705	26.15
617.039	26.3
617.373	26.25
617.707	26
618.041	26.02
618.375	26.32
618.709	26.61
619.042	26.49
619.376	26.34
619.71	26.7
620.043	26.47
620.377	26.48
620.71	26.65
621.043	26.21
621.377	26.55
621.71	26.36
622.043	26.43
622.376	26.66
622.709	26.48
623.043	26.84
623.376	26.75
623.709	26.42
624.041	26.88
624.374	26.24
624.707	26.69
625.04	26.62
625.373	26.39
625.705	27
626.038	26.85
626.37	26.88
626.703	26.91
627.035	26.86
627.368	26.56
627.7	26.86
628.032	26.95
628.365	27
628.697	26.96
629.029	26.88
629.361	26.78
629.693	27.07
630.025	27.02
630.357	26.87
630.689	27.06
631.021	26.96
631.353	27.53
631.684	26.8
632.016	27.32
632.348	27.16
632.679	27.65
633.011	27.66
633.342	27.61
633.674	27.21
634.005	27.4
634.336	27.56
634.668	27.75
634.999	27.59
635.33	27.48
635.661	27.39
635.992	27.73
636.323	27.35
636.654	27.77
636.985	27.75
637.316	27.74
637.647	27.92
637.977	27.7
638.308	28.18
638.639	27.68
638.969	27.55
639.3	27.95
639.63	27.86
639.961	27.88
640.291	28.18
640.622	28.08
640.952	27.97
641.282	28.01
641.612	27.68
641.943	28.38
642.273	27.96
642.603	28.18
642.933	28.12
643.263	27.73
643.592	28.09
643.922	28.23
644.252	28.13
644.582	28.32
644.911	28.48
645.241	28.06
645.571	28.1
645.9	28.09
646.23	28.66
646.559	28.48
646.888	28.59
647.218	28.36
647.547	28.53
647.876	28.27
648.205	28.62
648.534	28.38
648.863	28.68
649.192	28.61
649.521	28.44
649.85	28.39
650.179	28.59
650.508	28.71
650.837	28.62
651.165	28.82
651.494	28.82
651.822	28.53
652.151	28.48
652.479	28.32
652.808	28.82
653.136	28.06
653.465	28.95
653.793	29.01
654.121	28.7
654.449	28.64
654.777	29.84
655.105	29.18
655.433	28.63
655.761	29.3
656.089	29.02
656.417	28.98
656.745	28.93
657.073	29.25
657.4	28.8
657.728	28.95
658.056	29.47
658.383	29.05
658.711	29.33
659.038	29.03
659.365	29.2
659.693	29.28
660.02	29.27
660.347	29.29
660.674	29.27
661.001	29.26
661.329	29.85
661.656	29.44
661.982	29.38
662.309	29.63
662.636	29.95
662.963	29.68
663.29	29.91
663.616	29.57
663.943	29.33
664.27	29.63
664.596	30.13
664.923	29.59
665.249	30.37
665.576	29.92
665.902	29.78
666.228	29.82
666.554	29.79
666.881	29.49
667.207	29.91
667.533	29.94
667.859	30.08
668.185	29.53
668.511	29.89
668.837	30.12
669.162	30.54
669.488	30.09
669.814	29.91
670.139	30.19
670.465	29.69
670.791	30.13
671.116	29.88
671.442	29.83
671.767	30.14
672.092	29.89
672.418	29.89
672.743	30.06
673.068	30.53
673.393	31.17
673.718	30.31
674.043	30.43
674.368	30.01
674.693	29.98
675.018	30.4
675.343	30.79
675.667	31.53
675.992	30.88
676.317	30.29
676.641	29.91
676.966	31.32
677.29	30.38
677.615	30.44
677.939	30.47
678.264	30.46
678.588	30.92
678.912	30.34
679.236	30.91
679.56	30.6
679.885	30.53
680.209	30.68
680.532	31.07
680.856	30.73
681.18	30.86
681.504	30.17
681.828	30.64
682.152	30.63
682.475	30.71
682.799	30.88
683.122	30.8
683.446	31
683.769	30.62
684.093	31.17
684.416	31.33
684.739	31.23
685.062	30.79
685.386	31.35
685.709	31.83
686.032	30.83
686.355	31.61
686.678	31.32
687.001	30.7
687.324	31.43
687.646	31.13
687.969	31.63
688.292	31.68
688.614	31.25
688.937	31.42
689.26	30.77
689.582	31.62
689.904	31.02
690.227	31.75
690.549	31.18
690.871	31.51
691.194	31.71
691.516	30.26
691.838	31.84
692.16	31.02
692.482	31.63
692.804	31.39
693.126	31.45
693.448	30.8
693.769	31.65
694.091	32.18
694.413	31.95
694.735	31.12
695.056	31.76
695.378	31.81
695.699	31.73
696.021	31.03
696.342	31.53
696.663	32.25
696.984	31.82
697.306	31.47
697.627	31.66
697.948	31.78
698.269	31.65
698.59	31.45
698.911	31.26
699.232	31.19
699.553	32.24
699.873	32.03
700.194	31.92
700.515	31.57
700.835	31.97
701.156	32.06
701.477	31.71
701.797	32.02
702.117	31.59
702.438	31.67
702.758	32.5
703.078	32.26
703.398	32.97
703.719	32.07
704.039	31.91
704.359	31.89
704.679	33.16
704.999	32.41
705.319	32.1
705.638	32.28
705.958	32.95
706.278	31.79
706.597	31.24
706.917	31.39
707.237	32.74
707.556	33.21
707.876	31.88
708.195	30.71
708.514	32.43
708.834	32.4
709.153	32.31
709.472	32.98
709.791	31.79
710.11	32.47
710.429	32.38
710.748	32.82
711.067	31.39
711.386	32.44
711.705	32.64
712.023	32.98
712.342	31.84
712.661	32.95
712.979	32.77
713.298	32.71
713.616	32.16
713.935	32
714.253	32.93
714.572	32.13
714.89	32.95
715.208	32.79
715.526	32.89
715.844	32.77
716.162	32.26
716.48	33.02
716.798	32.91
717.116	33.57
717.434	33.44
717.752	31.61
718.069	32.74
718.387	33.05
718.705	32.92
719.022	33.61
719.34	32.58
719.657	33.25
719.975	33.28
720.292	33.49
720.609	32.2
720.927	32.66
721.244	32.85
721.561	33.23
721.878	33.51
722.195	33.3
722.512	33.73
722.829	33.53
723.146	32.89
723.463	33.41
723.779	32.81
724.096	32.94
724.413	32.28
724.729	32.84
725.046	33.23
725.362	33.58
725.679	33.05
725.995	32.48
726.311	32.63
726.628	32.01
726.944	33.56
727.26	31.98
727.576	33.36
727.892	33.22
728.208	32.47
728.524	33.94
728.84	33.06
729.156	33.91
729.472	32.74
729.787	32.48
730.103	32.3
730.419	33.67
730.734	32.63
731.05	33
731.365	33.16
731.681	33.23
731.996	32.73
732.311	33.71
732.626	33.06
732.942	32.75
733.257	33.57
733.572	33.4
733.887	32.76
734.202	33.7
734.517	33.65
734.832	34.75
735.146	33.96
735.461	32.45
735.776	34.79
736.091	33.77
736.405	34.65
736.72	33.86
737.034	32.34
737.349	34.5
737.663	33.88
737.977	34.58
738.292	33.15
738.606	32.99
738.92	35.01
739.234	33.66
739.548	34.65
739.862	33.64
740.176	34.45
740.49	33.67
740.804	34.68
741.117	33.21
741.431	34.42
741.745	34.08
742.058	34.37
742.372	33.07
742.685	34
742.999	34.42
743.312	34.2
743.626	35.31
743.939	34.19
744.252	34
744.565	33.24
744.878	34.94
745.191	37.07
745.505	33.71
745.817	34.51
746.13	35.85
746.443	34.01
746.756	34.33
747.069	35.09
747.381	35.29
747.694	33.53
748.007	34.81
748.319	35.23
748.632	33.61
748.944	33.43
749.256	33.97
749.569	34.05
749.881	33.22
750.193	34.73
750.505	36
750.817	36.57
751.129	34.77
751.441	34.03
751.753	35.6
752.065	35.24
752.377	35.49
752.689	36.11
753	35.61
753.312	33.9
753.624	33.53
753.935	33.06
754.247	32.12
754.558	33.99
754.869	35.39
755.181	33.78
755.492	34.21
755.803	34.52
756.114	34.73
756.425	34.85
756.736	34.31
757.047	34.24
757.358	34.16
757.669	34.95
757.98	34.44
758.291	34.4
758.601	35.84
758.912	33.74
759.223	35.06
759.533	35.01
759.844	33.91
760.154	34.34
760.464	35.07
760.775	34.34
761.085	34.55
761.395	33.71
761.705	35.63
762.016	34.86
762.326	35.54
762.636	35.34
762.945	36.59
763.255	36.38
763.565	35.75
763.875	34.81
764.185	36.17
764.494	35.24
764.804	35.25
765.113	36.32
765.423	33.94
765.732	34.97
766.042	36.12
766.351	35.97
766.66	34.74
766.97	34.44
767.279	34.62
767.588	34.41
767.897	34.77
768.206	35.81
768.515	33.96
768.824	34.22
769.133	35.32
769.441	35.08
769.75	35.62
770.059	36.21
770.367	33.52
770.676	35
770.984	36.18
771.293	35.37
771.601	33.79
771.91	36.71
772.218	37.32
772.526	33.04
772.834	34.03
773.142	35.65
773.45	34.77
773.758	35.69
774.066	34.78
774.374	35.42
774.682	38.01
774.99	34.29
775.298	33.81
775.605	37.44
775.913	37.3
776.22	34.44
776.528	35.2
776.835	32.97
777.143	37
777.45	34.64
777.757	36.45
778.065	31.2
778.372	36.27
778.679	34.78
778.986	38.3
779.293	39.86
779.6	35.8
779.907	35.37
780.214	34.32
780.52	35.12
780.827	37.59
781.134	35.85
781.44	35.41
781.747	36.76
782.053	36.44
782.36	36.92
782.666	35.49
782.973	32.47
783.279	35.07
783.585	35.81
783.891	40.45
784.197	34.47
784.503	32.64
784.809	36.41
785.115	33.93
785.421	33.62
785.727	38.36
786.033	36.64
786.339	35.82
786.644	35.03
786.95	32.8
787.255	33.05
787.561	31
787.866	32.94
788.172	36
788.477	35.49
788.782	34.02
789.088	34.06
789.393	31.18
789.698	36.43
790.003	34.3
790.308	33.97
790.613	36.69
790.918	35.84
791.223	35.42
791.527	34.21
791.832	34.92
792.137	33.52
792.441	35.83
792.746	31.84
793.05	35.69
793.355	34.28
793.659	34.66
793.963	35.54
794.268	36.32
794.572	38.78
794.876	34.08
795.18	33.39
795.484	35.43
795.788	30.77
796.092	38.92
796.396	38.18
796.7	36.48
797.004	36.41
797.307	36.42
797.611	37.71
797.915	39
798.218	35.98
798.522	37.84
798.825	36.13
799.128	35.84
799.432	31.24
799.735	31.35
800.038	35.37
800.341	31.95
800.644	40.33
800.947	34.14
801.25	37.46
801.553	35.05
801.856	34.47
802.159	36.65
802.462	33.99
802.764	35.02
803.067	37.62
803.37	36.78
803.672	37.66
803.975	35.38
804.277	32.96
804.579	38.95
804.882	37.42
805.184	40.09
805.486	42.6
805.788	40.19
806.09	32.14
806.392	33.45
806.694	34.76
806.996	40.67
807.298	33.88
807.6	35.04
807.902	39.49
808.203	35.57
808.505	28.6
808.807	32.71
809.108	37.76
809.409	36.01
809.711	40.28
810.012	38.55
810.313	40.9
810.615	32.23
810.916	36.35
811.217	41.29
811.518	37.17
811.819	35.08
812.12	32.21
812.421	37.04
812.722	34.71
813.023	31.67
813.323	38.57
813.624	40.41
813.925	35.54
814.225	35.85
814.526	31.11
814.826	34.57
815.126	31.97
815.427	36.66
815.727	33.2
816.027	37.28
816.327	33.76
816.627	34.78
816.927	34.46
817.227	35.43
817.527	29.63
817.827	37.04
818.127	37.34
818.427	33.8
818.727	32.9
819.026	30.67
819.326	34.91
819.625	38.52
819.925	36.32
820.224	32.31
820.524	34.45
820.823	40.47
821.122	34.74
821.421	30.42
821.72	34.66
822.019	37.16
822.318	35.55
822.617	34.7
822.916	38.76
823.215	39.73
823.514	35.85
823.813	36.77
824.111	36.87
824.41	37.71
824.709	39.13
825.007	37.92
825.306	38.38
825.604	37.41
825.902	37.69
826.201	37.6
826.499	37.54
826.797	37.92
827.095	38.24
827.393	37.6
827.691	38.22
827.989	40.62
828.287	39.09
828.585	36.83
828.882	38.3
829.18	37.45
829.478	38.18
829.775	37.01
830.073	37.53
830.37	37.99
830.668	38.5
830.965	37.96
831.263	37.54
831.56	38.55
831.857	41.33
832.154	35.06
832.451	37.95
832.748	32.59
833.045	36.53
833.342	37.61
833.639	36.3
833.936	31.91
834.232	35.54
834.529	34.41
834.826	38.68
835.122	36.57
835.419	38.92
835.715	40.98
836.012	40.39
836.308	35.51
836.604	37.34
836.901	38.97
837.197	39.22
837.493	35.25
837.789	36.21
838.085	36.39
838.381	37.78
838.677	39.58
838.972	35
839.268	39.52
839.564	42.01
839.86	34.11
840.155	34.82
840.451	31.02
840.746	30.17
841.042	32.15
841.337	38.47
841.632	44.71
841.928	32.52
842.223	36.62
842.518	29.22
842.813	31.06
843.108	37.27
843.403	44.85
843.698	38.39
843.993	37.94
844.287	40.57
844.582	26.8
844.877	33.04
845.171	34.23
845.466	37.04
845.761	36.12
846.055	41.78
846.349	17.27
846.644	36.48
846.938	41.75
847.232	26.27
847.526	39.09
847.82	24.5
848.114	20.47
848.408	24.15
848.702	43.95
848.996	42.62
849.29	37.23
849.584	29.29
849.877	44.76
850.171	32.75
850.465	39.31
850.758	24.31
851.052	41.35
851.345	31.67
851.638	36.38
851.932	34.24
852.225	50.81
852.518	21.58
852.811	40.53
853.104	25.92
853.397	26.46
853.69	25.22
853.983	35.49
854.276	24.06
854.569	29.74
854.861	48.67
855.154	34.79
855.447	39.77
855.739	26.68
856.032	42.29
856.324	23.78
856.616	42.68
856.909	24.57
857.201	31.26
857.493	55.03
857.785	22.18
858.077	21.3
858.369	47.35
858.661	15.07
858.953	32.98
859.245	25.13
859.537	33.89
859.829	38.55
860.12	42.29
860.412	38.11
860.703	35.65
860.995	21.42
861.286	22.77
861.578	0.17
861.869	24.92
862.16	10.7
862.452	37.86
862.743	37.97
863.034	27.19
863.325	28.78
863.616	21.46
863.907	55.99
864.198	8.49
864.488	32.41
864.779	41.27
865.07	44.71
865.36	34.53
865.651	32.29
865.941	34.97
866.232	30.66
866.522	40.62
866.813	58.52
867.103	31.04
867.393	42.03
867.683	33.57
867.973	24.73
868.263	32.69
868.553	31.56
868.843	43.67
869.133	37.11
869.423	27.2
869.713	19.79
870.002	13.82
870.292	11.48
870.582	40.73
870.871	43.48
871.161	52.75
871.45	54.61
871.739	0.75
872.029	33.87
872.318	12.04
872.607	30.41
872.896	38.3
873.185	59.99
873.474	26.76
873.763	9.5
874.052	42.83
874.341	30.35
874.63	36.09
874.918	59.23
875.207	43.16
875.496	27.82
875.784	9.06
876.073	47.57
876.361	34.45
876.649	33.43
876.938	17.47
877.226	15.45
877.514	14.53
877.802	43.27
878.09	32.68
878.378	75.82
878.666	48.72
878.954	16.6
879.242	1.63
879.53	-2.01
879.817	45.19
880.105	25.36
880.392	37.07
880.68	10.62
880.967	26.5
881.255	37.2
881.542	1.22
881.83	20.64
882.117	12.48
882.404	43.71
882.691	42.95
882.978	23.7
883.265	45.12
883.552	49.33
883.839	34.43
884.126	32.8
884.413	36.93
884.699	39.21
884.986	35.38
885.273	41.44
885.559	41.44
885.846	41.44
