Data from 0403_crown_Reflection__4__176.txt Node

Date: Tue Dec 12 19:49:51 CST 2023
User: ToomeyLab
Spectrometer: FLMS14357
Trigger mode: 0
Integration Time (sec): 1.000000E-2
Scans to average: 100
Electric dark correction enabled: true
Nonlinearity correction enabled: false
Boxcar width: 0
XAxis mode: Wavelengths
Number of Pixels in Spectrum: 2048
>>>>>Begin Spectral Data<<<<<
189.047	55.65
189.435	55.65
189.823	55.65
190.211	-111.02
190.599	81.33
190.987	210.55
191.375	-82.09
191.763	-30.56
192.151	98.83
192.538	-75.22
192.926	217.1
193.314	-90.99
193.702	49.25
194.089	0.87
194.477	-20.97
194.864	68.33
195.252	-110.94
195.639	-48.22
196.027	641.08
196.414	110.26
196.801	91.24
197.189	130.9
197.576	-17.37
197.963	34.83
198.351	-20.04
198.738	52.43
199.125	16.59
199.512	-50.09
199.899	-1.06
200.286	-16.49
200.673	2.08
201.06	49.7
201.447	-52.17
201.833	-39.23
202.22	-39.66
202.607	-245.13
202.994	4.09
203.38	2.36
203.767	-65.42
204.154	56.36
204.54	24.55
204.927	4.36
205.313	28.48
205.699	-37.29
206.086	23.12
206.472	-14.54
206.858	20.14
207.245	0.28
207.631	4.23
208.017	11.3
208.403	-26.76
208.789	20.89
209.175	-44.66
209.561	6.44
209.947	3.5
210.333	13.15
210.719	-10.5
211.105	30.52
211.491	-0.45
211.876	-26.05
212.262	12.33
212.648	-13.39
213.034	-77.97
213.419	-16.47
213.805	-6.04
214.19	35.66
214.576	33.16
214.961	5.23
215.346	-14.55
215.732	23.83
216.117	-21.41
216.502	-33.95
216.888	-18.45
217.273	-24.85
217.658	-20.93
218.043	-18.56
218.428	16.28
218.813	-7.95
219.198	-32.27
219.583	9.2
219.968	4.06
220.353	-10.13
220.738	-8.5
221.122	-4.59
221.507	-30.56
221.892	1.21
222.276	6.21
222.661	3.43
223.046	-5.04
223.43	-2.83
223.815	-15.23
224.199	14.92
224.583	4.88
224.968	-0.27
225.352	8.67
225.736	9.31
226.121	-0.57
226.505	-2.4
226.889	-7.08
227.273	6.63
227.657	8.17
228.041	8.11
228.425	3.32
228.809	4.09
229.193	2.32
229.577	3.48
229.961	2.68
230.344	4.9
230.728	5.31
231.112	4.29
231.495	5.29
231.879	5.79
232.263	5.54
232.646	2.89
233.03	4.86
233.413	4.12
233.797	4.02
234.18	0.03
234.563	1.53
234.946	4.41
235.33	5.67
235.713	4.57
236.096	1.83
236.479	5.91
236.862	5.23
237.245	3.33
237.628	4.69
238.011	4.83
238.394	5.44
238.777	4.76
239.16	5.51
239.543	4.24
239.925	5.47
240.308	4.33
240.691	4.51
241.073	4.32
241.456	3.8
241.838	3.8
242.221	4.11
242.603	5.24
242.986	4.34
243.368	5
243.75	4.54
244.133	3.97
244.515	4.88
244.897	4.38
245.279	4.81
245.661	2.96
246.043	2.96
246.425	4.84
246.807	4.04
247.189	3.88
247.571	3.36
247.953	4.3
248.335	4.57
248.717	3.86
249.098	4.26
249.48	3.83
249.862	3.74
250.243	4.13
250.625	4.21
251.006	4.24
251.388	3.58
251.769	4
252.151	3.61
252.532	4.72
252.913	4.67
253.295	4.27
253.676	3.51
254.057	3.78
254.438	4.7
254.819	4.17
255.2	4.52
255.581	3.81
255.962	2.99
256.343	3.96
256.724	4.24
257.105	3.93
257.486	4.82
257.867	3.37
258.247	2.66
258.628	4.32
259.009	2.65
259.389	3.37
259.77	3.73
260.15	4.09
260.531	4.43
260.911	3.92
261.292	3.74
261.672	3.66
262.052	3.9
262.432	4.02
262.813	3.8
263.193	3.83
263.573	3.89
263.953	4.99
264.333	4.4
264.713	3.72
265.093	3.65
265.473	3.57
265.853	3.45
266.233	1.8
266.612	3.2
266.992	3.03
267.372	3.82
267.752	4.57
268.131	3.21
268.511	3.67
268.89	3.12
269.27	2.98
269.649	3.37
270.029	3.96
270.408	3.94
270.787	3.69
271.167	3.45
271.546	3.76
271.925	4.51
272.304	4.27
272.683	3.31
273.062	3.22
273.441	3.89
273.82	3.36
274.199	3.85
274.578	3.9
274.957	3.73
275.336	3.76
275.715	4.01
276.093	3.02
276.472	3.81
276.851	3.52
277.229	3.16
277.608	3.57
277.986	3.05
278.365	3.14
278.743	4.44
279.122	3.91
279.5	3.17
279.878	2.97
280.257	2.66
280.635	3.39
281.013	3.04
281.391	3.44
281.769	3.14
282.147	3.55
282.525	3.17
282.903	3.82
283.281	3.07
283.659	3.42
284.037	3.53
284.415	3.5
284.792	3.54
285.17	3.44
285.548	3.4
285.925	3.21
286.303	3.16
286.68	3.7
287.058	3.48
287.435	3.2
287.813	2.97
288.19	3.24
288.567	3.35
288.945	3.43
289.322	2.45
289.699	3.29
290.076	2.79
290.453	3.56
290.83	3.54
291.207	4.02
291.584	2.93
291.961	3.34
292.338	3.08
292.715	3.32
293.092	2.87
293.469	3.19
293.845	3.8
294.222	3.11
294.599	3.32
294.975	2.96
295.352	3.4
295.728	3.56
296.105	3.42
296.481	3.69
296.858	2.98
297.234	3.33
297.61	3.15
297.986	3.4
298.363	3.35
298.739	3.06
299.115	2.93
299.491	3.01
299.867	3.55
300.243	3.17
300.619	3.45
300.995	3.72
301.371	3.19
301.746	3.35
302.122	3.58
302.498	3.84
302.874	3.48
303.249	4.51
303.625	2.84
304	3.28
304.376	3.24
304.751	3.43
305.127	3.18
305.502	3.46
305.878	2.44
306.253	3.68
306.628	3.26
307.003	2.95
307.378	3.45
307.754	3.22
308.129	3.21
308.504	4.06
308.879	2.59
309.254	3.52
309.629	2.86
310.003	3.49
310.378	3.19
310.753	2.79
311.128	3.69
311.502	2.43
311.877	2.25
312.252	2.59
312.626	3
313.001	2.95
313.375	3.26
313.75	3.29
314.124	3.45
314.498	3.01
314.873	3.14
315.247	2.93
315.621	2.95
315.995	3.57
316.369	2.62
316.743	2.55
317.117	2.27
317.491	3.05
317.865	3.28
318.239	2.76
318.613	3.09
318.987	3.37
319.361	2.7
319.734	2.87
320.108	2.73
320.482	2.72
320.855	2.94
321.229	3.55
321.602	3.22
321.976	2.83
322.349	3.36
322.723	2.94
323.096	3.2
323.469	3.21
323.843	4.27
324.216	2.96
324.589	2.62
324.962	3.14
325.335	3.59
325.708	2.94
326.081	3.33
326.454	2.97
326.827	3.16
327.2	3.02
327.573	2.42
327.945	3.3
328.318	3.17
328.691	2.37
329.063	3.37
329.436	3.31
329.809	2.76
330.181	1.92
330.553	2.89
330.926	3.46
331.298	2.82
331.671	3.11
332.043	3.01
332.415	3.59
332.787	3.22
333.159	2.92
333.532	2.97
333.904	3.61
334.276	3.93
334.648	2.92
335.02	2.48
335.391	2.59
335.763	3.01
336.135	3.59
336.507	3.47
336.879	2.92
337.25	2.83
337.622	2.75
337.993	2.56
338.365	2.48
338.736	3.45
339.108	2.83
339.479	3.42
339.851	3.24
340.222	2.59
340.593	3.27
340.964	2.64
341.336	2.76
341.707	2.88
342.078	2.51
342.449	2.7
342.82	3.29
343.191	2.88
343.562	3.1
343.933	3.46
344.303	3.31
344.674	3.25
345.045	3.09
345.416	3.01
345.786	2.93
346.157	3.08
346.527	3.4
346.898	2.93
347.268	2.61
347.639	3.17
348.009	3.09
348.38	3.15
348.75	3.3
349.12	3.15
349.49	2.93
349.861	3.15
350.231	3.41
350.601	3.27
350.971	3.19
351.341	3.06
351.711	3.59
352.081	3.38
352.45	2.71
352.82	3.06
353.19	3.04
353.56	2.31
353.929	3.14
354.299	3.02
354.669	2.5
355.038	2.84
355.408	2.91
355.777	3.26
356.147	3.05
356.516	3.18
356.885	3.04
357.254	3.11
357.624	2.91
357.993	2.83
358.362	3.12
358.731	3.36
359.1	2.57
359.469	2.89
359.838	3.03
360.207	3.07
360.576	3.17
360.945	2.58
361.314	3.27
361.682	3.18
362.051	3.36
362.42	3.2
362.788	2.98
363.157	3.51
363.525	3.26
363.894	3.08
364.262	2.9
364.631	2.79
364.999	3.26
365.367	3.38
365.735	2.9
366.104	3.19
366.472	2.82
366.84	2.85
367.208	3.01
367.576	2.99
367.944	3.27
368.312	2.9
368.68	2.93
369.048	3.2
369.416	2.82
369.783	3.23
370.151	3.5
370.519	2.78
370.886	3.34
371.254	2.95
371.621	3.28
371.989	3.04
372.356	3.1
372.724	3.15
373.091	2.57
373.458	2.98
373.826	3.4
374.193	3.06
374.56	3.45
374.927	3.35
375.294	3.32
375.661	3.29
376.028	3.49
376.395	3.58
376.762	3.53
377.129	3.17
377.496	3.19
377.863	3.24
378.229	3.1
378.596	3.09
378.963	3.09
379.329	2.99
379.696	2.87
380.062	3.46
380.429	3.12
380.795	3.41
381.161	3.26
381.528	3.08
381.894	3.28
382.26	3.04
382.626	3.4
382.993	3.38
383.359	2.86
383.725	3.08
384.091	3.23
384.457	3.12
384.823	3.57
385.188	3.48
385.554	3.23
385.92	3.4
386.286	3.44
386.651	3.2
387.017	3.64
387.383	3.09
387.748	3.36
388.114	3.32
388.479	3.37
388.845	3.16
389.21	3.24
389.575	3.09
389.94	3.18
390.306	3.24
390.671	3.29
391.036	3.3
391.401	3.31
391.766	3.18
392.131	3.45
392.496	3.13
392.861	3.05
393.226	3.63
393.591	3.13
393.956	3.19
394.32	3.64
394.685	3.27
395.05	3.17
395.414	3.42
395.779	2.98
396.143	3.42
396.508	3.26
396.872	3.36
397.236	3.26
397.601	3.32
397.965	3.32
398.329	3.53
398.694	3.26
399.058	3.57
399.422	3.3
399.786	3.29
400.15	3.16
400.514	3.34
400.878	3.57
401.242	3.13
401.605	3.47
401.969	3.38
402.333	3.63
402.697	3.4
403.06	3.14
403.424	3.48
403.787	3.13
404.151	3.61
404.514	3.28
404.878	3.29
405.241	3.44
405.604	3.19
405.968	3.24
406.331	3.4
406.694	3.59
407.057	3.17
407.42	3.3
407.783	3.23
408.146	3.28
408.509	3.29
408.872	3.26
409.235	3.5
409.598	3.31
409.961	3.3
410.323	3.45
410.686	3.22
411.049	3.41
411.411	3.63
411.774	3.39
412.136	3.31
412.499	3.43
412.861	3.29
413.223	3.69
413.586	3.31
413.948	3.17
414.31	3.47
414.672	3.45
415.035	3.62
415.397	3.28
415.759	3.46
416.121	3.48
416.483	3.38
416.845	3.19
417.206	3.47
417.568	3.39
417.93	3.49
418.292	3.38
418.653	3.47
419.015	3.51
419.377	3.66
419.738	3.27
420.1	3.37
420.461	3.43
420.822	3.54
421.184	3.37
421.545	3.48
421.906	3.29
422.267	3.4
422.629	3.4
422.99	3.39
423.351	3.39
423.712	3.38
424.073	3.36
424.434	3.38
424.795	3.52
425.155	3.19
425.516	3.27
425.877	3.35
426.238	3.39
426.598	3.45
426.959	3.37
427.32	3.49
427.68	3.46
428.041	3.31
428.401	3.49
428.761	3.44
429.122	3.57
429.482	3.63
429.842	3.59
430.202	3.54
430.563	3.53
430.923	3.56
431.283	3.45
431.643	3.65
432.003	3.32
432.363	3.57
432.722	3.37
433.082	3.5
433.442	3.5
433.802	3.6
434.161	3.63
434.521	3.59
434.881	3.46
435.24	3.48
435.6	3.49
435.959	3.56
436.319	3.57
436.678	3.67
437.037	3.52
437.396	3.34
437.756	3.53
438.115	3.58
438.474	3.54
438.833	3.65
439.192	3.47
439.551	3.48
439.91	3.36
440.269	3.56
440.628	3.45
440.987	3.37
441.345	3.54
441.704	3.58
442.063	3.51
442.421	3.57
442.78	3.54
443.138	3.38
443.497	3.65
443.855	3.52
444.214	3.55
444.572	3.67
444.93	3.65
445.288	3.45
445.647	3.7
446.005	3.55
446.363	3.33
446.721	3.43
447.079	3.44
447.437	3.46
447.795	3.57
448.153	3.49
448.51	3.45
448.868	3.56
449.226	3.63
449.584	3.56
449.941	3.61
450.299	3.63
450.656	3.55
451.014	3.66
451.371	3.57
451.729	3.54
452.086	3.68
452.443	3.68
452.801	3.73
453.158	3.59
453.515	3.58
453.872	3.6
454.229	3.64
454.586	3.47
454.943	3.54
455.3	3.59
455.657	3.73
456.014	3.66
456.371	3.62
456.727	3.76
457.084	3.64
457.441	3.73
457.797	3.46
458.154	3.57
458.51	3.57
458.867	3.68
459.223	3.74
459.58	3.56
459.936	3.49
460.292	3.8
460.648	3.7
461.005	3.52
461.361	3.49
461.717	3.58
462.073	3.53
462.429	3.64
462.785	3.58
463.141	3.6
463.496	3.58
463.852	3.78
464.208	3.62
464.564	3.69
464.919	3.79
465.275	3.63
465.631	3.77
465.986	3.67
466.342	3.62
466.697	3.77
467.052	3.83
467.408	3.71
467.763	3.62
468.118	3.8
468.473	3.85
468.829	3.72
469.184	3.59
469.539	3.69
469.894	3.78
470.249	3.65
470.603	3.9
470.958	3.79
471.313	3.91
471.668	3.68
472.023	3.72
472.377	3.66
472.732	3.76
473.086	3.68
473.441	3.84
473.795	3.89
474.15	3.88
474.504	3.65
474.859	3.78
475.213	3.55
475.567	3.74
475.921	3.67
476.275	3.5
476.63	3.69
476.984	3.97
477.338	3.62
477.692	3.6
478.045	3.75
478.399	3.76
478.753	3.8
479.107	3.63
479.461	3.78
479.814	3.71
480.168	3.62
480.521	3.65
480.875	3.84
481.228	3.8
481.582	3.75
481.935	3.86
482.289	3.79
482.642	3.97
482.995	3.63
483.348	3.6
483.701	3.83
484.055	3.67
484.408	3.64
484.761	3.73
485.114	3.57
485.466	3.51
485.819	3.44
486.172	3.49
486.525	3.53
486.878	3.6
487.23	3.54
487.583	3.53
487.936	3.71
488.288	3.59
488.641	3.59
488.993	3.53
489.345	3.6
489.698	3.55
490.05	3.6
490.402	3.56
490.754	3.7
491.107	3.59
491.459	3.7
491.811	3.75
492.163	3.63
492.515	3.7
492.866	3.57
493.218	3.56
493.57	3.56
493.922	3.54
494.274	3.64
494.625	3.69
494.977	3.78
495.328	3.86
495.68	3.59
496.031	3.89
496.383	3.72
496.734	3.79
497.086	3.73
497.437	3.82
497.788	3.79
498.139	3.71
498.49	3.87
498.842	3.68
499.193	3.76
499.544	3.72
499.894	3.79
500.245	3.79
500.596	3.84
500.947	3.72
501.298	3.84
501.648	3.85
501.999	3.82
502.35	3.78
502.7	3.71
503.051	3.73
503.401	3.84
503.752	3.88
504.102	3.74
504.452	3.89
504.803	3.74
505.153	3.83
505.503	3.89
505.853	3.82
506.203	3.83
506.553	3.68
506.903	3.78
507.253	3.82
507.603	3.85
507.953	3.74
508.303	3.8
508.652	3.82
509.002	3.9
509.352	3.77
509.701	3.82
510.051	3.83
510.4	3.8
510.75	3.69
511.099	3.73
511.449	3.9
511.798	3.75
512.147	3.85
512.496	3.87
512.846	3.76
513.195	3.77
513.544	3.84
513.893	3.77
514.242	3.73
514.591	3.75
514.939	3.85
515.288	3.82
515.637	3.7
515.986	3.72
516.334	3.91
516.683	3.74
517.032	3.84
517.38	3.87
517.729	3.91
518.077	3.78
518.426	3.81
518.774	3.83
519.122	3.78
519.47	3.82
519.819	3.63
520.167	3.67
520.515	3.66
520.863	3.72
521.211	3.69
521.559	3.77
521.907	3.79
522.255	3.88
522.602	3.94
522.95	3.84
523.298	3.72
523.645	3.89
523.993	3.84
524.341	3.86
524.688	3.78
525.036	3.95
525.383	3.88
525.73	3.76
526.078	3.73
526.425	3.8
526.772	3.83
527.119	3.73
527.466	3.72
527.814	3.64
528.161	3.73
528.508	3.82
528.854	3.71
529.201	3.71
529.548	3.7
529.895	3.72
530.242	3.52
530.588	3.53
530.935	3.61
531.282	3.68
531.628	3.74
531.975	3.7
532.321	3.69
532.667	3.73
533.014	3.8
533.36	3.66
533.706	3.75
534.052	3.76
534.399	3.77
534.745	3.75
535.091	3.62
535.437	3.7
535.783	3.69
536.129	3.79
536.474	3.74
536.82	3.72
537.166	3.91
537.512	3.82
537.857	3.86
538.203	3.75
538.549	3.77
538.894	3.78
539.239	3.81
539.585	3.8
539.93	3.82
540.276	3.87
540.621	3.83
540.966	3.79
541.311	3.93
541.656	3.91
542.001	3.76
542.346	3.76
542.691	3.76
543.036	3.68
543.381	3.64
543.726	3.66
544.071	3.7
544.415	3.7
544.76	3.68
545.105	3.72
545.449	3.77
545.794	3.79
546.138	3.73
546.483	3.75
546.827	3.9
547.171	3.81
547.516	3.82
547.86	3.84
548.204	3.73
548.548	3.71
548.892	3.74
549.236	3.76
549.58	3.82
549.924	3.83
550.268	3.88
550.612	3.81
550.956	3.84
551.3	3.84
551.643	3.94
551.987	3.88
552.33	3.91
552.674	4.04
553.017	3.93
553.361	4.13
553.704	3.82
554.048	3.83
554.391	4.01
554.734	3.84
555.077	3.92
555.42	3.79
555.764	3.99
556.107	3.96
556.45	3.75
556.793	3.79
557.135	3.68
557.478	3.92
557.821	4
558.164	3.93
558.507	4.13
558.849	3.97
559.192	3.92
559.534	3.93
559.877	3.95
560.219	3.79
560.562	3.93
560.904	3.93
561.246	3.8
561.589	3.92
561.931	3.83
562.273	3.63
562.615	3.78
562.957	3.79
563.299	3.95
563.641	4
563.983	3.97
564.325	3.97
564.667	3.85
565.008	3.71
565.35	3.87
565.692	3.98
566.033	3.99
566.375	3.97
566.716	3.74
567.058	4
567.399	3.98
567.741	3.76
568.082	3.74
568.423	3.78
568.764	3.85
569.105	3.8
569.447	4
569.788	3.88
570.129	3.8
570.47	3.84
570.811	3.91
571.151	4.09
571.492	3.87
571.833	3.95
572.174	3.87
572.514	3.76
572.855	3.67
573.195	3.74
573.536	3.81
573.876	3.75
574.217	3.87
574.557	3.94
574.898	3.93
575.238	3.91
575.578	3.74
575.918	3.88
576.258	3.84
576.598	3.9
576.938	3.99
577.278	3.89
577.618	3.95
577.958	3.71
578.298	3.98
578.638	3.77
578.977	3.96
579.317	3.86
579.657	3.83
579.996	4.01
580.336	4.07
580.675	3.88
581.014	3.91
581.354	3.86
581.693	3.92
582.032	3.71
582.372	4.14
582.711	3.95
583.05	3.99
583.389	3.86
583.728	3.9
584.067	4.03
584.406	4.23
584.745	3.94
585.083	3.81
585.422	4.02
585.761	4.09
586.1	4.01
586.438	4.08
586.777	3.95
587.115	3.72
587.454	3.92
587.792	3.93
588.13	3.85
588.469	3.85
588.807	3.98
589.145	3.87
589.483	3.92
589.821	3.99
590.159	4.05
590.497	4.16
590.835	3.89
591.173	3.98
591.511	3.86
591.849	3.9
592.187	3.99
592.524	3.85
592.862	3.92
593.2	3.76
593.537	3.6
593.875	4.19
594.212	3.71
594.55	4.02
594.887	4.25
595.224	3.9
595.561	4.12
595.899	3.9
596.236	3.92
596.573	4.03
596.91	4.15
597.247	3.82
597.584	4.02
597.921	3.99
598.258	4.26
598.594	3.89
598.931	4.02
599.268	3.88
599.604	3.86
599.941	3.98
600.277	4.08
600.614	4.11
600.95	4.14
601.287	3.83
601.623	4.09
601.959	4.18
602.296	3.93
602.632	4.05
602.968	3.85
603.304	3.74
603.64	4.11
603.976	3.84
604.312	3.78
604.648	4.05
604.984	3.84
605.319	3.95
605.655	4.08
605.991	3.86
606.326	3.92
606.662	3.9
606.998	4
607.333	3.96
607.668	3.78
608.004	4.09
608.339	4.11
608.674	3.9
609.01	3.9
609.345	4.23
609.68	4.13
610.015	3.55
610.35	3.95
610.685	4.07
611.02	3.87
611.355	3.84
611.689	4.04
612.024	3.97
612.359	4.15
612.694	4.13
613.028	3.99
613.363	4.05
613.697	4.24
614.032	3.96
614.366	4.11
614.7	3.79
615.035	4.09
615.369	3.82
615.703	3.98
616.037	3.97
616.371	4.01
616.705	3.81
617.039	3.8
617.373	4.08
617.707	3.75
618.041	3.82
618.375	3.64
618.709	3.95
619.042	4.21
619.376	3.65
619.71	4.07
620.043	4.13
620.377	4.01
620.71	3.44
621.043	3.88
621.377	3.91
621.71	3.93
622.043	3.92
622.376	4.25
622.709	3.75
623.043	3.9
623.376	4.45
623.709	4.11
624.041	4.1
624.374	3.7
624.707	4.09
625.04	3.62
625.373	4.39
625.705	4.02
626.038	3.92
626.37	4.25
626.703	3.97
627.035	3.69
627.368	4.01
627.7	3.72
628.032	3.75
628.365	4.05
628.697	4.17
629.029	3.78
629.361	4
629.693	3.88
630.025	3.89
630.357	4.23
630.689	3.56
631.021	4.02
631.353	4.12
631.684	3.8
632.016	4.11
632.348	3.91
632.679	3.49
633.011	4.34
633.342	3.86
633.674	4.31
634.005	4.17
634.336	4.1
634.668	3.87
634.999	4.04
635.33	3.98
635.661	4.01
635.992	4.16
636.323	3.71
636.654	4.23
636.985	4.12
637.316	3.93
637.647	3.87
637.977	4.18
638.308	4.14
638.639	4.14
638.969	3.69
639.3	3.96
639.63	4.1
639.961	4.54
640.291	4.12
640.622	3.68
640.952	4.11
641.282	3.88
641.612	4.37
641.943	3.78
642.273	4.02
642.603	4.27
642.933	4.15
643.263	3.89
643.592	4.03
643.922	4.19
644.252	4.39
644.582	3.49
644.911	4.52
645.241	4.06
645.571	4.46
645.9	3.94
646.23	3.64
646.559	4.02
646.888	3.46
647.218	4.17
647.547	4.14
647.876	3.76
648.205	4.29
648.534	4.31
648.863	3.96
649.192	4.42
649.521	4.32
649.85	3.71
650.179	4.24
650.508	4.49
650.837	3.85
651.165	4
651.494	4.03
651.822	4.08
652.151	4.65
652.479	4.06
652.808	4.15
653.136	3.75
653.465	4.41
653.793	3.75
654.121	4.45
654.449	4.31
654.777	4.4
655.105	3.94
655.433	4.54
655.761	4.19
656.089	4.18
656.417	4.15
656.745	3.66
657.073	3.66
657.4	4.19
657.728	3.81
658.056	4.22
658.383	3.49
658.711	4.12
659.038	3.91
659.365	4.43
659.693	4.25
660.02	4.19
660.347	4.23
660.674	4.55
661.001	4.6
661.329	4.42
661.656	4
661.982	4.12
662.309	4.58
662.636	4.03
662.963	4.48
663.29	4.64
663.616	4.39
663.943	4.12
664.27	4.6
664.596	4.31
664.923	4.13
665.249	4.12
665.576	4.14
665.902	4.16
666.228	4.36
666.554	4.09
666.881	3.42
667.207	4.98
667.533	4.29
667.859	3.74
668.185	4.49
668.511	4
668.837	3.87
669.162	4.58
669.488	4.52
669.814	4.86
670.139	3.93
670.465	3.42
670.791	4.34
671.116	4.19
671.442	4.38
671.767	4.3
672.092	4.46
672.418	4.09
672.743	4.34
673.068	3.4
673.393	3.96
673.718	4.76
674.043	4.54
674.368	3.84
674.693	3.7
675.018	3.88
675.343	3.49
675.667	4.06
675.992	4.03
676.317	3.52
676.641	4.25
676.966	3.93
677.29	4.05
677.615	4.61
677.939	4.03
678.264	4.62
678.588	3.97
678.912	4.43
679.236	4.25
679.56	3.68
679.885	4.3
680.209	4.45
680.532	4.65
680.856	3.87
681.18	3.57
681.504	4.47
681.828	4.68
682.152	4.01
682.475	4.66
682.799	3.98
683.122	4.42
683.446	4.29
683.769	4.8
684.093	4.02
684.416	3.93
684.739	4.72
685.062	3.92
685.386	4.44
685.709	4.52
686.032	4.17
686.355	3.95
686.678	4.91
687.001	4.21
687.324	4.31
687.646	4.6
687.969	4.2
688.292	4.38
688.614	4.39
688.937	3.9
689.26	4.5
689.582	4.07
689.904	3.63
690.227	4.8
690.549	4.97
690.871	4.15
691.194	4.74
691.516	4.77
691.838	4.27
692.16	4.64
692.482	3.45
692.804	4.48
693.126	4.28
693.448	4.47
693.769	4.32
694.091	5.22
694.413	4.73
694.735	5.01
695.056	3.34
695.378	4.38
695.699	4.04
696.021	3.65
696.342	3.88
696.663	4.14
696.984	3.21
697.306	3.9
697.627	3.5
697.948	4.63
698.269	3.75
698.59	4.59
698.911	4.57
699.232	3.18
699.553	4.67
699.873	4.7
700.194	3.55
700.515	4.67
700.835	3.76
701.156	4.24
701.477	4.88
701.797	4.44
702.117	3.95
702.438	5.14
702.758	4.47
703.078	5.3
703.398	4.07
703.719	4.03
704.039	4.29
704.359	4.84
704.679	5.04
704.999	5.11
705.319	3.87
705.638	4.52
705.958	4.69
706.278	5.56
706.597	4.6
706.917	4.08
707.237	3.34
707.556	4.95
707.876	4.11
708.195	4.66
708.514	5.07
708.834	4.5
709.153	4.2
709.472	3.96
709.791	4.18
710.11	4.33
710.429	4.55
710.748	3.44
711.067	4.95
711.386	4.97
711.705	4.83
712.023	4.56
712.342	4.62
712.661	4.24
712.979	4.97
713.298	3.66
713.616	5.39
713.935	3.72
714.253	4.83
714.572	3.35
714.89	4.64
715.208	5.01
715.526	3.69
715.844	5.01
716.162	4.49
716.48	4.46
716.798	5.14
717.116	5.33
717.434	4.92
717.752	3.24
718.069	4.38
718.387	4.18
718.705	3.8
719.022	5.13
719.34	4.23
719.657	4.41
719.975	4.26
720.292	4.2
720.609	5.51
720.927	3.17
721.244	4.45
721.561	5.77
721.878	4.27
722.195	4.13
722.512	5.47
722.829	4.71
723.146	4.33
723.463	4.49
723.779	3.8
724.096	3.6
724.413	4.04
724.729	4.07
725.046	5.22
725.362	4.65
725.679	3.67
725.995	4.52
726.311	4.77
726.628	5.64
726.944	4.41
727.26	4
727.576	5.1
727.892	3.06
728.208	3.01
728.524	4.26
728.84	4.9
729.156	4.23
729.472	4.06
729.787	4.54
730.103	5.52
730.419	4.08
730.734	4.44
731.05	6.05
731.365	3.77
731.681	4.99
731.996	4.51
732.311	4.71
732.626	4.76
732.942	4.08
733.257	4.39
733.572	5.28
733.887	5.59
734.202	5.06
734.517	3.65
734.832	5.84
735.146	6.01
735.461	4.94
735.776	3.49
736.091	3.26
736.405	4.14
736.72	3.59
737.034	5.94
737.349	4.55
737.663	4.03
737.977	4.74
738.292	4.88
738.606	3.51
738.92	3.95
739.234	5.78
739.548	5.29
739.862	3.82
740.176	4.37
740.49	5.54
740.804	6.54
741.117	4.06
741.431	4.74
741.745	6.7
742.058	5
742.372	5.35
742.685	4.34
742.999	5.84
743.312	3.84
743.626	4.69
743.939	5.22
744.252	5.44
744.565	5.31
744.878	5.8
745.191	3.78
745.505	4.9
745.817	7.89
746.13	5.26
746.443	2.54
746.756	4.98
747.069	4.12
747.381	4.06
747.694	5.16
748.007	5.19
748.319	4.82
748.632	2.88
748.944	3.39
749.256	4.45
749.569	2.02
749.881	3.93
750.193	4.38
750.505	4.37
750.817	3.82
751.129	2.7
751.441	5
751.753	6.69
752.065	2.6
752.377	5.47
752.689	4.94
753	4.05
753.312	6.08
753.624	5.98
753.935	5.23
754.247	5.09
754.558	4.31
754.869	4.38
755.181	5.56
755.492	5.91
755.803	4.87
756.114	4.24
756.425	6.26
756.736	3.94
757.047	6.02
757.358	6.62
757.669	4.24
757.98	6.72
758.291	5.11
758.601	6.28
758.912	5.3
759.223	3.79
759.533	3.86
759.844	5.56
760.154	8.19
760.464	3.69
760.775	5.92
761.085	4.83
761.395	5.25
761.705	3.32
762.016	3.4
762.326	4.04
762.636	4.8
762.945	5.18
763.255	6.76
763.565	4.5
763.875	5.2
764.185	4.84
764.494	2.37
764.804	3
765.113	5.64
765.423	4.66
765.732	3.13
766.042	5.05
766.351	5.23
766.66	4.37
766.97	4.58
767.279	3.51
767.588	6.32
767.897	5.46
768.206	4.39
768.515	5.67
768.824	5.91
769.133	6.46
769.441	5.98
769.75	3.19
770.059	6.11
770.367	3.26
770.676	7.19
770.984	5.71
771.293	6.2
771.601	2.72
771.91	5.37
772.218	3.76
772.526	0.7
772.834	5.53
773.142	5.96
773.45	5.82
773.758	3.32
774.066	4.51
774.374	2.53
774.682	4.31
774.99	3.96
775.298	7.07
775.605	4.03
775.913	7.96
776.22	4.34
776.528	5.31
776.835	6.74
777.143	6.62
777.45	5.2
777.757	3.44
778.065	3.18
778.372	3.44
778.679	4.36
778.986	7.57
779.293	8.12
779.6	2.76
779.907	1.07
780.214	6.79
780.52	4.92
780.827	7.6
781.134	5.9
781.44	5.67
781.747	2.07
782.053	4.57
782.36	2.39
782.666	0.92
782.973	3.51
783.279	3.79
783.585	3.69
783.891	10.43
784.197	7.87
784.503	8.19
784.809	5.36
785.115	3.06
785.421	5.04
785.727	3.96
786.033	5.02
786.339	3.42
786.644	0.13
786.95	10.8
787.255	6.79
787.561	1.73
787.866	8.35
788.172	1.54
788.477	4.79
788.782	3.61
789.088	8.22
789.393	2.43
789.698	3.74
790.003	2.98
790.308	3.62
790.613	4.38
790.918	5.81
791.223	5.99
791.527	7.27
791.832	0.68
792.137	3.24
792.441	6.77
792.746	4.4
793.05	11.36
793.355	6.95
793.659	7.65
793.963	7.11
794.268	8.59
794.572	5.16
794.876	3.1
795.18	4.71
795.484	-0.59
795.788	5.19
796.092	-1.68
796.396	4.81
796.7	-2.27
797.004	11.23
797.307	4.54
797.611	-2.94
797.915	5.02
798.218	2.66
798.522	4.79
798.825	9.6
799.128	6.49
799.432	4.84
799.735	6.28
800.038	11.43
800.341	9.97
800.644	2.75
800.947	7.05
801.25	8.06
801.553	4.18
801.856	6.63
802.159	6.74
802.462	8.76
802.764	2.95
803.067	2.97
803.37	1.35
803.672	3.8
803.975	4.5
804.277	8.59
804.579	1.46
804.882	3.87
805.184	1.75
805.486	4.39
805.788	6.29
806.09	5.4
806.392	4.06
806.694	7.98
806.996	-4.6
807.298	3.11
807.6	6.73
807.902	3.62
808.203	4.07
808.505	8.41
808.807	7.75
809.108	7.64
809.409	9.75
809.711	4.87
810.012	1.76
810.313	4.64
810.615	5.15
810.916	4.47
811.217	9.71
811.518	-2.16
811.819	3.57
812.12	2.92
812.421	3.2
812.722	3.25
813.023	2.96
813.323	2.62
813.624	7.44
813.925	13.55
814.225	-0.1
814.526	3.69
814.826	8.27
815.126	0.91
815.427	3.85
815.727	1.03
816.027	-1.01
816.327	5.24
816.627	9.44
816.927	13.89
817.227	1.92
817.527	5.31
817.827	1.04
818.127	5.72
818.427	-1.48
818.727	-6.78
819.026	3.85
819.326	3.62
819.625	3.09
819.925	10.9
820.224	1.52
820.524	6.16
820.823	11.99
821.122	2.04
821.421	8.92
821.72	-3.14
822.019	-1.06
822.318	2.59
822.617	5.93
822.916	5.83
823.215	5.68
823.514	5.98
823.813	6.61
824.111	7.27
824.41	5.89
824.709	7.26
825.007	7.42
825.306	6.84
825.604	6.21
825.902	6.99
826.201	5.63
826.499	5.45
826.797	8.45
827.095	5.97
827.393	7.87
827.691	6.99
827.989	5.93
828.287	5.67
828.585	7.36
828.882	7.25
829.18	6.55
829.478	7.37
829.775	6.96
830.073	5.46
830.37	8.48
830.668	6.94
830.965	9.72
831.263	8.01
831.56	4.92
831.857	4.43
832.154	4.02
832.451	4.56
832.748	3.09
833.045	7.19
833.342	4.54
833.639	10.18
833.936	7.61
834.232	6.31
834.529	7.93
834.826	7.29
835.122	11.23
835.419	8.05
835.715	5.27
836.012	5
836.308	5.45
836.604	7.38
836.901	7.11
837.197	10.19
837.493	6.11
837.789	6.68
838.085	10.14
838.381	6.98
838.677	7.77
838.972	5.21
839.268	1.18
839.564	10.5
839.86	2.83
840.155	6.46
840.451	7.05
840.746	10.76
841.042	-4.53
841.337	0.59
841.632	7.62
841.928	3.51
842.223	5.38
842.518	4.83
842.813	3.39
843.108	9.03
843.403	-1.42
843.698	2.83
843.993	3.33
844.287	1.25
844.582	-1.76
844.877	12.13
845.171	10.02
845.466	-19.66
845.761	10.46
846.055	-6.8
846.349	9.48
846.644	16.26
846.938	11.22
847.232	8.87
847.526	-1.63
847.82	10.91
848.114	12.29
848.408	9.55
848.702	18.59
848.996	9.1
849.29	17.42
849.584	5.55
849.877	15.11
850.171	-14.45
850.465	-10.84
850.758	8.26
851.052	2.54
851.345	13.56
851.638	31.64
851.932	-6
852.225	-29.36
852.518	19.7
852.811	18.38
853.104	-20.21
853.397	7.09
853.69	-9.98
853.983	11.9
854.276	-5.13
854.569	10.32
854.861	16.54
855.154	33.19
855.447	20.22
855.739	22.71
856.032	-15.05
856.324	0.47
856.616	11.09
856.909	5.2
857.201	8.69
857.493	-46.44
857.785	5.25
858.077	5.68
858.369	-9.12
858.661	5.48
858.953	19.44
859.245	-2.07
859.537	22.6
859.829	14.3
860.12	-11.72
860.412	-33.5
860.703	-6.26
860.995	22.87
861.286	21.4
861.578	3.48
861.869	17.5
862.16	0.69
862.452	-5
862.743	-12.42
863.034	16
863.325	14.78
863.616	20.72
863.907	4.76
864.198	-20.56
864.488	26.85
864.779	16.92
865.07	-4.19
865.36	16.71
865.651	-33.36
865.941	-16.79
866.232	-16.45
866.522	12.13
866.813	2.43
867.103	35.96
867.393	9.2
867.683	-6.85
867.973	32.59
868.263	4.93
868.553	31.09
868.843	-27.01
869.133	-2.88
869.423	1.09
869.713	-9.78
870.002	-56.3
870.292	12.22
870.582	-13.68
870.871	-9.72
871.161	9.23
871.45	6.44
871.739	11.66
872.029	-30.36
872.318	-0.45
872.607	1.48
872.896	14.26
873.185	-11.7
873.474	-49.2
873.763	-12.85
874.052	20.59
874.341	-2.82
874.63	24.49
874.918	-21.33
875.207	36.07
875.496	5.02
875.784	65.8
876.073	12.57
876.361	-22.61
876.649	-17.29
876.938	23.74
877.226	-15.12
877.514	-75.54
877.802	8.56
878.09	-7.39
878.378	11.79
878.666	20.85
878.954	8.03
879.242	11.31
879.53	0.63
879.817	-31.76
880.105	-1.57
880.392	3
880.68	4.98
880.967	7.69
881.255	-0.07
881.542	2.2
881.83	19.54
882.117	2.98
882.404	21.31
882.691	-48.41
882.978	-35.76
883.265	-6.05
883.552	-9.6
883.839	5.17
884.126	-5.87
884.413	0.32
884.699	12.8
884.986	11.82
885.273	4.15
885.559	4.15
885.846	4.15
