Data from 2019-2_forehead_Reflection__0__417.txt Node

Date: Thu Dec 15 20:12:26 CST 2022
User: ToomeyLab
Spectrometer: FLMS14357
Trigger mode: 0
Integration Time (sec): 1.000000E-2
Scans to average: 100
Electric dark correction enabled: true
Nonlinearity correction enabled: false
Boxcar width: 0
XAxis mode: Wavelengths
Number of Pixels in Spectrum: 2048
>>>>>Begin Spectral Data<<<<<
189.047	191.53
189.435	191.53
189.823	191.53
190.211	50.16
190.599	21.67
190.987	77.66
191.375	-7171.43
191.763	47.22
192.151	110.51
192.538	2.42
192.926	211.07
193.314	-221.96
193.702	-28.69
194.089	0.39
194.477	59.85
194.864	124.89
195.252	-32.36
195.639	135.94
196.027	1.66
196.414	-90.44
196.801	1029.5
197.189	57.6
197.576	-554.06
197.963	647.31
198.351	-35.14
198.738	-7.64
199.125	-74.04
199.512	32.28
199.899	-43.44
200.286	-33.68
200.673	50.42
201.06	6.54
201.447	21.91
201.833	-12.21
202.22	20.04
202.607	-30.06
202.994	29.68
203.38	45.85
203.767	37.02
204.154	32.03
204.54	34.67
204.927	4.72
205.313	36.91
205.699	-8.59
206.086	45.69
206.472	19.8
206.858	37.49
207.245	-3.77
207.631	19.47
208.017	41.49
208.403	-55.8
208.789	49.37
209.175	11.55
209.561	-226.86
209.947	1.82
210.333	-8.87
210.719	37.76
211.105	26.39
211.491	3.19
211.876	-13.56
212.262	64.54
212.648	0.77
213.034	-6.45
213.419	9.26
213.805	-0.79
214.19	-28.86
214.576	-10.57
214.961	11.72
215.346	17.01
215.732	10.58
216.117	-30.45
216.502	-27.39
216.888	-32.08
217.273	41.71
217.658	-18.84
218.043	-38.34
218.428	-0.32
218.813	34.35
219.198	-62.06
219.583	5.7
219.968	24.71
220.353	-7.53
220.738	2.31
221.122	20.62
221.507	-0.77
221.892	-13.27
222.276	-16.68
222.661	4.84
223.046	-0.01
223.43	17.16
223.815	-1.99
224.199	1.61
224.583	-6.82
224.968	-10.29
225.352	-17.68
225.736	6.55
226.121	-0.14
226.505	0.66
226.889	17.14
227.273	-0.15
227.657	7.17
228.041	12.34
228.425	-0.21
228.809	3.07
229.193	4.09
229.577	3.76
229.961	5.54
230.344	5.73
230.728	5.62
231.112	5.06
231.495	3.79
231.879	4.64
232.263	6.09
232.646	4.52
233.03	6.8
233.413	6.32
233.797	4.35
234.18	3.95
234.563	4.86
234.946	2.84
235.33	4.97
235.713	5.86
236.096	5.13
236.479	7.78
236.862	4.64
237.245	6.07
237.628	5.2
238.011	5.19
238.394	4.57
238.777	5.19
239.16	5.4
239.543	5.44
239.925	5
240.308	2.07
240.691	4.26
241.073	4.59
241.456	5.46
241.838	5.25
242.221	5.31
242.603	5.68
242.986	4.75
243.368	4.7
243.75	4.98
244.133	5.24
244.515	4.96
244.897	4.5
245.279	4.74
245.661	5.3
246.043	4.64
246.425	5.22
246.807	5
247.189	4.88
247.571	4.59
247.953	4.76
248.335	5
248.717	4.89
249.098	4.78
249.48	4.66
249.862	5.34
250.243	5.03
250.625	5.01
251.006	6.35
251.388	4.3
251.769	3.02
252.151	5.4
252.532	5.24
252.913	4.88
253.295	4.62
253.676	4.73
254.057	4.52
254.438	4.89
254.819	5.17
255.2	4.5
255.581	6.17
255.962	5.82
256.343	6.68
256.724	5.36
257.105	4.54
257.486	3.42
257.867	4.69
258.247	5.04
258.628	5.28
259.009	4.6
259.389	4.24
259.77	4.34
260.15	5.41
260.531	4.71
260.911	4.91
261.292	4.73
261.672	4.68
262.052	4.81
262.432	4.39
262.813	5.14
263.193	4.72
263.573	5.36
263.953	4.02
264.333	4.45
264.713	4.45
265.093	4.53
265.473	6.03
265.853	4.18
266.233	5.64
266.612	3.83
266.992	4.34
267.372	5.31
267.752	4.7
268.131	4.43
268.511	4.75
268.89	5.32
269.27	4.54
269.649	4.61
270.029	4.74
270.408	4.4
270.787	4.34
271.167	4.78
271.546	5.52
271.925	5.31
272.304	4.6
272.683	4.52
273.062	4.32
273.441	4.44
273.82	4.8
274.199	4.51
274.578	4.6
274.957	4.75
275.336	4.48
275.715	4.4
276.093	4.31
276.472	3.94
276.851	5.25
277.229	4.59
277.608	3.96
277.986	4.77
278.365	4.88
278.743	4.63
279.122	4.44
279.5	4.26
279.878	4.49
280.257	4.54
280.635	4.7
281.013	4.45
281.391	3.97
281.769	4.88
282.147	4.73
282.525	4.35
282.903	4.33
283.281	4.88
283.659	4.75
284.037	4.68
284.415	4.19
284.792	4.85
285.17	4.59
285.548	4.43
285.925	4.39
286.303	4.89
286.68	4.78
287.058	4.73
287.435	4.52
287.813	4.68
288.19	4.54
288.567	4.7
288.945	4.05
289.322	4.62
289.699	4.59
290.076	4.32
290.453	4.67
290.83	4.82
291.207	4.93
291.584	4.86
291.961	4.72
292.338	4.78
292.715	4.38
293.092	5.4
293.469	5.02
293.845	4.99
294.222	5.57
294.599	4.49
294.975	4.97
295.352	5.17
295.728	5.25
296.105	4.86
296.481	5.47
296.858	5.62
297.234	4.98
297.61	5.18
297.986	5.55
298.363	5.54
298.739	5.6
299.115	5.61
299.491	5.66
299.867	5.47
300.243	5.87
300.619	5.24
300.995	5.62
301.371	5.75
301.746	6.05
302.122	5.48
302.498	5.54
302.874	6.07
303.249	6.08
303.625	5.71
304	6.29
304.376	6.61
304.751	6.15
305.127	6.08
305.502	6.12
305.878	6.39
306.253	5.98
306.628	6.49
307.003	6.03
307.378	6.26
307.754	6.69
308.129	6.13
308.504	6.55
308.879	6.6
309.254	7.01
309.629	6.77
310.003	6.64
310.378	7.01
310.753	6.82
311.128	6.67
311.502	6.7
311.877	6.98
312.252	7.08
312.626	7.31
313.001	6.99
313.375	7.35
313.75	7.35
314.124	7.37
314.498	7.54
314.873	7.48
315.247	7.48
315.621	6.97
315.995	7.62
316.369	7.45
316.743	7.68
317.117	7.37
317.491	7.5
317.865	7.58
318.239	7.91
318.613	7.93
318.987	7.61
319.361	7.67
319.734	7.67
320.108	8.28
320.482	8.3
320.855	8.28
321.229	8.34
321.602	8.32
321.976	7.94
322.349	8.85
322.723	8.39
323.096	8.76
323.469	8.48
323.843	8.26
324.216	8.71
324.589	9.09
324.962	8.63
325.335	8.48
325.708	8.57
326.081	8.89
326.454	8.66
326.827	8.74
327.2	8.73
327.573	9.52
327.945	8.66
328.318	8.59
328.691	9.13
329.063	8.98
329.436	8.64
329.809	9.85
330.181	9.63
330.553	9.66
330.926	10.1
331.298	9.13
331.671	9.93
332.043	9.32
332.415	10.11
332.787	10.04
333.159	9.16
333.532	9.81
333.904	9.82
334.276	9.96
334.648	9.52
335.02	9.7
335.391	9.46
335.763	9.84
336.135	10.13
336.507	9.16
336.879	10.44
337.25	9.82
337.622	10.39
337.993	10.19
338.365	10.2
338.736	10.5
339.108	10.42
339.479	10.1
339.851	10.76
340.222	10.82
340.593	10.09
340.964	10.19
341.336	10.47
341.707	10.63
342.078	10.62
342.449	11.13
342.82	10.79
343.191	10.5
343.562	10.73
343.933	10.14
344.303	10.83
344.674	10.63
345.045	10.62
345.416	11.08
345.786	10.8
346.157	11.22
346.527	11.18
346.898	10.7
347.268	11.22
347.639	11.36
348.009	11.45
348.38	11.42
348.75	11.37
349.12	11.58
349.49	11.85
349.861	11.86
350.231	11.19
350.601	11.47
350.971	11.26
351.341	11.32
351.711	11.94
352.081	11.44
352.45	11.29
352.82	11.43
353.19	11.83
353.56	11.74
353.929	11.83
354.299	11.76
354.669	12.11
355.038	12.33
355.408	12
355.777	12.48
356.147	12.23
356.516	12.08
356.885	12.14
357.254	12
357.624	11.75
357.993	12.16
358.362	12.47
358.731	12.61
359.1	12.73
359.469	12.44
359.838	12.38
360.207	12.68
360.576	12.73
360.945	12.68
361.314	12.97
361.682	12.7
362.051	12.84
362.42	12.95
362.788	12.74
363.157	12.79
363.525	13.13
363.894	12.89
364.262	13.05
364.631	13.25
364.999	13.11
365.367	13.21
365.735	13.04
366.104	13.21
366.472	13.24
366.84	13.3
367.208	13.68
367.576	13.48
367.944	13.29
368.312	13.54
368.68	13.84
369.048	13.67
369.416	13.37
369.783	13.48
370.151	13.97
370.519	13.91
370.886	13.72
371.254	14.11
371.621	14.17
371.989	14.36
372.356	14.08
372.724	13.89
373.091	13.97
373.458	13.98
373.826	14.23
374.193	14.24
374.56	14.53
374.927	14.43
375.294	14.59
375.661	14.49
376.028	14.34
376.395	14.63
376.762	14.65
377.129	14.58
377.496	14.5
377.863	14.78
378.229	14.92
378.596	14.97
378.963	14.95
379.329	14.96
379.696	14.88
380.062	14.59
380.429	15.03
380.795	15.3
381.161	14.88
381.528	14.62
381.894	15.14
382.26	15.33
382.626	15.18
382.993	15.49
383.359	15.49
383.725	15.24
384.091	15.48
384.457	15.31
384.823	15.48
385.188	15.73
385.554	15.74
385.92	15.74
386.286	15.91
386.651	15.96
387.017	16.16
387.383	15.87
387.748	16.06
388.114	15.86
388.479	15.81
388.845	15.87
389.21	16.17
389.575	16.34
389.94	16.22
390.306	16.27
390.671	16.42
391.036	16.2
391.401	16.14
391.766	16.4
392.131	16.68
392.496	16.69
392.861	16.49
393.226	16.39
393.591	16.57
393.956	16.47
394.32	16.83
394.685	16.81
395.05	16.58
395.414	16.84
395.779	17.01
396.143	16.86
396.508	16.68
396.872	16.48
397.236	17.2
397.601	17.08
397.965	16.96
398.329	17.15
398.694	16.98
399.058	16.98
399.422	17.09
399.786	17.14
400.15	16.99
400.514	17.52
400.878	17.48
401.242	17.62
401.605	17.37
401.969	17.34
402.333	17.47
402.697	17.7
403.06	17.57
403.424	17.79
403.787	17.75
404.151	17.88
404.514	17.8
404.878	17.9
405.241	17.99
405.604	17.77
405.968	17.85
406.331	18.19
406.694	17.92
407.057	18.11
407.42	17.95
407.783	18.26
408.146	18.26
408.509	18.25
408.872	18.36
409.235	18.52
409.598	18.25
409.961	18.43
410.323	18.12
410.686	18.55
411.049	18.67
411.411	18.66
411.774	18.57
412.136	18.85
412.499	18.58
412.861	18.41
413.223	18.82
413.586	18.68
413.948	18.75
414.31	18.97
414.672	19.01
415.035	19.03
415.397	19.02
415.759	18.86
416.121	19.23
416.483	19.4
416.845	19.3
417.206	19.26
417.568	19.16
417.93	19.15
418.292	19.11
418.653	19.18
419.015	19.27
419.377	19.16
419.738	19.23
420.1	19.32
420.461	19.3
420.822	19.25
421.184	19.31
421.545	19.47
421.906	19.37
422.267	19.39
422.629	19.38
422.99	19.44
423.351	19.46
423.712	19.58
424.073	19.57
424.434	19.74
424.795	19.74
425.155	19.61
425.516	19.65
425.877	19.75
426.238	19.79
426.598	19.8
426.959	19.98
427.32	19.98
427.68	20.11
428.041	20.34
428.401	20.26
428.761	20.45
429.122	20.58
429.482	20.73
429.842	20.67
430.202	20.66
430.563	20.68
430.923	20.76
431.283	21.01
431.643	21.02
432.003	20.76
432.363	21.12
432.722	20.98
433.082	21.01
433.442	20.97
433.802	21
434.161	20.99
434.521	21.11
434.881	21.04
435.24	21.25
435.6	21.22
435.959	21.33
436.319	21.26
436.678	21.43
437.037	21.43
437.396	21.57
437.756	21.54
438.115	21.63
438.474	21.73
438.833	21.64
439.192	21.69
439.551	21.51
439.91	21.52
440.269	21.79
440.628	21.69
440.987	21.9
441.345	21.67
441.704	21.8
442.063	21.65
442.421	21.74
442.78	21.8
443.138	22.05
443.497	22.01
443.855	22.09
444.214	22
444.572	22.48
444.93	22.29
445.288	22.1
445.647	22.3
446.005	22.31
446.363	22.37
446.721	22.43
447.079	22.22
447.437	22.26
447.795	22.36
448.153	22.24
448.51	22.38
448.868	22.23
449.226	22.44
449.584	22.57
449.941	22.86
450.299	22.66
450.656	22.84
451.014	23.01
451.371	23.15
451.729	23.34
452.086	23.24
452.443	23.35
452.801	23.49
453.158	23.28
453.515	23.38
453.872	23.32
454.229	23.25
454.586	23.37
454.943	23.47
455.3	23.54
455.657	23.74
456.014	23.61
456.371	23.86
456.727	23.87
457.084	23.96
457.441	23.73
457.797	24.15
458.154	24.03
458.51	23.82
458.867	23.94
459.223	23.86
459.58	24.13
459.936	23.99
460.292	24
460.648	24.07
461.005	23.96
461.361	24.07
461.717	23.81
462.073	23.94
462.429	24.26
462.785	24.38
463.141	24.46
463.496	24.55
463.852	24.55
464.208	24.59
464.564	24.66
464.919	24.7
465.275	24.86
465.631	24.77
465.986	24.81
466.342	25.02
466.697	24.69
467.052	25.09
467.408	25.18
467.763	25.13
468.118	25.23
468.473	25.05
468.829	25.12
469.184	25.26
469.539	25.15
469.894	25.33
470.249	25.5
470.603	25.56
470.958	25.7
471.313	25.4
471.668	25.61
472.023	25.5
472.377	25.53
472.732	25.73
473.086	25.79
473.441	25.77
473.795	25.94
474.15	26.1
474.504	25.87
474.859	25.77
475.213	26
475.567	25.9
475.921	25.92
476.275	26.06
476.63	26.07
476.984	26.03
477.338	26.28
477.692	26.31
478.045	26.25
478.399	26.44
478.753	26.37
479.107	26.33
479.461	26.23
479.814	26.34
480.168	26.37
480.521	26.52
480.875	26.47
481.228	26.66
481.582	26.66
481.935	26.64
482.289	26.6
482.642	26.69
482.995	26.73
483.348	26.53
483.701	26.49
484.055	26.38
484.408	26.28
484.761	26.03
485.114	25.89
485.466	25.97
485.819	25.91
486.172	25.96
486.525	26.05
486.878	26.17
487.23	26.3
487.583	26.54
487.936	26.51
488.288	26.58
488.641	26.48
488.993	26.38
489.345	26.38
489.698	26.51
490.05	26.51
490.402	26.67
490.754	26.82
491.107	27.01
491.459	27.31
491.811	27.29
492.163	27.37
492.515	27.21
492.866	27.07
493.218	27.11
493.57	27.15
493.922	27.09
494.274	27.31
494.625	27.55
494.977	27.7
495.328	27.86
495.68	28
496.031	28.24
496.383	28.2
496.734	28.33
497.086	28.23
497.437	28.55
497.788	28.39
498.139	28.35
498.49	28.36
498.842	28.42
499.193	28.33
499.544	28.61
499.894	28.53
500.245	28.64
500.596	28.78
500.947	28.85
501.298	28.65
501.648	29.03
501.999	28.98
502.35	29.03
502.7	29.17
503.051	29.2
503.401	29.06
503.752	29.12
504.102	29.28
504.452	29.28
504.803	29.35
505.153	29.34
505.503	29.36
505.853	29.53
506.203	29.47
506.553	29.38
506.903	29.5
507.253	29.57
507.603	29.69
507.953	29.68
508.303	29.77
508.652	29.65
509.002	29.85
509.352	29.89
509.701	29.83
510.051	29.91
510.4	29.78
510.75	29.78
511.099	29.75
511.449	29.95
511.798	29.7
512.147	29.99
512.496	30.08
512.846	30.01
513.195	30
513.544	30.23
513.893	30.16
514.242	30.22
514.591	30.24
514.939	30.36
515.288	30.4
515.637	30.48
515.986	30.58
516.334	30.61
516.683	30.56
517.032	30.82
517.38	30.79
517.729	30.71
518.077	30.92
518.426	30.72
518.774	30.71
519.122	30.67
519.47	30.63
519.819	30.49
520.167	30.44
520.515	30.65
520.863	30.69
521.211	30.65
521.559	30.85
521.907	31.05
522.255	31.12
522.602	31.06
522.95	31.34
523.298	31.37
523.645	31.47
523.993	31.53
524.341	31.58
524.688	31.65
525.036	31.8
525.383	31.54
525.73	31.74
526.078	31.69
526.425	31.39
526.772	31.45
527.119	31.3
527.466	31.32
527.814	31.45
528.161	31.43
528.508	31.64
528.854	31.44
529.201	31.55
529.548	31.34
529.895	31.13
530.242	31.19
530.588	31.23
530.935	31.24
531.282	31.22
531.628	31.34
531.975	31.49
532.321	31.66
532.667	31.99
533.014	32.08
533.36	32.2
533.706	32.03
534.052	32.18
534.399	31.86
534.745	31.91
535.091	31.94
535.437	31.93
535.783	32.03
536.129	32.01
536.474	32.37
536.82	32.45
537.166	32.43
537.512	32.69
537.857	32.55
538.203	32.6
538.549	32.52
538.894	32.76
539.239	32.81
539.585	33.02
539.93	33.17
540.276	33.19
540.621	33.33
540.966	33.35
541.311	33.35
541.656	33.17
542.001	33.22
542.346	33.12
542.691	32.82
543.036	32.73
543.381	32.84
543.726	32.86
544.071	32.94
544.415	32.91
544.76	33.04
545.105	33.18
545.449	33.49
545.794	33.57
546.138	33.43
546.483	33.57
546.827	33.81
547.171	34.03
547.516	34.03
547.86	33.89
548.204	33.8
548.548	34.02
548.892	34.09
549.236	34.06
549.58	34.34
549.924	34.24
550.268	34.39
550.612	34.69
550.956	34.89
551.3	34.71
551.643	34.82
551.987	34.79
552.33	35.08
552.674	34.87
553.017	35.12
553.361	34.88
553.704	35.08
554.048	35.03
554.391	35.12
554.734	35.06
555.077	35.1
555.42	35.01
555.764	35.11
556.107	35.32
556.45	35.53
556.793	35.51
557.135	35.59
557.478	35.59
557.821	35.54
558.164	35.59
558.507	35.66
558.849	35.78
559.192	35.52
559.534	35.64
559.877	35.64
560.219	35.87
560.562	35.77
560.904	36.01
561.246	35.76
561.589	36.27
561.931	36.27
562.273	36.13
562.615	36.1
562.957	36.04
563.299	36.22
563.641	36.12
563.983	36.31
564.325	36.31
564.667	36.38
565.008	36.28
565.35	36.29
565.692	36.48
566.033	36.42
566.375	36.47
566.716	36.34
567.058	36.8
567.399	36.57
567.741	36.56
568.082	36.32
568.423	36.56
568.764	36.57
569.105	36.47
569.447	36.62
569.788	36.65
570.129	36.93
570.47	37
570.811	36.97
571.151	36.85
571.492	37.01
571.833	37.09
572.174	37.34
572.514	37.17
572.855	37.35
573.195	37.11
573.536	37.13
573.876	37.11
574.217	37.02
574.557	37.14
574.898	37.15
575.238	37.35
575.578	37.73
575.918	37.33
576.258	37.47
576.598	37.44
576.938	37.6
577.278	37.63
577.618	37.49
577.958	37.59
578.298	37.67
578.638	37.68
578.977	37.84
579.317	37.79
579.657	37.97
579.996	38.13
580.336	38.14
580.675	37.92
581.014	38.29
581.354	37.95
581.693	38.32
582.032	38.54
582.372	38.52
582.711	38.76
583.05	38.47
583.389	38.64
583.728	38.67
584.067	38.66
584.406	38.76
584.745	38.56
585.083	38.65
585.422	39.1
585.761	38.65
586.1	39.05
586.438	39
586.777	38.9
587.115	38.88
587.454	39.1
587.792	38.58
588.13	38.82
588.469	38.9
588.807	39.28
589.145	39.2
589.483	38.94
589.821	39.28
590.159	39.24
590.497	39.22
590.835	39.37
591.173	39.24
591.511	39.45
591.849	39.49
592.187	39.36
592.524	39.6
592.862	39.54
593.2	39.48
593.537	39.77
593.875	39.61
594.212	39.84
594.55	39.76
594.887	39.98
595.224	39.62
595.561	39.8
595.899	39.88
596.236	39.7
596.573	39.89
596.91	39.93
597.247	40.14
597.584	39.88
597.921	40.11
598.258	40.21
598.594	39.59
598.931	39.68
599.268	39.62
599.604	40.14
599.941	39.96
600.277	39.94
600.614	40.16
600.95	40.53
601.287	39.72
601.623	40.26
601.959	40.75
602.296	40.59
602.632	40.74
602.968	40.37
603.304	40.65
603.64	40.6
603.976	40.66
604.312	40.15
604.648	40.73
604.984	40.8
605.319	40.94
605.655	40.54
605.991	40.73
606.326	40.44
606.662	40.4
606.998	40.64
607.333	40.3
607.668	40.77
608.004	40.56
608.339	40.78
608.674	41.1
609.01	41.22
609.345	40.91
609.68	40.86
610.015	40.99
610.35	41.31
610.685	41.06
611.02	41.14
611.355	41.23
611.689	41.13
612.024	41.01
612.359	41.1
612.694	41.31
613.028	41.38
613.363	41.36
613.697	41.82
614.032	41.63
614.366	41.37
614.7	41.93
615.035	41.81
615.369	42.48
615.703	41.95
616.037	42.14
616.371	42.24
616.705	42.04
617.039	41.93
617.373	42.25
617.707	42.25
618.041	41.81
618.375	41.76
618.709	42.13
619.042	41.71
619.376	42.04
619.71	42.29
620.043	42.38
620.377	41.84
620.71	42.17
621.043	42.37
621.377	42.37
621.71	42.82
622.043	42.57
622.376	42.31
622.709	42.79
623.043	42.49
623.376	42.69
623.709	42.67
624.041	43.11
624.374	42.78
624.707	42.99
625.04	42.06
625.373	42.94
625.705	43.31
626.038	42.75
626.37	42.59
626.703	42.57
627.035	43.34
627.368	43.43
627.7	42.79
628.032	43.26
628.365	42.97
628.697	43.16
629.029	42.98
629.361	43.18
629.693	43.3
630.025	43.71
630.357	43.33
630.689	43.78
631.021	43.39
631.353	43.54
631.684	43.2
632.016	43.15
632.348	43.25
632.679	43.99
633.011	43.74
633.342	43.83
633.674	43.6
634.005	43.98
634.336	44.11
634.668	44.01
634.999	43.82
635.33	43.86
635.661	44.06
635.992	43.71
636.323	43.79
636.654	44.3
636.985	43.99
637.316	43.99
637.647	44.37
637.977	43.81
638.308	43.98
638.639	44.28
638.969	43.89
639.3	43.95
639.63	44.09
639.961	44.33
640.291	44.4
640.622	44.34
640.952	44.44
641.282	43.97
641.612	44
641.943	44.27
642.273	44.29
642.603	44.81
642.933	44.89
643.263	44.62
643.592	45.07
643.922	45.29
644.252	44.56
644.582	44.41
644.911	44.32
645.241	44.55
645.571	45.04
645.9	45.33
646.23	45.09
646.559	44.59
646.888	45.69
647.218	45.42
647.547	44.61
647.876	45.1
648.205	45.02
648.534	45.1
648.863	45.37
649.192	45.56
649.521	45.2
649.85	45.67
650.179	45.39
650.508	44.85
650.837	45.3
651.165	45.39
651.494	45.39
651.822	45.32
652.151	45.56
652.479	45.76
652.808	45.32
653.136	45.1
653.465	45.26
653.793	46.03
654.121	45.93
654.449	45.6
654.777	45.41
655.105	45.43
655.433	46.03
655.761	45.89
656.089	46.21
656.417	46.57
656.745	45.78
657.073	46.08
657.4	45.74
657.728	45.99
658.056	45.93
658.383	45.78
658.711	46.07
659.038	46.38
659.365	46.49
659.693	46.22
660.02	45.98
660.347	46.04
660.674	45.8
661.001	46.11
661.329	46.43
661.656	46.36
661.982	46.62
662.309	45.91
662.636	46.16
662.963	45.91
663.29	46.6
663.616	46.42
663.943	46.56
664.27	46.06
664.596	46.94
664.923	46.59
665.249	47.13
665.576	47.07
665.902	46.89
666.228	46.4
666.554	46.8
666.881	47.17
667.207	46.49
667.533	46.57
667.859	47.43
668.185	47.45
668.511	47.15
668.837	47.17
669.162	47.63
669.488	46.36
669.814	46.96
670.139	46.98
670.465	47.19
670.791	46.96
671.116	47.19
671.442	46.76
671.767	47.09
672.092	47.15
672.418	47.56
672.743	46.44
673.068	46.91
673.393	46.47
673.718	45.99
674.043	47.23
674.368	46.69
674.693	46.92
675.018	47.56
675.343	47.35
675.667	47.08
675.992	47.59
676.317	47.58
676.641	47.42
676.966	47.92
677.29	47.25
677.615	47.52
677.939	48.04
678.264	47.29
678.588	47.68
678.912	47.46
679.236	47.9
679.56	47.93
679.885	47.53
680.209	48.34
680.532	47.86
680.856	47.89
681.18	48.71
681.504	47.88
681.828	47.71
682.152	48.21
682.475	47.45
682.799	48.05
683.122	48.05
683.446	47.83
683.769	48.32
684.093	48.47
684.416	47.58
684.739	48.08
685.062	48.49
685.386	48.9
685.709	48.78
686.032	48.05
686.355	48.2
686.678	48.23
687.001	48.99
687.324	47.87
687.646	48.81
687.969	48.17
688.292	48.01
688.614	49.07
688.937	49.02
689.26	49.06
689.582	48.7
689.904	48.37
690.227	48.58
690.549	48.34
690.871	48.64
691.194	48.35
691.516	49.06
691.838	49.22
692.16	49
692.482	48.78
692.804	49.06
693.126	48.29
693.448	48.31
693.769	48.53
694.091	48.28
694.413	48.49
694.735	49.89
695.056	48.84
695.378	48.38
695.699	49.46
696.021	49.19
696.342	49.59
696.663	49.88
696.984	48.49
697.306	49.21
697.627	49.46
697.948	48.77
698.269	50.04
698.59	49.03
698.911	49.49
699.232	49.76
699.553	49.62
699.873	49.74
700.194	49.64
700.515	49.25
700.835	49.3
701.156	49.03
701.477	49.2
701.797	49.45
702.117	49.21
702.438	49.81
702.758	49
703.078	50.26
703.398	49.16
703.719	50.52
704.039	49.2
704.359	49.58
704.679	49.71
704.999	50.08
705.319	49.38
705.638	48.66
705.958	49.62
706.278	49.85
706.597	49.49
706.917	50.23
707.237	49.99
707.556	49.87
707.876	50
708.195	49.83
708.514	50.17
708.834	51.25
709.153	50.21
709.472	49.89
709.791	49.77
710.11	49.35
710.429	51.05
710.748	50.12
711.067	50.44
711.386	49.49
711.705	49.91
712.023	50.6
712.342	49.68
712.661	50.89
712.979	51.01
713.298	50.67
713.616	50.07
713.935	50.19
714.253	50.82
714.572	49.24
714.89	50.83
715.208	51.1
715.526	50.11
715.844	50.77
716.162	51.08
716.48	50.03
716.798	50.91
717.116	51.41
717.434	51.04
717.752	51.59
718.069	50.25
718.387	50.51
718.705	50.18
719.022	51.63
719.34	50.27
719.657	50.69
719.975	51.47
720.292	49.2
720.609	50.32
720.927	51.16
721.244	52.16
721.561	50.68
721.878	51.43
722.195	52.35
722.512	50.84
722.829	50.32
723.146	50.5
723.463	51.8
723.779	50.08
724.096	50.79
724.413	50.81
724.729	50.84
725.046	51.39
725.362	50.71
725.679	51.03
725.995	50.28
726.311	52.19
726.628	50.84
726.944	52.6
727.26	52.13
727.576	50.41
727.892	50.3
728.208	53.59
728.524	51.41
728.84	50.75
729.156	50.86
729.472	50.31
729.787	52.74
730.103	51.46
730.419	50.98
730.734	51.31
731.05	50.64
731.365	51.19
731.681	52.59
731.996	52.01
732.311	51.81
732.626	50.96
732.942	52.03
733.257	51.79
733.572	51.6
733.887	53.38
734.202	52.37
734.517	52.66
734.832	51.59
735.146	52.32
735.461	50.66
735.776	52.94
736.091	53.55
736.405	51.71
736.72	50.83
737.034	53.29
737.349	52.08
737.663	53.4
737.977	52.66
738.292	52.32
738.606	52.43
738.92	52.27
739.234	51.89
739.548	51.58
739.862	53.33
740.176	50.91
740.49	51.5
740.804	53.24
741.117	51.41
741.431	51.85
741.745	51.85
742.058	52.13
742.372	52.28
742.685	51.8
742.999	51.53
743.312	53.21
743.626	52.61
743.939	52.29
744.252	52.6
744.565	51.27
744.878	51.55
745.191	53.49
745.505	50.76
745.817	54.36
746.13	51.13
746.443	51.43
746.756	52.42
747.069	52.13
747.381	52.99
747.694	52.59
748.007	51.83
748.319	54.23
748.632	51.19
748.944	51.56
749.256	53.6
749.569	51.01
749.881	52.68
750.193	53.63
750.505	53.71
750.817	53.98
751.129	50.46
751.441	55.54
751.753	53.86
752.065	53.49
752.377	54.32
752.689	54.61
753	55.17
753.312	54.21
753.624	51.64
753.935	52.24
754.247	52.54
754.558	53.43
754.869	53.42
755.181	52.45
755.492	53.61
755.803	52.38
756.114	52.81
756.425	52.29
756.736	52.19
757.047	53.52
757.358	52.25
757.669	51.83
757.98	50.76
758.291	50.77
758.601	53.09
758.912	51.78
759.223	52.89
759.533	54.45
759.844	51.85
760.154	53.97
760.464	53.84
760.775	53.26
761.085	54.47
761.395	52.86
761.705	52.53
762.016	53.63
762.326	54.36
762.636	55.07
762.945	54.68
763.255	54.79
763.565	53.43
763.875	53.88
764.185	54.38
764.494	53.55
764.804	54.34
765.113	53.86
765.423	53.94
765.732	55.51
766.042	54.53
766.351	54.21
766.66	53.12
766.97	55.75
767.279	53.79
767.588	53.44
767.897	54.7
768.206	53.65
768.515	55.33
768.824	54.05
769.133	53.51
769.441	52.85
769.75	54.69
770.059	52.44
770.367	54.15
770.676	55.35
770.984	54.18
771.293	54.28
771.601	53.43
771.91	52.85
772.218	56
772.526	54.04
772.834	55.37
773.142	54.54
773.45	55.47
773.758	54.61
774.066	55.68
774.374	56.56
774.682	53.47
774.99	51.1
775.298	52.95
775.605	52.6
775.913	52.67
776.22	51.69
776.528	51.34
776.835	54.46
777.143	54.23
777.45	51.81
777.757	52.02
778.065	55.04
778.372	53.91
778.679	52.54
778.986	53.94
779.293	54.07
779.6	58.08
779.907	52.32
780.214	52.74
780.52	51.65
780.827	54.35
781.134	56.57
781.44	58.01
781.747	53.89
782.053	49.12
782.36	53.53
782.666	52.97
782.973	54.85
783.279	54.98
783.585	52
783.891	55.74
784.197	55.03
784.503	54.78
784.809	55.03
785.115	56.95
785.421	52.34
785.727	56.79
786.033	51.75
786.339	56.82
786.644	54.13
786.95	48.61
787.255	51.55
787.561	55.7
787.866	57.48
788.172	55.59
788.477	53.28
788.782	55.33
789.088	49.68
789.393	53.07
789.698	52.46
790.003	53.58
790.308	54.84
790.613	56.04
790.918	53.64
791.223	52.34
791.527	56.9
791.832	55.71
792.137	54.91
792.441	55.87
792.746	54.01
793.05	54.42
793.355	53.83
793.659	54.44
793.963	56.64
794.268	54.71
794.572	52.67
794.876	55.58
795.18	58.58
795.484	56.67
795.788	54.44
796.092	52.42
796.396	55.62
796.7	56.88
797.004	53.68
797.307	53.2
797.611	57.59
797.915	56.64
798.218	53.19
798.522	49.89
798.825	55.6
799.128	55.58
799.432	54.92
799.735	55.42
800.038	51.68
800.341	56.22
800.644	52.23
800.947	53.03
801.25	57.45
801.553	57.4
801.856	55.33
802.159	55.81
802.462	54.2
802.764	52.98
803.067	56.52
803.37	56.8
803.672	51.94
803.975	50.46
804.277	54.3
804.579	52.97
804.882	56.34
805.184	54.01
805.486	56.52
805.788	56.03
806.09	52.99
806.392	60
806.694	49.78
806.996	54.56
807.298	52.7
807.6	50.29
807.902	56.43
808.203	50.33
808.505	51.82
808.807	58.65
809.108	59.07
809.409	59.15
809.711	61.46
810.012	53.37
810.313	52.14
810.615	61.05
810.916	50.79
811.217	47.48
811.518	50.56
811.819	48.48
812.12	55.83
812.421	52.75
812.722	57.85
813.023	54.42
813.323	54.29
813.624	59.05
813.925	56.82
814.225	53.16
814.526	48.42
814.826	54.03
815.126	53.69
815.427	47.75
815.727	55.2
816.027	55.03
816.327	55.23
816.627	61.32
816.927	54.2
817.227	56.67
817.527	52.96
817.827	53.24
818.127	53.39
818.427	55.42
818.727	55.95
819.026	53.54
819.326	52.76
819.625	56.36
819.925	60.88
820.224	57.55
820.524	54.04
820.823	53.09
821.122	53.97
821.421	49.77
821.72	51.65
822.019	52.57
822.318	56.72
822.617	61.03
822.916	54.03
823.215	55.39
823.514	56.64
823.813	58.66
824.111	58.12
824.41	58.94
824.709	56.9
825.007	58.32
825.306	57.64
825.604	56.92
825.902	57.6
826.201	55.53
826.499	57.28
826.797	55.95
827.095	57.53
827.393	56.1
827.691	57.68
827.989	55.3
828.287	57.34
828.585	57.2
828.882	56.78
829.18	58.59
829.478	58.24
829.775	58.04
830.073	56.53
830.37	55.8
830.668	57.36
830.965	54.18
831.263	56.13
831.56	56.7
831.857	56.28
832.154	59.52
832.451	60.28
832.748	51.46
833.045	56.49
833.342	50.59
833.639	54.79
833.936	55.1
834.232	52.71
834.529	53.89
834.826	56.06
835.122	51.51
835.419	53.62
835.715	52.81
836.012	57.74
836.308	60.22
836.604	59.08
836.901	56.52
837.197	58.07
837.493	54.69
837.789	54.74
838.085	55.54
838.381	57.15
838.677	53.32
838.972	57.73
839.268	59.72
839.564	53.67
839.86	47.21
840.155	59.16
840.451	55.79
840.746	57.74
841.042	53.96
841.337	51.47
841.632	55.44
841.928	51.81
842.223	51.59
842.518	65.66
842.813	59.37
843.108	53.01
843.403	57.66
843.698	54.29
843.993	54.35
844.287	61.59
844.582	54.97
844.877	56.13
845.171	57.95
845.466	55.01
845.761	47.42
846.055	60.06
846.349	54.82
846.644	43.19
846.938	56.6
847.232	45.82
847.526	52.14
847.82	50.21
848.114	46.68
848.408	67.37
848.702	57.25
848.996	48.41
849.29	61.84
849.584	52.31
849.877	48.23
850.171	59.11
850.465	40.56
850.758	41.73
851.052	35.59
851.345	40.48
851.638	38.14
851.932	56.47
852.225	55.93
852.518	44.64
852.811	39.39
853.104	57.06
853.397	41.19
853.69	51.59
853.983	35.47
854.276	55.81
854.569	59.42
854.861	56.18
855.154	39.25
855.447	47.26
855.739	56.12
856.032	52.58
856.324	75.08
856.616	76.87
856.909	45.01
857.201	21.04
857.493	73.02
857.785	35.13
858.077	55.46
858.369	50.25
858.661	85.73
858.953	54.71
859.245	61.01
859.537	42.3
859.829	49.19
860.12	46.81
860.412	60.48
860.703	59.67
860.995	48.96
861.286	49.51
861.578	46.91
861.869	52.84
862.16	55.66
862.452	23.98
862.743	37.97
863.034	57.16
863.325	40.67
863.616	53.3
863.907	82.85
864.198	32.03
864.488	30.73
864.779	62.83
865.07	48.07
865.36	57.5
865.651	57.89
865.941	57.65
866.232	76.28
866.522	48.63
866.813	65.78
867.103	16.28
867.393	32.98
867.683	34.73
867.973	50.53
868.263	47.69
868.553	56.42
868.843	32.12
869.133	48.6
869.423	80.53
869.713	66.08
870.002	82.67
870.292	43.38
870.582	45.96
870.871	35.49
871.161	76.12
871.45	87.07
871.739	59.68
872.029	28.81
872.318	57.07
872.607	77.76
872.896	81.51
873.185	27.03
873.474	11.35
873.763	63.53
874.052	69.6
874.341	57.27
874.63	36.58
874.918	72.92
875.207	59.46
875.496	45.55
875.784	55.65
876.073	65.91
876.361	60.12
876.649	50.36
876.938	47.75
877.226	54.53
877.514	67.91
877.802	49.55
878.09	46.9
878.378	34.08
878.666	82.5
878.954	58.87
879.242	45.52
879.53	99.33
879.817	28.56
880.105	66.99
880.392	46.39
880.68	63.03
880.967	39.22
881.255	54.76
881.542	18.44
881.83	67.51
882.117	69.52
882.404	42.99
882.691	52.27
882.978	56.14
883.265	50.44
883.552	63.94
883.839	52.34
884.126	57.96
884.413	56.87
884.699	50.86
884.986	55.93
885.273	59.09
885.559	59.09
885.846	59.09
