Data from 427_forehead_Reflection__0__149.txt Node

Date: Fri Dec 15 17:58:14 CST 2023
User: ToomeyLab
Spectrometer: FLMS14357
Trigger mode: 0
Integration Time (sec): 1.000000E-2
Scans to average: 100
Electric dark correction enabled: true
Nonlinearity correction enabled: false
Boxcar width: 0
XAxis mode: Wavelengths
Number of Pixels in Spectrum: 2048
>>>>>Begin Spectral Data<<<<<
189.047	6.53
189.435	6.53
189.823	6.53
190.211	411.18
190.599	21.42
190.987	30.28
191.375	-32.24
191.763	1423.37
192.151	2372.69
192.538	172.83
192.926	50.03
193.314	58.03
193.702	-318.28
194.089	461.57
194.477	-1502.21
194.864	35.31
195.252	59.81
195.639	95.09
196.027	65.55
196.414	398.63
196.801	106.64
197.189	225.68
197.576	329.39
197.963	-164.22
198.351	-17.16
198.738	29.38
199.125	106.74
199.512	-5.57
199.899	54.55
200.286	28.93
200.673	-34.9
201.06	35.58
201.447	52.83
201.833	39.51
202.22	55.59
202.607	54.12
202.994	23.69
203.38	37.39
203.767	95.74
204.154	13.27
204.54	56.46
204.927	58.84
205.313	19.66
205.699	30.04
206.086	38.53
206.472	58.28
206.858	116.08
207.245	9.71
207.631	19.19
208.017	35.92
208.403	86.52
208.789	58.78
209.175	14.31
209.561	27.86
209.947	72.49
210.333	-4.02
210.719	10.67
211.105	45.7
211.491	-1.76
211.876	11.5
212.262	20.15
212.648	7.19
213.034	31.32
213.419	-16.31
213.805	27.52
214.19	5.61
214.576	15.34
214.961	10.17
215.346	-19.21
215.732	14.66
216.117	19.82
216.502	27.22
216.888	8.06
217.273	29.41
217.658	-6.93
218.043	30.92
218.428	-16.9
218.813	31.92
219.198	4.22
219.583	20.22
219.968	30.7
220.353	-17.64
220.738	30.43
221.122	19.37
221.507	10.03
221.892	-11.9
222.276	-1.83
222.661	8.52
223.046	11.7
223.43	19.38
223.815	16.42
224.199	0.36
224.583	7.74
224.968	0.34
225.352	11.69
225.736	15.25
226.121	3.02
226.505	15.54
226.889	5.81
227.273	2.3
227.657	8.13
228.041	5.47
228.425	6.97
228.809	8.98
229.193	7.96
229.577	3.78
229.961	6.71
230.344	4.06
230.728	5.14
231.112	5.38
231.495	4.04
231.879	4.9
232.263	6.76
232.646	6.07
233.03	6.01
233.413	3.71
233.797	5.24
234.18	2.52
234.563	9.75
234.946	2.03
235.33	7.95
235.713	5.94
236.096	4.57
236.479	5.89
236.862	1.58
237.245	5.92
237.628	4.32
238.011	5.81
238.394	5.18
238.777	5.07
239.16	3.3
239.543	6.55
239.925	7.88
240.308	5.63
240.691	8.58
241.073	6.12
241.456	4.91
241.838	4.42
242.221	3.35
242.603	5.8
242.986	4.11
243.368	5.49
243.75	5.69
244.133	4.24
244.515	4.7
244.897	5.24
245.279	4.61
245.661	4.57
246.043	4.44
246.425	2.3
246.807	5.42
247.189	4.86
247.571	5.03
247.953	5.11
248.335	4.31
248.717	4.42
249.098	4.48
249.48	4.49
249.862	4.19
250.243	4.8
250.625	4.53
251.006	4.73
251.388	4.21
251.769	5.12
252.151	6.6
252.532	4.13
252.913	4.63
253.295	4.49
253.676	5.2
254.057	4.23
254.438	4.27
254.819	4.61
255.2	4.56
255.581	4.68
255.962	4.67
256.343	4.68
256.724	4.16
257.105	4.76
257.486	3.82
257.867	4.37
258.247	5.14
258.628	4.8
259.009	5.3
259.389	4.36
259.77	3.74
260.15	3.75
260.531	4.22
260.911	5.4
261.292	3.92
261.672	4.61
262.052	4.27
262.432	4.79
262.813	4.52
263.193	4.13
263.573	4.51
263.953	3.81
264.333	5.75
264.713	4.53
265.093	4.74
265.473	4.88
265.853	3.26
266.233	4.09
266.612	3.56
266.992	3.19
267.372	5.28
267.752	4.46
268.131	4.29
268.511	4.79
268.89	4.97
269.27	4.11
269.649	4.85
270.029	4.16
270.408	4.99
270.787	4.7
271.167	4.91
271.546	4.59
271.925	3.36
272.304	4.11
272.683	4.79
273.062	4.01
273.441	4.47
273.82	3.97
274.199	4.62
274.578	4.94
274.957	4.33
275.336	5.02
275.715	3.78
276.093	4.14
276.472	4.8
276.851	3.67
277.229	4.36
277.608	3.73
277.986	4.39
278.365	3.87
278.743	4.08
279.122	4
279.5	4.39
279.878	4.99
280.257	4.57
280.635	4.26
281.013	4.48
281.391	5.07
281.769	4.6
282.147	4.17
282.525	5.27
282.903	4.36
283.281	4.84
283.659	4.67
284.037	5.02
284.415	4.28
284.792	4.81
285.17	3.7
285.548	4.59
285.925	4.3
286.303	4.77
286.68	4.42
287.058	4.31
287.435	4
287.813	4.46
288.19	4.26
288.567	4.41
288.945	5.05
289.322	4.46
289.699	4.15
290.076	4.12
290.453	4.21
290.83	4.69
291.207	3.55
291.584	4.43
291.961	4.83
292.338	4.61
292.715	4.69
293.092	4.06
293.469	4.53
293.845	4.94
294.222	4.37
294.599	4.98
294.975	4.63
295.352	5.49
295.728	4.6
296.105	4.7
296.481	5.26
296.858	4.92
297.234	5.02
297.61	5.44
297.986	4.9
298.363	5.15
298.739	4.68
299.115	4.99
299.491	5
299.867	4.79
300.243	5.09
300.619	5.24
300.995	5.1
301.371	5.43
301.746	4.68
302.122	5.54
302.498	5.46
302.874	5.6
303.249	5.68
303.625	5.32
304	5.58
304.376	5.65
304.751	4.88
305.127	5.78
305.502	4.98
305.878	5.37
306.253	5.67
306.628	5.56
307.003	5.89
307.378	6.2
307.754	5.77
308.129	5.46
308.504	6.18
308.879	5.46
309.254	6.71
309.629	6.36
310.003	6.26
310.378	6.39
310.753	6.59
311.128	6.53
311.502	6.56
311.877	6.27
312.252	6.12
312.626	6.2
313.001	6.27
313.375	6.86
313.75	6.7
314.124	6.59
314.498	6.39
314.873	6.67
315.247	6.65
315.621	7.55
315.995	6.8
316.369	6.66
316.743	6.64
317.117	6.95
317.491	7
317.865	7.2
318.239	6.7
318.613	7.26
318.987	8
319.361	6.84
319.734	8.15
320.108	7.52
320.482	7.66
320.855	8.78
321.229	7.95
321.602	7.91
321.976	8.13
322.349	8.14
322.723	7.98
323.096	8.42
323.469	7.68
323.843	7.36
324.216	8.1
324.589	8.75
324.962	7.99
325.335	8.18
325.708	8.11
326.081	8.42
326.454	8.87
326.827	8.01
327.2	8.68
327.573	9.03
327.945	8.65
328.318	8.55
328.691	8.47
329.063	8.72
329.436	8.29
329.809	9.27
330.181	8.6
330.553	8.46
330.926	10.03
331.298	9.23
331.671	8.78
332.043	10.53
332.415	9.49
332.787	9.13
333.159	9.62
333.532	10.12
333.904	10.02
334.276	9.59
334.648	9.44
335.02	9.49
335.391	9.5
335.763	9.68
336.135	9.83
336.507	10.35
336.879	9.3
337.25	9.51
337.622	10.02
337.993	9.62
338.365	10.2
338.736	9.88
339.108	10.45
339.479	10.12
339.851	10.12
340.222	10.05
340.593	10.63
340.964	10.24
341.336	11.05
341.707	10.17
342.078	10.93
342.449	10.48
342.82	10.47
343.191	10.51
343.562	10.41
343.933	10.56
344.303	10.89
344.674	10.68
345.045	10.77
345.416	11.8
345.786	11.14
346.157	11.62
346.527	10.74
346.898	10.67
347.268	11.67
347.639	10.83
348.009	11.11
348.38	11.6
348.75	11.73
349.12	11.68
349.49	11.54
349.861	11.52
350.231	11.42
350.601	11.84
350.971	12.31
351.341	11.84
351.711	11.36
352.081	11.74
352.45	11.96
352.82	12.26
353.19	12.21
353.56	11.93
353.929	12.44
354.299	11.89
354.669	12.21
355.038	12.93
355.408	11.94
355.777	12.47
356.147	12.26
356.516	12.4
356.885	12.22
357.254	12.7
357.624	13.21
357.993	12.6
358.362	12.45
358.731	12.36
359.1	12.7
359.469	12.9
359.838	12.98
360.207	12.6
360.576	12.63
360.945	12.79
361.314	13.41
361.682	13
362.051	12.74
362.42	13.29
362.788	13.14
363.157	13.49
363.525	13.31
363.894	13.38
364.262	13.4
364.631	13.38
364.999	13.43
365.367	13.08
365.735	14.2
366.104	14.15
366.472	13.62
366.84	13.96
367.208	13.65
367.576	13.84
367.944	14.28
368.312	14.15
368.68	13.88
369.048	14.28
369.416	14.21
369.783	13.87
370.151	14.51
370.519	14.95
370.886	14.82
371.254	14.42
371.621	14.9
371.989	14.74
372.356	14.36
372.724	14.89
373.091	14.57
373.458	14.64
373.826	14.62
374.193	14.69
374.56	15.25
374.927	14.91
375.294	15.12
375.661	15.3
376.028	15.13
376.395	15.45
376.762	15.57
377.129	15.26
377.496	14.94
377.863	15.61
378.229	15.21
378.596	15.62
378.963	15.71
379.329	15.65
379.696	15.74
380.062	15.56
380.429	15.35
380.795	15.61
381.161	16.18
381.528	16.18
381.894	16.18
382.26	15.75
382.626	16.27
382.993	16.09
383.359	16.85
383.725	16.07
384.091	16.33
384.457	16.6
384.823	16.55
385.188	16.53
385.554	16.45
385.92	16.97
386.286	16.59
386.651	16.91
387.017	17.19
387.383	16.88
387.748	17.04
388.114	17.24
388.479	16.76
388.845	17.09
389.21	17.38
389.575	17.47
389.94	17.36
390.306	17.2
390.671	17.71
391.036	17.43
391.401	17.25
391.766	17.72
392.131	17.75
392.496	17.82
392.861	17.24
393.226	17.85
393.591	18.01
393.956	17.51
394.32	17.95
394.685	17.53
395.05	17.73
395.414	17.98
395.779	17.82
396.143	18
396.508	18.02
396.872	18.29
397.236	18.14
397.601	17.85
397.965	18.56
398.329	18.62
398.694	18.57
399.058	18.68
399.422	18.52
399.786	18.59
400.15	18.68
400.514	18.76
400.878	18.57
401.242	18.64
401.605	19.18
401.969	18.74
402.333	18.97
402.697	19.01
403.06	19.38
403.424	18.79
403.787	19.11
404.151	19.49
404.514	19.36
404.878	18.83
405.241	19.41
405.604	19.58
405.968	19.32
406.331	19.36
406.694	19.51
407.057	19.38
407.42	19.82
407.783	19.69
408.146	19.58
408.509	19.93
408.872	19.76
409.235	20.02
409.598	20.14
409.961	19.87
410.323	19.98
410.686	19.75
411.049	20.01
411.411	20.13
411.774	20.45
412.136	20.15
412.499	20.09
412.861	20.5
413.223	20.35
413.586	20.57
413.948	20.38
414.31	20.71
414.672	20.24
415.035	20.72
415.397	20.92
415.759	20.57
416.121	20.89
416.483	21.02
416.845	21.04
417.206	20.82
417.568	21.01
417.93	20.8
418.292	21.11
418.653	20.97
419.015	21.11
419.377	21.08
419.738	21.17
420.1	21.19
420.461	21.04
420.822	21.16
421.184	21.16
421.545	21.06
421.906	21.03
422.267	21.29
422.629	21.13
422.99	21.12
423.351	21.3
423.712	21.28
424.073	21.39
424.434	21.47
424.795	21.55
425.155	21.42
425.516	21.55
425.877	21.49
426.238	21.57
426.598	21.64
426.959	21.64
427.32	21.84
427.68	21.74
428.041	22.01
428.401	22.07
428.761	22.04
429.122	22.52
429.482	22.39
429.842	22.54
430.202	22.83
430.563	22.63
430.923	22.72
431.283	22.81
431.643	22.8
432.003	22.64
432.363	22.93
432.722	22.91
433.082	23.17
433.442	23
433.802	23.14
434.161	22.95
434.521	23.29
434.881	23.08
435.24	22.93
435.6	23.07
435.959	23.14
436.319	23.21
436.678	23.32
437.037	23.25
437.396	23.58
437.756	23.46
438.115	23.4
438.474	23.69
438.833	23.36
439.192	23.65
439.551	23.96
439.91	23.87
440.269	23.44
440.628	23.84
440.987	24.06
441.345	23.59
441.704	23.91
442.063	23.91
442.421	23.82
442.78	23.84
443.138	23.82
443.497	23.97
443.855	24.05
444.214	24.03
444.572	24.35
444.93	24.3
445.288	24.65
445.647	24.62
446.005	24.38
446.363	24.53
446.721	24.67
447.079	24.23
447.437	24.43
447.795	24.41
448.153	24.36
448.51	24.42
448.868	24.42
449.226	24.46
449.584	24.55
449.941	24.75
450.299	24.93
450.656	24.94
451.014	25.04
451.371	25.14
451.729	25.24
452.086	25.34
452.443	25.28
452.801	25.63
453.158	25.58
453.515	25.22
453.872	25.53
454.229	25.38
454.586	25.4
454.943	25.59
455.3	25.77
455.657	25.75
456.014	25.85
456.371	25.99
456.727	25.85
457.084	26.03
457.441	25.82
457.797	26.14
458.154	26.32
458.51	26.08
458.867	26.12
459.223	26.51
459.58	26.19
459.936	26.35
460.292	26.29
460.648	26.39
461.005	26.29
461.361	26.2
461.717	26.08
462.073	25.98
462.429	25.96
462.785	26.21
463.141	26.15
463.496	26.58
463.852	26.76
464.208	26.52
464.564	26.99
464.919	26.92
465.275	26.84
465.631	27.34
465.986	27.07
466.342	27.18
466.697	27.15
467.052	27.09
467.408	27.44
467.763	27.3
468.118	27.17
468.473	27.25
468.829	27.15
469.184	27.47
469.539	27.49
469.894	27.27
470.249	27.64
470.603	27.55
470.958	27.58
471.313	27.9
471.668	27.78
472.023	27.61
472.377	27.69
472.732	28.04
473.086	27.71
473.441	27.8
473.795	28.08
474.15	28.21
474.504	28.14
474.859	28.08
475.213	27.98
475.567	28.03
475.921	28.26
476.275	28.27
476.63	28.38
476.984	28.42
477.338	28.56
477.692	28.3
478.045	28.36
478.399	28.5
478.753	28.55
479.107	28.4
479.461	28.59
479.814	28.48
480.168	28.69
480.521	28.68
480.875	28.63
481.228	28.75
481.582	28.91
481.935	28.73
482.289	28.83
482.642	28.89
482.995	28.62
483.348	28.76
483.701	28.73
484.055	28.66
484.408	28.53
484.761	28.37
485.114	28.19
485.466	27.85
485.819	27.79
486.172	27.8
486.525	27.89
486.878	27.94
487.23	28.12
487.583	28.41
487.936	28.59
488.288	28.71
488.641	28.6
488.993	28.54
489.345	28.4
489.698	28.44
490.05	28.42
490.402	28.45
490.754	28.56
491.107	28.79
491.459	28.83
491.811	29.14
492.163	29.38
492.515	29.42
492.866	29.28
493.218	28.95
493.57	28.73
493.922	28.84
494.274	29.01
494.625	29.2
494.977	29.57
495.328	29.71
495.68	29.97
496.031	30.2
496.383	30.32
496.734	30.64
497.086	30.6
497.437	30.37
497.788	30.43
498.139	30.43
498.49	30.41
498.842	30.25
499.193	30.47
499.544	30.41
499.894	30.42
500.245	30.48
500.596	30.49
500.947	30.72
501.298	30.76
501.648	30.76
501.999	31.03
502.35	31.03
502.7	30.84
503.051	31
503.401	31.12
503.752	31.26
504.102	31.19
504.452	31.16
504.803	31.3
505.153	31.4
505.503	31.21
505.853	31.22
506.203	31.37
506.553	31.18
506.903	31.28
507.253	31.37
507.603	31.52
507.953	31.64
508.303	31.81
508.652	31.37
509.002	31.61
509.352	31.62
509.701	31.68
510.051	31.71
510.4	31.43
510.75	31.63
511.099	31.75
511.449	31.54
511.798	31.54
512.147	31.61
512.496	31.71
512.846	31.87
513.195	31.77
513.544	31.73
513.893	32.06
514.242	31.68
514.591	32.03
514.939	31.91
515.288	32.03
515.637	32.32
515.986	32.13
516.334	32.46
516.683	32.27
517.032	32.28
517.38	32.66
517.729	32.37
518.077	32.33
518.426	32.51
518.774	32.52
519.122	32.63
519.47	32.43
519.819	32.29
520.167	32.33
520.515	32.18
520.863	32.15
521.211	32.29
521.559	32.38
521.907	32.6
522.255	32.46
522.602	32.57
522.95	32.79
523.298	32.97
523.645	33.21
523.993	32.92
524.341	33.3
524.688	32.89
525.036	33.16
525.383	33.25
525.73	33.34
526.078	33.28
526.425	33.02
526.772	33.34
527.119	32.93
527.466	32.71
527.814	32.86
528.161	32.84
528.508	32.89
528.854	32.81
529.201	33.09
529.548	32.8
529.895	32.68
530.242	32.45
530.588	32.23
530.935	32.3
531.282	32.31
531.628	32.34
531.975	32.59
532.321	32.76
532.667	33.04
533.014	33.14
533.36	33.04
533.706	33.34
534.052	33.48
534.399	33.33
534.745	33.3
535.091	33.02
535.437	33.06
535.783	33.07
536.129	33.17
536.474	33.36
536.82	33.5
537.166	33.89
537.512	33.98
537.857	33.89
538.203	33.74
538.549	33.83
538.894	33.66
539.239	33.99
539.585	33.98
539.93	34.05
540.276	34.25
540.621	34.25
540.966	34.55
541.311	34.51
541.656	34.28
542.001	34.49
542.346	34.32
542.691	34.06
543.036	33.91
543.381	33.67
543.726	33.79
544.071	33.71
544.415	33.85
544.76	33.98
545.105	34.2
545.449	34.35
545.794	34.25
546.138	34.51
546.483	34.7
546.827	34.87
547.171	35.11
547.516	35.06
547.86	34.88
548.204	34.86
548.548	34.86
548.892	34.78
549.236	34.94
549.58	35.11
549.924	35.23
550.268	35.39
550.612	35.32
550.956	35.7
551.3	35.48
551.643	35.65
551.987	35.5
552.33	35.92
552.674	35.56
553.017	35.64
553.361	35.91
553.704	35.87
554.048	35.84
554.391	35.76
554.734	35.69
555.077	36.05
555.42	35.9
555.764	35.79
556.107	36.13
556.45	36.01
556.793	36.01
557.135	36.24
557.478	36.52
557.821	36.21
558.164	36.37
558.507	36.62
558.849	36.46
559.192	36.55
559.534	36.6
559.877	36.67
560.219	36.75
560.562	36.57
560.904	36.6
561.246	36.6
561.589	36.83
561.931	36.74
562.273	36.87
562.615	36.9
562.957	37.02
563.299	36.52
563.641	36.78
563.983	36.86
564.325	36.74
564.667	36.74
565.008	36.81
565.35	37.19
565.692	36.79
566.033	37.04
566.375	37.2
566.716	37.13
567.058	37.05
567.399	36.8
567.741	36.94
568.082	36.96
568.423	36.79
568.764	36.86
569.105	36.97
569.447	37.05
569.788	37.11
570.129	37.38
570.47	37.2
570.811	37.31
571.151	37.61
571.492	37.4
571.833	37.35
572.174	37.17
572.514	37.18
572.855	37.41
573.195	37.48
573.536	37.17
573.876	37.34
574.217	37.29
574.557	37.2
574.898	37.3
575.238	37.41
575.578	37.56
575.918	37.93
576.258	37.62
576.598	37.84
576.938	37.49
577.278	37.62
577.618	37.69
577.958	37.46
578.298	37.42
578.638	37.84
578.977	37.91
579.317	37.96
579.657	37.88
579.996	38.33
580.336	38.3
580.675	38.13
581.014	38.45
581.354	38.29
581.693	38.55
582.032	38.57
582.372	38.43
582.711	38.66
583.05	38.29
583.389	38.53
583.728	38.52
584.067	38.94
584.406	38.66
584.745	38.47
585.083	38.7
585.422	38.75
585.761	38.97
586.1	39.13
586.438	38.7
586.777	39.04
587.115	39.16
587.454	39
587.792	39.14
588.13	39.16
588.469	38.91
588.807	38.88
589.145	39.04
589.483	39
589.821	39.35
590.159	38.85
590.497	39.31
590.835	39.37
591.173	38.9
591.511	39.15
591.849	39.2
592.187	38.92
592.524	39.51
592.862	39.16
593.2	39.23
593.537	39.19
593.875	39.38
594.212	39.51
594.55	39.7
594.887	39.64
595.224	39.17
595.561	39.4
595.899	39.63
596.236	39.26
596.573	39.65
596.91	38.7
597.247	39.45
597.584	39.68
597.921	39.71
598.258	39.65
598.594	39.36
598.931	39.33
599.268	39.48
599.604	39.25
599.941	39.62
600.277	39.66
600.614	40.11
600.95	39.3
601.287	40
601.623	39.92
601.959	40.06
602.296	40.16
602.632	40.25
602.968	40.17
603.304	40.21
603.64	40.18
603.976	39.85
604.312	40.3
604.648	40.15
604.984	40.15
605.319	40.06
605.655	39.99
605.991	40.31
606.326	40.02
606.662	40.03
606.998	39.88
607.333	40.09
607.668	40.22
608.004	40.11
608.339	40.33
608.674	40.19
609.01	40.55
609.345	40.79
609.68	40.74
610.015	40.21
610.35	40.63
610.685	40.71
611.02	40.55
611.355	40.49
611.689	40.55
612.024	40.66
612.359	40.42
612.694	40.84
613.028	40.54
613.363	40.81
613.697	40.82
614.032	41.06
614.366	40.96
614.7	41.16
615.035	41.23
615.369	41.32
615.703	41.15
616.037	41.31
616.371	41.1
616.705	41.27
617.039	41.26
617.373	41.25
617.707	41.36
618.041	41.19
618.375	41.52
618.709	41.31
619.042	41.06
619.376	41.66
619.71	41.45
620.043	41.49
620.377	41.21
620.71	41.11
621.043	41.17
621.377	41.41
621.71	42.14
622.043	41.59
622.376	41.31
622.709	41.7
623.043	41.65
623.376	41.88
623.709	41.45
624.041	41.71
624.374	41.66
624.707	41.81
625.04	42.12
625.373	41.7
625.705	42.14
626.038	41.48
626.37	41.85
626.703	42.18
627.035	42.33
627.368	42.27
627.7	41.57
628.032	41.94
628.365	42
628.697	41.48
629.029	41.43
629.361	41.75
629.693	42.03
630.025	42.08
630.357	42.29
630.689	42.06
631.021	42.01
631.353	42.43
631.684	41.75
632.016	41.84
632.348	42.33
632.679	42.03
633.011	42.09
633.342	42.73
633.674	42.14
634.005	42.7
634.336	42.21
634.668	42.57
634.999	42.43
635.33	42.59
635.661	42.53
635.992	42.09
636.323	42.6
636.654	42.54
636.985	42.87
637.316	42.06
637.647	42.27
637.977	43.02
638.308	42.61
638.639	41.88
638.969	42.62
639.3	42.56
639.63	42.37
639.961	42.79
640.291	43.13
640.622	42.91
640.952	43.03
641.282	42.92
641.612	43.16
641.943	42.95
642.273	42.98
642.603	42.62
642.933	42.93
643.263	43.18
643.592	43.4
643.922	43.32
644.252	43.19
644.582	43.32
644.911	43.14
645.241	43.56
645.571	43.37
645.9	43.02
646.23	43.54
646.559	43.36
646.888	43.39
647.218	43.79
647.547	43.81
647.876	43.53
648.205	43.1
648.534	43.35
648.863	43.09
649.192	43.48
649.521	43.56
649.85	43.82
650.179	43.62
650.508	43.73
650.837	43.72
651.165	43.17
651.494	43.69
651.822	44.17
652.151	43.41
652.479	43.7
652.808	43.07
653.136	44.13
653.465	43.72
653.793	43.67
654.121	43.81
654.449	44.06
654.777	43.97
655.105	43.91
655.433	43.54
655.761	43.89
656.089	44.53
656.417	44.12
656.745	44.68
657.073	43.84
657.4	44.98
657.728	43.58
658.056	43.6
658.383	44.07
658.711	44.53
659.038	44.67
659.365	44.39
659.693	43.76
660.02	44.4
660.347	44.25
660.674	44.12
661.001	43.94
661.329	43.58
661.656	44.21
661.982	43.89
662.309	44.34
662.636	43.81
662.963	44.01
663.29	44.47
663.616	44.84
663.943	44.32
664.27	44.11
664.596	45.28
664.923	44.68
665.249	44.94
665.576	44.19
665.902	45.16
666.228	45.32
666.554	45.5
666.881	44.9
667.207	44.51
667.533	44.54
667.859	45.24
668.185	44.74
668.511	44.47
668.837	44.68
669.162	44.37
669.488	44.7
669.814	45.36
670.139	45.45
670.465	45.26
670.791	45.1
671.116	44.97
671.442	44.86
671.767	45.14
672.092	45.42
672.418	45.02
672.743	45.55
673.068	45.49
673.393	44.96
673.718	45.49
674.043	45.78
674.368	45.48
674.693	46.24
675.018	45.14
675.343	45.22
675.667	45.34
675.992	44.54
676.317	45.16
676.641	45.49
676.966	44.43
677.29	45.49
677.615	45.82
677.939	45.53
678.264	46.18
678.588	45.04
678.912	45.45
679.236	46.12
679.56	45.23
679.885	46.69
680.209	45.72
680.532	45.93
680.856	46.14
681.18	44.61
681.504	46.03
681.828	46.17
682.152	45.64
682.475	45.4
682.799	46.33
683.122	46.25
683.446	45.07
683.769	45.98
684.093	45.39
684.416	45.88
684.739	45.6
685.062	45.44
685.386	45.56
685.709	46.16
686.032	45.21
686.355	45.79
686.678	45.99
687.001	46.52
687.324	46.14
687.646	45.31
687.969	44.96
688.292	45.67
688.614	46.01
688.937	46.87
689.26	46.05
689.582	46.34
689.904	45.68
690.227	45.88
690.549	46.56
690.871	46.75
691.194	46.2
691.516	45.96
691.838	47.14
692.16	45.72
692.482	46.8
692.804	46.97
693.126	46.68
693.448	46.37
693.769	47.53
694.091	46.46
694.413	46.22
694.735	46.64
695.056	47.29
695.378	46.34
695.699	46.62
696.021	47.18
696.342	46.99
696.663	46.84
696.984	47.12
697.306	46.75
697.627	46.76
697.948	47.73
698.269	46.57
698.59	46.89
698.911	45.97
699.232	46.53
699.553	47.44
699.873	47.34
700.194	47.23
700.515	47.12
700.835	47.08
701.156	47.3
701.477	47.37
701.797	46.67
702.117	47.48
702.438	46.29
702.758	47.47
703.078	46.6
703.398	47.1
703.719	46.52
704.039	46.91
704.359	48.03
704.679	47.38
704.999	46.61
705.319	47
705.638	46.15
705.958	47.67
706.278	47.37
706.597	48.15
706.917	47.4
707.237	46.89
707.556	48.25
707.876	48.15
708.195	47.83
708.514	46.11
708.834	46.05
709.153	48.59
709.472	47.46
709.791	49.22
710.11	47.26
710.429	47.58
710.748	48.61
711.067	47.71
711.386	48.31
711.705	49
712.023	48.48
712.342	48.61
712.661	47.84
712.979	47.41
713.298	46.99
713.616	48.17
713.935	47.34
714.253	47.5
714.572	48.34
714.89	48.72
715.208	49.02
715.526	48.62
715.844	48.67
716.162	47.98
716.48	47.36
716.798	46.94
717.116	46.95
717.434	47.78
717.752	48.1
718.069	48.03
718.387	47.58
718.705	48.75
719.022	47.21
719.34	48.38
719.657	46.9
719.975	48.35
720.292	47.65
720.609	49.28
720.927	48.63
721.244	49.6
721.561	47.39
721.878	49.05
722.195	47.81
722.512	47.81
722.829	48.75
723.146	48.33
723.463	48.48
723.779	48.66
724.096	48.72
724.413	48.96
724.729	48.63
725.046	47.95
725.362	49.4
725.679	47.65
725.995	46.94
726.311	47.71
726.628	47.85
726.944	50.95
727.26	49.26
727.576	49.64
727.892	48.85
728.208	49.26
728.524	49.17
728.84	48.62
729.156	49.12
729.472	48.1
729.787	49.15
730.103	48.05
730.419	49.61
730.734	49.64
731.05	49.09
731.365	48.81
731.681	49.75
731.996	48.93
732.311	49.94
732.626	48.77
732.942	49
733.257	49.67
733.572	49.68
733.887	49.24
734.202	49.49
734.517	49.71
734.832	49.28
735.146	49.09
735.461	49.91
735.776	49.13
736.091	48.71
736.405	48.43
736.72	49.61
737.034	48.88
737.349	49.79
737.663	48.74
737.977	51.52
738.292	49.55
738.606	49.1
738.92	50.16
739.234	50.1
739.548	50.39
739.862	50.42
740.176	47.94
740.49	48.45
740.804	48.93
741.117	50.99
741.431	50.81
741.745	49.54
742.058	50.26
742.372	50.28
742.685	48.37
742.999	50.32
743.312	46.79
743.626	47.54
743.939	49.13
744.252	49.86
744.565	49.26
744.878	51.14
745.191	46.74
745.505	48.52
745.817	50.9
746.13	52.37
746.443	51.36
746.756	52.19
747.069	49.45
747.381	48.57
747.694	50.56
748.007	48.28
748.319	48.61
748.632	50.11
748.944	50.44
749.256	50.49
749.569	49.44
749.881	50.48
750.193	52.04
750.505	49.78
750.817	52.37
751.129	50.19
751.441	51.56
751.753	49.84
752.065	50.61
752.377	52.03
752.689	51.12
753	49.82
753.312	50.73
753.624	48.88
753.935	50.94
754.247	50.3
754.558	51.26
754.869	51.36
755.181	51.45
755.492	52.03
755.803	49.87
756.114	51.35
756.425	49.36
756.736	50.29
757.047	53.39
757.358	50.2
757.669	51.88
757.98	50.22
758.291	51.65
758.601	50.8
758.912	50.97
759.223	49.99
759.533	50.7
759.844	50.64
760.154	50.93
760.464	53.88
760.775	50.33
761.085	51.48
761.395	51.2
761.705	49.27
762.016	52.73
762.326	51.46
762.636	52.42
762.945	50.24
763.255	52.02
763.565	51.58
763.875	51.57
764.185	48.36
764.494	50.69
764.804	52.23
765.113	48.88
765.423	50.37
765.732	51.4
766.042	51.53
766.351	51
766.66	53.22
766.97	51.74
767.279	49.52
767.588	51.25
767.897	52.85
768.206	50.35
768.515	52.55
768.824	52.49
769.133	51.52
769.441	49.79
769.75	51.45
770.059	51.61
770.367	51.75
770.676	52.93
770.984	52.18
771.293	48.8
771.601	52.21
771.91	48
772.218	52.7
772.526	55.08
772.834	52.3
773.142	53.3
773.45	50.67
773.758	51.87
774.066	51.75
774.374	48.54
774.682	51.09
774.99	52.78
775.298	51.95
775.605	51.93
775.913	54.61
776.22	54.88
776.528	53.48
776.835	50.9
777.143	49.82
777.45	48.55
777.757	50.4
778.065	51.84
778.372	52.69
778.679	50.82
778.986	48.04
779.293	49.63
779.6	49.36
779.907	52.84
780.214	53.6
780.52	49.33
780.827	56.36
781.134	52.77
781.44	49.26
781.747	52.27
782.053	51.44
782.36	52.53
782.666	52.73
782.973	52.84
783.279	53.38
783.585	57.02
783.891	48.73
784.197	49.27
784.503	52.28
784.809	51.3
785.115	55.75
785.421	52.11
785.727	53.32
786.033	52.73
786.339	54.84
786.644	52.75
786.95	47.42
787.255	51.39
787.561	49.59
787.866	48.19
788.172	53.78
788.477	52.52
788.782	51.19
789.088	55.61
789.393	50.36
789.698	50.8
790.003	54.9
790.308	50.19
790.613	56.21
790.918	52.34
791.223	53.8
791.527	50.26
791.832	52.98
792.137	51.46
792.441	53.71
792.746	50.57
793.05	50.66
793.355	51.74
793.659	52.97
793.963	53.79
794.268	54.27
794.572	56.29
794.876	55.21
795.18	49.4
795.484	53.23
795.788	52.56
796.092	53.97
796.396	57.04
796.7	52.18
797.004	55.73
797.307	51.47
797.611	50.55
797.915	53.17
798.218	50.12
798.522	47.3
798.825	53.8
799.128	50.79
799.432	50.71
799.735	54.46
800.038	54.64
800.341	49.75
800.644	53.07
800.947	54.8
801.25	55.41
801.553	53.96
801.856	45.18
802.159	50.97
802.462	53.17
802.764	51
803.067	45.96
803.37	49.83
803.672	51.16
803.975	53.45
804.277	51.5
804.579	46.92
804.882	50.62
805.184	55.22
805.486	54.49
805.788	56.98
806.09	49.32
806.392	46.02
806.694	53.98
806.996	52.81
807.298	51.02
807.6	59.56
807.902	45.4
808.203	53.88
808.505	53.27
808.807	50.41
809.108	57.39
809.409	52.6
809.711	52.31
810.012	53.65
810.313	51.47
810.615	56.53
810.916	47.28
811.217	53.91
811.518	55.43
811.819	49.27
812.12	49.2
812.421	51.3
812.722	57.72
813.023	57.37
813.323	50.76
813.624	57.24
813.925	59.83
814.225	60.92
814.526	56.35
814.826	52.7
815.126	48.94
815.427	54.82
815.727	54.77
816.027	52.92
816.327	62.64
816.627	53.73
816.927	53.54
817.227	54.21
817.527	61.01
817.827	57.91
818.127	56.19
818.427	50.22
818.727	53.16
819.026	54.34
819.326	56.88
819.625	55.21
819.925	58.96
820.224	56.59
820.524	58.2
820.823	58.09
821.122	56.83
821.421	49.12
821.72	50.06
822.019	49.8
822.318	55.74
822.617	57.22
822.916	53.1
823.215	54.46
823.514	56.06
823.813	52.52
824.111	54.13
824.41	54.82
824.709	55.46
825.007	55.34
825.306	54.86
825.604	54.54
825.902	54.4
826.201	54.77
826.499	55.13
826.797	54.02
827.095	54.15
827.393	55.97
827.691	55.17
827.989	51.67
828.287	54.65
828.585	52.83
828.882	53.94
829.18	54.77
829.478	53.54
829.775	56.52
830.073	53.88
830.37	54.77
830.668	54.23
830.965	57.91
831.263	53.34
831.56	55.38
831.857	54.93
832.154	59.45
832.451	51.62
832.748	51.89
833.045	55.61
833.342	53.87
833.639	57.32
833.936	56.68
834.232	54.5
834.529	52.8
834.826	48.63
835.122	55.37
835.419	47.51
835.715	59.95
836.012	59.73
836.308	51.33
836.604	57.05
836.901	53.93
837.197	53.21
837.493	59.63
837.789	55.65
838.085	54.12
838.381	54.45
838.677	55.57
838.972	51.78
839.268	51.73
839.564	52.47
839.86	56.87
840.155	49.38
840.451	51.69
840.746	56.6
841.042	54.3
841.337	54.75
841.632	53.06
841.928	61.61
842.223	49.55
842.518	54.8
842.813	68.33
843.108	62.35
843.403	66.56
843.698	52.05
843.993	55.17
844.287	54.93
844.582	53.16
844.877	44.08
845.171	53.04
845.466	44.31
845.761	43.29
846.055	55.67
846.349	48.37
846.644	53.91
846.938	49.42
847.232	63.9
847.526	63.23
847.82	49.84
848.114	39.28
848.408	67.34
848.702	40.74
848.996	32.05
849.29	79.37
849.584	52.83
849.877	49.77
850.171	58.09
850.465	66.08
850.758	49.9
851.052	71.28
851.345	74.85
851.638	37.54
851.932	47.47
852.225	37.52
852.518	51.13
852.811	54.79
853.104	51.9
853.397	60.37
853.69	48.55
853.983	40.77
854.276	49.03
854.569	62.91
854.861	63.73
855.154	50.13
855.447	47.87
855.739	39.57
856.032	57.83
856.324	62.49
856.616	57.59
856.909	59.13
857.201	36.97
857.493	63.03
857.785	19.08
858.077	59.04
858.369	65.1
858.661	50.59
858.953	56.69
859.245	53.03
859.537	86.12
859.829	64.41
860.12	49.69
860.412	39.89
860.703	44.03
860.995	54.64
861.286	40.61
861.578	52.99
861.869	52.09
862.16	57.7
862.452	57.32
862.743	42.91
863.034	79.88
863.325	41.99
863.616	66.09
863.907	50.16
864.198	58.52
864.488	65.9
864.779	102.08
865.07	52.18
865.36	65.64
865.651	57.45
865.941	50.61
866.232	52.29
866.522	18.72
866.813	84.67
867.103	70.19
867.393	36.01
867.683	65.16
867.973	48.13
868.263	43.47
868.553	58.69
868.843	43.9
869.133	18.13
869.423	59.77
869.713	68.61
870.002	68.85
870.292	56.34
870.582	78.31
870.871	30.74
871.161	62.83
871.45	103.81
871.739	95.58
872.029	58.49
872.318	70.94
872.607	55.14
872.896	65.14
873.185	64.34
873.474	41.83
873.763	101.26
874.052	92.43
874.341	54.42
874.63	54.22
874.918	34.69
875.207	55.87
875.496	68.21
875.784	23.64
876.073	24.17
876.361	-12.64
876.649	88.75
876.938	59.22
877.226	90.36
877.514	37.41
877.802	54.99
878.09	77.44
878.378	88.07
878.666	101.68
878.954	22.29
879.242	69.68
879.53	56.06
879.817	58.16
880.105	63.72
880.392	65.57
880.68	32.5
880.967	67.76
881.255	79.97
881.542	58.88
881.83	33.01
882.117	53.5
882.404	27.27
882.691	71.38
882.978	74.48
883.265	64.11
883.552	50.84
883.839	63.84
884.126	61.73
884.413	59.06
884.699	65.2
884.986	48.84
885.273	56.67
885.559	56.67
885.846	56.67
