Data from 1597-1_chest_Reflection__1__31.txt Node

Date: Fri Nov 11 16:24:37 CST 2022
User: ToomeyLab
Spectrometer: FLMS14357
Trigger mode: 0
Integration Time (sec): 1.000000E-2
Scans to average: 100
Electric dark correction enabled: true
Nonlinearity correction enabled: false
Boxcar width: 0
XAxis mode: Wavelengths
Number of Pixels in Spectrum: 2048
>>>>>Begin Spectral Data<<<<<
189.047	76.71
189.435	76.71
189.823	76.71
190.211	-94.26
190.599	93.5
190.987	802.56
191.375	88.27
191.763	-207.16
192.151	1608.7
192.538	-2548.94
192.926	60.49
193.314	-91.96
193.702	266.21
194.089	-26.53
194.477	-76.39
194.864	-121.45
195.252	115.86
195.639	27.27
196.027	-30.3
196.414	111.81
196.801	332.49
197.189	-6.93
197.576	-14.47
197.963	68.55
198.351	6.93
198.738	-60.09
199.125	4.8
199.512	38.57
199.899	-0.43
200.286	11.64
200.673	2.33
201.06	-40.68
201.447	21.04
201.833	21.35
202.22	24.62
202.607	65.63
202.994	38.91
203.38	12.4
203.767	17.9
204.154	-16.74
204.54	46.57
204.927	35.05
205.313	24.64
205.699	19.8
206.086	29.57
206.472	43.03
206.858	10.34
207.245	12.99
207.631	17.38
208.017	-7.24
208.403	-0.02
208.789	-40.6
209.175	-1.68
209.561	16.99
209.947	24.67
210.333	32.1
210.719	33.66
211.105	-21.47
211.491	-55.35
211.876	31.34
212.262	-41.08
212.648	-11.58
213.034	10.41
213.419	16.67
213.805	11.85
214.19	-16.92
214.576	17.42
214.961	-40.26
215.346	-57.01
215.732	-41.16
216.117	20.76
216.502	0.3
216.888	-1.17
217.273	38.48
217.658	-10.28
218.043	-7.42
218.428	-13.66
218.813	32.72
219.198	-19.74
219.583	-4.62
219.968	18.92
220.353	-20.53
220.738	-21.1
221.122	2.18
221.507	22.29
221.892	-1.01
222.276	16.97
222.661	-2.63
223.046	11.58
223.43	3.73
223.815	5.62
224.199	11.27
224.583	-9.67
224.968	12.17
225.352	2.73
225.736	9.22
226.121	1
226.505	5.12
226.889	8.45
227.273	4.36
227.657	-2.39
228.041	1.18
228.425	4.07
228.809	4.73
229.193	1.65
229.577	3.17
229.961	2.15
230.344	1.81
230.728	2.81
231.112	3.15
231.495	3.24
231.879	2.47
232.263	1.7
232.646	1.37
233.03	1.99
233.413	1
233.797	2.47
234.18	3.03
234.563	0.28
234.946	0.24
235.33	1.74
235.713	1.6
236.096	1.61
236.479	2.4
236.862	3.77
237.245	3.05
237.628	2.25
238.011	1.81
238.394	3.39
238.777	1.92
239.16	2.08
239.543	2.42
239.925	3.27
240.308	1.14
240.691	1.44
241.073	2.18
241.456	0.78
241.838	3.23
242.221	2.34
242.603	1.69
242.986	2.6
243.368	1.57
243.75	2.63
244.133	2.26
244.515	2.05
244.897	2.32
245.279	2.38
245.661	1.65
246.043	2.95
246.425	2.89
246.807	1.46
247.189	1.34
247.571	0.81
247.953	2.16
248.335	2.8
248.717	2.24
249.098	2.28
249.48	2.54
249.862	2.25
250.243	2.06
250.625	2.33
251.006	2.29
251.388	1.89
251.769	3.22
252.151	2.01
252.532	3.09
252.913	2.05
253.295	1.76
253.676	2.09
254.057	2.58
254.438	2.35
254.819	1.59
255.2	3.32
255.581	2.07
255.962	2.04
256.343	2.28
256.724	2.19
257.105	2.68
257.486	2.05
257.867	2.19
258.247	2.34
258.628	3.11
259.009	1.84
259.389	2.46
259.77	2.96
260.15	2.64
260.531	1.88
260.911	2.32
261.292	2.42
261.672	2.2
262.052	2.17
262.432	2.86
262.813	2.16
263.193	2.07
263.573	2.61
263.953	2.75
264.333	2.46
264.713	1.59
265.093	2.73
265.473	3.54
265.853	2.04
266.233	1.93
266.612	1.82
266.992	1.96
267.372	2.23
267.752	2.33
268.131	1.88
268.511	2.44
268.89	2.92
269.27	2.17
269.649	1.63
270.029	2
270.408	2.28
270.787	2.91
271.167	1.76
271.546	2.81
271.925	2.27
272.304	2.72
272.683	2.23
273.062	2.53
273.441	2.13
273.82	2.12
274.199	2.36
274.578	2.43
274.957	1.64
275.336	2.54
275.715	2.05
276.093	2.37
276.472	1.99
276.851	1.97
277.229	1.98
277.608	2.2
277.986	2.25
278.365	2.67
278.743	2.37
279.122	1.92
279.5	1.91
279.878	2.2
280.257	2.86
280.635	1.9
281.013	2.17
281.391	1.74
281.769	2.76
282.147	1.88
282.525	2.15
282.903	2.77
283.281	2.35
283.659	1.97
284.037	2.32
284.415	2.36
284.792	2.59
285.17	2
285.548	2.5
285.925	2.37
286.303	2.5
286.68	2.29
287.058	2.13
287.435	2.48
287.813	2.19
288.19	2.31
288.567	2
288.945	1.73
289.322	1.83
289.699	2.18
290.076	2.19
290.453	2.01
290.83	2.27
291.207	2.19
291.584	2.18
291.961	1.84
292.338	2.81
292.715	2.28
293.092	1.95
293.469	2.36
293.845	2.18
294.222	2.81
294.599	2.5
294.975	2.16
295.352	2.59
295.728	2.08
296.105	1.95
296.481	1.98
296.858	2.14
297.234	2.38
297.61	1.96
297.986	1.4
298.363	2.24
298.739	2.17
299.115	2.2
299.491	2.43
299.867	2.29
300.243	2.28
300.619	1.92
300.995	1.92
301.371	2.08
301.746	2.41
302.122	2.32
302.498	1.4
302.874	2.3
303.249	1.98
303.625	2
304	1.92
304.376	2.93
304.751	2.37
305.127	2.71
305.502	2.74
305.878	2.65
306.253	2.48
306.628	2.55
307.003	2.23
307.378	2.56
307.754	2.8
308.129	2.77
308.504	2.21
308.879	2.1
309.254	2.04
309.629	2.33
310.003	2.33
310.378	1.78
310.753	1.96
311.128	2.56
311.502	2.02
311.877	2.49
312.252	2.05
312.626	1.96
313.001	2.36
313.375	2.33
313.75	2.58
314.124	2.28
314.498	3.11
314.873	2.47
315.247	2.54
315.621	1.89
315.995	2.29
316.369	2.54
316.743	2.56
317.117	2.32
317.491	2.58
317.865	2.14
318.239	2.5
318.613	2.18
318.987	2.6
319.361	2.28
319.734	2.48
320.108	2.79
320.482	1.74
320.855	2.08
321.229	2.67
321.602	2.51
321.976	2.05
322.349	2.61
322.723	2.64
323.096	2.59
323.469	2.73
323.843	2.99
324.216	1.69
324.589	2.45
324.962	2.41
325.335	3.06
325.708	2.25
326.081	2.26
326.454	2.28
326.827	2.47
327.2	2.31
327.573	2.62
327.945	2.42
328.318	2.58
328.691	2.73
329.063	2.62
329.436	2.51
329.809	2.32
330.181	2.92
330.553	2.72
330.926	2.24
331.298	2.67
331.671	2.78
332.043	2.96
332.415	2.53
332.787	2.65
333.159	2.91
333.532	2.23
333.904	2.39
334.276	2.75
334.648	2.25
335.02	2.86
335.391	2.42
335.763	2.42
336.135	2.39
336.507	2.83
336.879	2.53
337.25	1.85
337.622	2.64
337.993	2.7
338.365	2.86
338.736	2.43
339.108	2.46
339.479	2.74
339.851	2.29
340.222	2.2
340.593	1.71
340.964	2.05
341.336	2.41
341.707	2.55
342.078	2.61
342.449	2.67
342.82	2.55
343.191	2.99
343.562	3.07
343.933	1.92
344.303	2.8
344.674	2.65
345.045	2.35
345.416	2.55
345.786	2.42
346.157	2.63
346.527	2.58
346.898	1.95
347.268	2.71
347.639	2.46
348.009	2.52
348.38	2.5
348.75	2.95
349.12	2.57
349.49	2.68
349.861	2.39
350.231	2.58
350.601	3.14
350.971	2.35
351.341	2.47
351.711	2.56
352.081	1.82
352.45	2.68
352.82	2.75
353.19	2.21
353.56	2.39
353.929	2.82
354.299	2.69
354.669	2.58
355.038	2.66
355.408	2.23
355.777	2.74
356.147	2.58
356.516	2.42
356.885	2.6
357.254	2.53
357.624	2.72
357.993	2.93
358.362	2.56
358.731	2.63
359.1	2.28
359.469	2.65
359.838	2.78
360.207	2.72
360.576	2.62
360.945	2.66
361.314	2.63
361.682	2.74
362.051	2.47
362.42	2.5
362.788	2.39
363.157	2.75
363.525	2.78
363.894	2.43
364.262	2.36
364.631	2.59
364.999	2.67
365.367	2.5
365.735	2.6
366.104	2.25
366.472	2.75
366.84	2.54
367.208	2.57
367.576	2.61
367.944	2.77
368.312	2.7
368.68	2.61
369.048	2.49
369.416	2.23
369.783	2.29
370.151	2.54
370.519	2.76
370.886	2.49
371.254	2.46
371.621	3.03
371.989	2.51
372.356	2.46
372.724	2.61
373.091	2.58
373.458	2.66
373.826	2.8
374.193	2.54
374.56	2.56
374.927	2.73
375.294	2.63
375.661	3.13
376.028	2.65
376.395	3.03
376.762	2.39
377.129	2.62
377.496	2.6
377.863	2.65
378.229	3
378.596	2.6
378.963	2.43
379.329	2.58
379.696	2.76
380.062	2.61
380.429	2.35
380.795	2.8
381.161	2.98
381.528	2.77
381.894	2.87
382.26	2.61
382.626	2.57
382.993	2.85
383.359	2.7
383.725	2.88
384.091	2.76
384.457	2.61
384.823	2.6
385.188	2.69
385.554	2.59
385.92	2.57
386.286	2.66
386.651	2.81
387.017	2.68
387.383	2.8
387.748	2.61
388.114	2.48
388.479	2.73
388.845	2.45
389.21	2.67
389.575	2.6
389.94	2.69
390.306	2.65
390.671	2.49
391.036	2.67
391.401	2.52
391.766	2.9
392.131	2.41
392.496	2.77
392.861	2.56
393.226	2.7
393.591	2.56
393.956	2.82
394.32	2.85
394.685	2.77
395.05	3.01
395.414	2.84
395.779	2.84
396.143	2.89
396.508	2.64
396.872	2.72
397.236	2.67
397.601	2.82
397.965	2.71
398.329	2.74
398.694	2.53
399.058	2.68
399.422	2.93
399.786	2.95
400.15	2.57
400.514	2.65
400.878	2.79
401.242	2.93
401.605	2.81
401.969	2.8
402.333	2.76
402.697	2.54
403.06	2.85
403.424	2.81
403.787	2.95
404.151	2.61
404.514	2.75
404.878	3.01
405.241	2.6
405.604	2.77
405.968	3.13
406.331	2.6
406.694	2.73
407.057	2.73
407.42	2.66
407.783	2.57
408.146	3.02
408.509	2.75
408.872	3.09
409.235	2.93
409.598	2.69
409.961	2.9
410.323	2.69
410.686	2.98
411.049	2.97
411.411	2.79
411.774	2.84
412.136	2.81
412.499	3
412.861	2.85
413.223	2.95
413.586	2.78
413.948	2.75
414.31	2.94
414.672	3.04
415.035	2.68
415.397	2.81
415.759	2.83
416.121	2.92
416.483	2.94
416.845	2.78
417.206	2.9
417.568	2.86
417.93	2.86
418.292	2.73
418.653	2.89
419.015	2.71
419.377	2.91
419.738	2.93
420.1	2.8
420.461	2.81
420.822	2.72
421.184	2.77
421.545	2.79
421.906	2.8
422.267	2.88
422.629	2.75
422.99	2.76
423.351	2.76
423.712	2.87
424.073	2.79
424.434	2.8
424.795	2.96
425.155	2.82
425.516	2.84
425.877	2.92
426.238	2.82
426.598	2.82
426.959	2.81
427.32	2.88
427.68	2.83
428.041	2.97
428.401	2.85
428.761	3.03
429.122	3.02
429.482	2.97
429.842	3.04
430.202	2.88
430.563	2.81
430.923	2.94
431.283	3
431.643	3.01
432.003	3.14
432.363	2.91
432.722	2.9
433.082	3.01
433.442	2.96
433.802	2.91
434.161	2.89
434.521	3
434.881	2.77
435.24	2.89
435.6	2.74
435.959	2.91
436.319	2.89
436.678	2.73
437.037	2.99
437.396	2.82
437.756	2.89
438.115	2.82
438.474	2.89
438.833	3.06
439.192	2.87
439.551	2.83
439.91	3
440.269	3.02
440.628	2.94
440.987	3.02
441.345	3.06
441.704	2.97
442.063	3.09
442.421	2.83
442.78	3.05
443.138	2.94
443.497	2.97
443.855	2.94
444.214	2.88
444.572	2.99
444.93	3.06
445.288	3.07
445.647	2.89
446.005	2.94
446.363	3.05
446.721	2.94
447.079	2.94
447.437	2.98
447.795	2.97
448.153	2.97
448.51	3
448.868	2.96
449.226	3.03
449.584	2.97
449.941	3.02
450.299	2.98
450.656	3.07
451.014	3.08
451.371	2.95
451.729	3.01
452.086	3.01
452.443	3.16
452.801	3.1
453.158	2.88
453.515	2.87
453.872	3.07
454.229	2.94
454.586	2.98
454.943	3.14
455.3	3
455.657	3.06
456.014	3.09
456.371	2.93
456.727	3.05
457.084	3.06
457.441	3.09
457.797	3.03
458.154	2.99
458.51	2.91
458.867	3.12
459.223	3.13
459.58	3.07
459.936	3.21
460.292	3.05
460.648	3.09
461.005	3.22
461.361	3.11
461.717	3
462.073	3.14
462.429	3.12
462.785	3.03
463.141	3.15
463.496	3.22
463.852	3.32
464.208	3.17
464.564	3.23
464.919	3.21
465.275	3.08
465.631	3.18
465.986	3.21
466.342	3.22
466.697	3.24
467.052	3.3
467.408	3.16
467.763	3.22
468.118	3.15
468.473	3.13
468.829	3.24
469.184	3.26
469.539	3.28
469.894	3.24
470.249	3.23
470.603	3.29
470.958	3.31
471.313	3.18
471.668	3.16
472.023	3.52
472.377	3.4
472.732	3.21
473.086	3.19
473.441	3.28
473.795	3.26
474.15	3.25
474.504	3.37
474.859	3.29
475.213	3.22
475.567	3.47
475.921	3.26
476.275	3.37
476.63	3.34
476.984	3.45
477.338	3.24
477.692	3.27
478.045	3.21
478.399	3.23
478.753	3.3
479.107	3.22
479.461	3.25
479.814	3.33
480.168	3.31
480.521	3.3
480.875	3.31
481.228	3.3
481.582	3.31
481.935	3.38
482.289	3.41
482.642	3.39
482.995	3.4
483.348	3.26
483.701	3.36
484.055	3.28
484.408	3.29
484.761	3.28
485.114	3.14
485.466	3.12
485.819	3.16
486.172	3.13
486.525	3.2
486.878	3.22
487.23	3.22
487.583	3.3
487.936	3.32
488.288	3.31
488.641	3.25
488.993	3.28
489.345	3.23
489.698	3.27
490.05	3.2
490.402	3.24
490.754	3.33
491.107	3.39
491.459	3.41
491.811	3.39
492.163	3.43
492.515	3.4
492.866	3.34
493.218	3.3
493.57	3.27
493.922	3.35
494.274	3.37
494.625	3.32
494.977	3.39
495.328	3.53
495.68	3.5
496.031	3.5
496.383	3.57
496.734	3.51
497.086	3.51
497.437	3.55
497.788	3.66
498.139	3.48
498.49	3.51
498.842	3.53
499.193	3.5
499.544	3.6
499.894	3.58
500.245	3.59
500.596	3.61
500.947	3.56
501.298	3.65
501.648	3.75
501.999	3.56
502.35	3.6
502.7	3.63
503.051	3.56
503.401	3.6
503.752	3.49
504.102	3.62
504.452	3.58
504.803	3.58
505.153	3.65
505.503	3.78
505.853	3.73
506.203	3.78
506.553	3.71
506.903	3.7
507.253	3.9
507.603	3.71
507.953	3.81
508.303	3.75
508.652	3.6
509.002	3.68
509.352	3.75
509.701	3.69
510.051	3.59
510.4	3.73
510.75	3.73
511.099	3.68
511.449	3.62
511.798	3.73
512.147	3.73
512.496	3.84
512.846	3.79
513.195	3.67
513.544	3.78
513.893	3.82
514.242	3.88
514.591	3.81
514.939	3.85
515.288	3.78
515.637	3.74
515.986	3.86
516.334	3.86
516.683	3.91
517.032	3.84
517.38	3.8
517.729	3.84
518.077	3.82
518.426	3.99
518.774	3.82
519.122	3.84
519.47	3.8
519.819	3.84
520.167	3.75
520.515	3.86
520.863	3.9
521.211	3.95
521.559	3.94
521.907	3.96
522.255	4
522.602	3.91
522.95	4.01
523.298	3.98
523.645	3.97
523.993	3.99
524.341	4.13
524.688	4.01
525.036	4.08
525.383	3.96
525.73	3.96
526.078	4.09
526.425	3.92
526.772	4.01
527.119	3.99
527.466	3.92
527.814	3.94
528.161	3.91
528.508	3.98
528.854	3.93
529.201	4.03
529.548	3.98
529.895	3.88
530.242	3.88
530.588	3.9
530.935	3.87
531.282	3.96
531.628	3.92
531.975	4.01
532.321	3.99
532.667	4.08
533.014	4.04
533.36	4.1
533.706	4.16
534.052	4.1
534.399	4.13
534.745	4.08
535.091	4.04
535.437	4.1
535.783	4.1
536.129	4.1
536.474	4.14
536.82	4.23
537.166	4.23
537.512	4.25
537.857	4.27
538.203	4.19
538.549	4.18
538.894	4.26
539.239	4.25
539.585	4.27
539.93	4.31
540.276	4.32
540.621	4.31
540.966	4.41
541.311	4.32
541.656	4.3
542.001	4.36
542.346	4.34
542.691	4.25
543.036	4.29
543.381	4.19
543.726	4.26
544.071	4.26
544.415	4.35
544.76	4.29
545.105	4.41
545.449	4.42
545.794	4.43
546.138	4.54
546.483	4.49
546.827	4.45
547.171	4.49
547.516	4.46
547.86	4.48
548.204	4.5
548.548	4.57
548.892	4.55
549.236	4.61
549.58	4.62
549.924	4.67
550.268	4.83
550.612	4.71
550.956	4.72
551.3	4.93
551.643	4.86
551.987	4.81
552.33	4.72
552.674	4.67
553.017	4.82
553.361	4.81
553.704	4.78
554.048	4.81
554.391	4.85
554.734	4.89
555.077	4.87
555.42	4.91
555.764	4.82
556.107	4.78
556.45	4.78
556.793	4.97
557.135	4.84
557.478	4.95
557.821	4.97
558.164	5.08
558.507	5.11
558.849	4.92
559.192	4.91
559.534	5.02
559.877	5.23
560.219	5.11
560.562	5.03
560.904	4.89
561.246	5
561.589	5.12
561.931	5.16
562.273	5.18
562.615	5.06
562.957	5.26
563.299	5.23
563.641	5.17
563.983	5.16
564.325	5.07
564.667	5.07
565.008	5.06
565.35	5.39
565.692	5.12
566.033	5.26
566.375	5.32
566.716	5.35
567.058	5.29
567.399	5.36
567.741	5.33
568.082	5.49
568.423	5.42
568.764	5.34
569.105	5.34
569.447	5.32
569.788	5.43
570.129	5.38
570.47	5.39
570.811	5.65
571.151	5.69
571.492	5.6
571.833	5.7
572.174	5.67
572.514	5.49
572.855	5.61
573.195	5.76
573.536	5.59
573.876	5.65
574.217	5.47
574.557	5.47
574.898	5.59
575.238	5.7
575.578	5.62
575.918	5.64
576.258	5.73
576.598	5.78
576.938	5.77
577.278	5.86
577.618	5.86
577.958	5.75
578.298	5.67
578.638	5.93
578.977	5.86
579.317	5.86
579.657	5.93
579.996	5.96
580.336	5.92
580.675	5.96
581.014	5.96
581.354	5.96
581.693	5.89
582.032	6.21
582.372	6.09
582.711	6.07
583.05	6.02
583.389	6.22
583.728	6.11
584.067	6.12
584.406	6.17
584.745	6.35
585.083	6.2
585.422	6.36
585.761	6.43
586.1	6.17
586.438	6.29
586.777	6.39
587.115	6.45
587.454	6.59
587.792	6.72
588.13	6.61
588.469	6.41
588.807	6.33
589.145	6.63
589.483	6.38
589.821	6.38
590.159	6.45
590.497	6.48
590.835	6.39
591.173	6.52
591.511	6.61
591.849	6.39
592.187	6.63
592.524	6.5
592.862	6.73
593.2	6.76
593.537	6.54
593.875	6.71
594.212	6.85
594.55	6.79
594.887	6.74
595.224	6.66
595.561	6.79
595.899	6.8
596.236	6.86
596.573	6.94
596.91	6.74
597.247	6.6
597.584	6.81
597.921	6.69
598.258	6.91
598.594	6.81
598.931	7.08
599.268	6.79
599.604	6.82
599.941	6.97
600.277	6.74
600.614	7.11
600.95	7.13
601.287	7.2
601.623	7.13
601.959	6.98
602.296	7.2
602.632	7.17
602.968	7.12
603.304	7.42
603.64	7.28
603.976	7.25
604.312	7.05
604.648	7.27
604.984	7.43
605.319	7.29
605.655	7.39
605.991	7.4
606.326	7.25
606.662	7.39
606.998	7.36
607.333	7.43
607.668	7.39
608.004	7.43
608.339	7.57
608.674	7.4
609.01	7.38
609.345	7.33
609.68	7.79
610.015	7.66
610.35	7.63
610.685	7.55
611.02	7.77
611.355	7.56
611.689	7.73
612.024	7.67
612.359	7.45
612.694	7.59
613.028	7.6
613.363	7.87
613.697	8.1
614.032	8.06
614.366	7.71
614.7	8.02
615.035	7.86
615.369	8
615.703	7.89
616.037	8.14
616.371	7.81
616.705	8.2
617.039	7.87
617.373	8.01
617.707	8.16
618.041	8.2
618.375	8.33
618.709	8.3
619.042	8.22
619.376	8.23
619.71	8.18
620.043	8.33
620.377	8.07
620.71	8.18
621.043	8.27
621.377	8.17
621.71	8.43
622.043	8.44
622.376	8.45
622.709	8.35
623.043	8
623.376	8.47
623.709	8.56
624.041	8.61
624.374	8.65
624.707	8.53
625.04	8.37
625.373	8.58
625.705	8.71
626.038	8.45
626.37	8.69
626.703	8.69
627.035	8.64
627.368	8.7
627.7	8.72
628.032	8.52
628.365	8.92
628.697	8.93
629.029	8.78
629.361	8.64
629.693	8.62
630.025	8.7
630.357	8.8
630.689	8.95
631.021	8.91
631.353	9.04
631.684	9.06
632.016	8.91
632.348	9.18
632.679	9.12
633.011	8.83
633.342	8.67
633.674	8.97
634.005	9.1
634.336	8.87
634.668	9.01
634.999	8.76
635.33	9.45
635.661	9.39
635.992	9.39
636.323	9.32
636.654	9.52
636.985	9.52
637.316	9.51
637.647	9.28
637.977	9.52
638.308	9.41
638.639	9.58
638.969	9.67
639.3	9.18
639.63	9.31
639.961	9.27
640.291	9.49
640.622	9.74
640.952	9.78
641.282	9.76
641.612	10.14
641.943	9.79
642.273	10.1
642.603	9.57
642.933	9.76
643.263	9.76
643.592	9.62
643.922	9.8
644.252	10.05
644.582	9.77
644.911	9.84
645.241	10.16
645.571	9.98
645.9	9.71
646.23	9.96
646.559	9.61
646.888	10.18
647.218	9.89
647.547	10.42
647.876	9.83
648.205	10.15
648.534	9.91
648.863	10.34
649.192	10.29
649.521	10.31
649.85	9.92
650.179	10.09
650.508	10.23
650.837	10.61
651.165	10.57
651.494	10.83
651.822	9.97
652.151	10.62
652.479	10.71
652.808	10.61
653.136	10.46
653.465	10.68
653.793	10.79
654.121	10.59
654.449	10.57
654.777	10.54
655.105	10.86
655.433	9.89
655.761	10.4
656.089	10.68
656.417	10.67
656.745	10.52
657.073	10.71
657.4	10.89
657.728	11.05
658.056	10.58
658.383	10.85
658.711	11.23
659.038	10.92
659.365	10.64
659.693	11.18
660.02	11.17
660.347	11.22
660.674	10.95
661.001	11.31
661.329	10.72
661.656	10.98
661.982	11.1
662.309	11.22
662.636	11.17
662.963	10.79
663.29	11.38
663.616	11.52
663.943	11.32
664.27	11.31
664.596	11.46
664.923	10.85
665.249	11.4
665.576	11.46
665.902	11.41
666.228	11.24
666.554	11.39
666.881	11.11
667.207	11.25
667.533	11.99
667.859	10.91
668.185	11.46
668.511	11.67
668.837	11.61
669.162	11.44
669.488	11.95
669.814	11.33
670.139	12.12
670.465	11.7
670.791	11.5
671.116	12.07
671.442	11.73
671.767	11.87
672.092	11.76
672.418	11.84
672.743	11.41
673.068	11.11
673.393	11.5
673.718	11.79
674.043	11.26
674.368	11.96
674.693	12.13
675.018	12.47
675.343	12.26
675.667	12.2
675.992	12.4
676.317	12.25
676.641	11.91
676.966	11.51
677.29	11.99
677.615	12.29
677.939	12.48
678.264	12.07
678.588	13.11
678.912	12.33
679.236	11.88
679.56	12.99
679.885	12.67
680.209	12.52
680.532	12.5
680.856	12.53
681.18	12.41
681.504	12.08
681.828	12.38
682.152	12.9
682.475	12.4
682.799	12.71
683.122	13.05
683.446	12.66
683.769	12.91
684.093	12.58
684.416	12.69
684.739	12.61
685.062	12.81
685.386	12.93
685.709	13.54
686.032	12.81
686.355	12.33
686.678	13.1
687.001	13.46
687.324	13.43
687.646	12.88
687.969	12.99
688.292	13.44
688.614	12.77
688.937	12.95
689.26	13.58
689.582	13.47
689.904	12.78
690.227	13.29
690.549	13.39
690.871	13.06
691.194	12.96
691.516	13.23
691.838	13.29
692.16	13.59
692.482	13.37
692.804	13.31
693.126	13.32
693.448	13.24
693.769	14.01
694.091	13.34
694.413	12.89
694.735	13.51
695.056	13.02
695.378	12.75
695.699	13.04
696.021	14.47
696.342	13.92
696.663	14.78
696.984	13.45
697.306	14.02
697.627	13.93
697.948	13.64
698.269	14.65
698.59	13.45
698.911	13.65
699.232	13.69
699.553	14.02
699.873	14.16
700.194	13.4
700.515	13.67
700.835	14.29
701.156	14.41
701.477	14.58
701.797	14.18
702.117	14.33
702.438	14.04
702.758	14.62
703.078	14.29
703.398	13.86
703.719	13.88
704.039	14.38
704.359	14.63
704.679	13.73
704.999	14.18
705.319	14.76
705.638	13.99
705.958	12.81
706.278	14.59
706.597	15.31
706.917	14.53
707.237	15.05
707.556	14.56
707.876	15.09
708.195	15.05
708.514	15.1
708.834	14.63
709.153	15.12
709.472	13.62
709.791	14.65
710.11	14.85
710.429	14.57
710.748	14.79
711.067	15.05
711.386	15.36
711.705	14.46
712.023	15.29
712.342	14.92
712.661	14.78
712.979	15.55
713.298	15.02
713.616	15.01
713.935	15.15
714.253	14.98
714.572	14.64
714.89	14.86
715.208	15.7
715.526	14.95
715.844	15.04
716.162	15.2
716.48	14.43
716.798	15.15
717.116	15.13
717.434	15.16
717.752	15.72
718.069	15.4
718.387	16.09
718.705	14.82
719.022	15.62
719.34	16.5
719.657	14.96
719.975	16.16
720.292	14.88
720.609	14.3
720.927	16.45
721.244	15.89
721.561	17.03
721.878	16.56
722.195	16.37
722.512	15.91
722.829	16.43
723.146	15.18
723.463	15.81
723.779	17.05
724.096	14.35
724.413	15.92
724.729	15.37
725.046	15.8
725.362	15.9
725.679	16.28
725.995	16.73
726.311	16.24
726.628	16.08
726.944	15.27
727.26	17.23
727.576	15.57
727.892	13.88
728.208	16.31
728.524	15.86
728.84	15.54
729.156	16.34
729.472	14.71
729.787	17.02
730.103	16.36
730.419	16.3
730.734	16.49
731.05	15.9
731.365	15.51
731.681	16.73
731.996	15.08
732.311	16.18
732.626	17.53
732.942	17.1
733.257	15.96
733.572	18.07
733.887	16.6
734.202	16.89
734.517	16.4
734.832	16.91
735.146	16.33
735.461	15.4
735.776	16.55
736.091	17.15
736.405	16.84
736.72	16.21
737.034	16.42
737.349	17.26
737.663	16.6
737.977	17.79
738.292	16.41
738.606	17.21
738.92	17.18
739.234	17.77
739.548	17.05
739.862	16.24
740.176	16.69
740.49	15.9
740.804	15.95
741.117	17.23
741.431	16.88
741.745	18.41
742.058	18.69
742.372	17.95
742.685	17.46
742.999	17.86
743.312	18.53
743.626	16.5
743.939	16.43
744.252	14.23
744.565	17.58
744.878	18.81
745.191	17.68
745.505	17.66
745.817	17.38
746.13	17.73
746.443	18.57
746.756	17.65
747.069	17.15
747.381	19.39
747.694	18.52
748.007	17.1
748.319	17.48
748.632	16.36
748.944	18.77
749.256	17.54
749.569	19.68
749.881	19.6
750.193	18.29
750.505	19.16
750.817	16.72
751.129	18.08
751.441	17.2
751.753	18.62
752.065	17.75
752.377	18.64
752.689	17.1
753	19.15
753.312	18.53
753.624	18.26
753.935	18.57
754.247	18.65
754.558	17.36
754.869	17.21
755.181	18.58
755.492	17.83
755.803	18.04
756.114	19.21
756.425	19.25
756.736	18.68
757.047	17.1
757.358	17.99
757.669	19.7
757.98	17.98
758.291	18.3
758.601	19.65
758.912	19.11
759.223	19.71
759.533	18.13
759.844	20.46
760.154	17.96
760.464	18.8
760.775	18.61
761.085	19.06
761.395	18.66
761.705	19.33
762.016	17.57
762.326	19.49
762.636	19.87
762.945	18.5
763.255	19.85
763.565	18.97
763.875	18.69
764.185	18.88
764.494	18.19
764.804	19.12
765.113	18.87
765.423	19.26
765.732	19.31
766.042	18.66
766.351	19.77
766.66	19.36
766.97	19.08
767.279	19.85
767.588	19.24
767.897	19.07
768.206	19.44
768.515	19.47
768.824	19.14
769.133	18.11
769.441	18.56
769.75	18.82
770.059	19.49
770.367	18.68
770.676	19.3
770.984	20.48
771.293	18.2
771.601	18.5
771.91	19.66
772.218	20.38
772.526	19.4
772.834	17.08
773.142	16.49
773.45	18.4
773.758	18.68
774.066	17.12
774.374	19.43
774.682	20.49
774.99	18.29
775.298	20.61
775.605	18.37
775.913	19.28
776.22	22.65
776.528	20.78
776.835	20.97
777.143	17.57
777.45	18.66
777.757	19.81
778.065	19.72
778.372	20.29
778.679	18.01
778.986	19.39
779.293	18.06
779.6	19.9
779.907	18.96
780.214	17.99
780.52	20.68
780.827	22.38
781.134	17.78
781.44	18.74
781.747	22.89
782.053	18.46
782.36	19.32
782.666	21.36
782.973	18.89
783.279	18.02
783.585	18.54
783.891	18.89
784.197	20.73
784.503	17.42
784.809	20.06
785.115	21.42
785.421	20.31
785.727	18.91
786.033	19.6
786.339	17.74
786.644	23.2
786.95	19.6
787.255	19.32
787.561	22.49
787.866	21.54
788.172	20.48
788.477	17.59
788.782	20.54
789.088	22.26
789.393	22.16
789.698	25.03
790.003	24.27
790.308	21.83
790.613	20.97
790.918	18.74
791.223	19.45
791.527	19.59
791.832	23.08
792.137	23.73
792.441	24.11
792.746	19.97
793.05	17.53
793.355	20.77
793.659	19.68
793.963	20.39
794.268	20.71
794.572	24.63
794.876	19.25
795.18	24.68
795.484	23.62
795.788	22.75
796.092	20.87
796.396	20.77
796.7	21.16
797.004	20.7
797.307	17.37
797.611	19.01
797.915	21.07
798.218	23.42
798.522	19.85
798.825	18.32
799.128	25.58
799.432	23.16
799.735	23.09
800.038	21.14
800.341	20.04
800.644	20.19
800.947	23.84
801.25	20.74
801.553	19.05
801.856	20.14
802.159	23.75
802.462	22.46
802.764	21.67
803.067	25.64
803.37	18.01
803.672	21.99
803.975	30.76
804.277	19.14
804.579	22.61
804.882	23.01
805.184	21.17
805.486	17.84
805.788	23.29
806.09	23.64
806.392	17.17
806.694	19.79
806.996	22.71
807.298	22.46
807.6	22.2
807.902	21.81
808.203	23.22
808.505	16.38
808.807	21.99
809.108	18.58
809.409	19.79
809.711	22.87
810.012	21.62
810.313	24.54
810.615	25.67
810.916	24.82
811.217	20.68
811.518	17.54
811.819	20.76
812.12	27.6
812.421	25.42
812.722	15.57
813.023	18.01
813.323	18.36
813.624	17.22
813.925	17.31
814.225	26.93
814.526	20.85
814.826	28.49
815.126	24.92
815.427	25.87
815.727	21.53
816.027	22.1
816.327	27.37
816.627	19.5
816.927	22.36
817.227	20.04
817.527	18.99
817.827	15.94
818.127	18.95
818.427	19.61
818.727	22.72
819.026	14.89
819.326	20.82
819.625	22.21
819.925	22.81
820.224	26.26
820.524	23.86
820.823	25.62
821.122	24.73
821.421	24.68
821.72	25.8
822.019	22.5
822.318	22.67
822.617	21.68
822.916	24.33
823.215	20.92
823.514	22.85
823.813	23.85
824.111	24.55
824.41	22.82
824.709	24.18
825.007	23.51
825.306	23.6
825.604	23.5
825.902	23.86
826.201	23.11
826.499	23.39
826.797	24.44
827.095	23.28
827.393	24.12
827.691	23.77
827.989	23.98
828.287	25.21
828.585	22.94
828.882	22.14
829.18	23.77
829.478	22.11
829.775	24.05
830.073	24.35
830.37	23.76
830.668	23.14
830.965	24.6
831.263	24.55
831.56	23.22
831.857	21.66
832.154	26.46
832.451	22.07
832.748	25.97
833.045	20.79
833.342	23.72
833.639	25.34
833.936	26.09
834.232	25.42
834.529	17.97
834.826	20.87
835.122	22.38
835.419	23.11
835.715	21.57
836.012	23.95
836.308	22.85
836.604	21.29
836.901	24.03
837.197	24.11
837.493	22.63
837.789	24.26
838.085	23.72
838.381	27.34
838.677	25.35
838.972	22.18
839.268	24.05
839.564	24.86
839.86	25.68
840.155	19.22
840.451	23.36
840.746	20.32
841.042	21.05
841.337	19.16
841.632	23.66
841.928	23.63
842.223	18.54
842.518	26.18
842.813	14.51
843.108	18.88
843.403	28.67
843.698	16.86
843.993	20.78
844.287	23.58
844.582	34.42
844.877	20.37
845.171	33.89
845.466	26.78
845.761	13.87
846.055	18.51
846.349	15.49
846.644	37.38
846.938	8.94
847.232	21.08
847.526	25.62
847.82	20.56
848.114	27.05
848.408	13.64
848.702	3.61
848.996	26.09
849.29	20.73
849.584	15.24
849.877	25.52
850.171	17.64
850.465	7.58
850.758	3.28
851.052	14.13
851.345	19.19
851.638	36.48
851.932	34.98
852.225	27.6
852.518	33.66
852.811	33.36
853.104	23.04
853.397	25
853.69	12.49
853.983	15.97
854.276	26.09
854.569	24.71
854.861	25.66
855.154	30.06
855.447	10.84
855.739	13.14
856.032	28.19
856.324	6.76
856.616	34.24
856.909	9.88
857.201	17.61
857.493	30.32
857.785	16.02
858.077	20.08
858.369	37.76
858.661	13.11
858.953	28.02
859.245	17.33
859.537	32.63
859.829	16.74
860.12	13.96
860.412	25.4
860.703	20.09
860.995	40.8
861.286	-10.96
861.578	5.85
861.869	9.15
862.16	25.02
862.452	21.72
862.743	25.48
863.034	20.61
863.325	37.79
863.616	23.71
863.907	38.38
864.198	10.81
864.488	12.06
864.779	19.23
865.07	24.98
865.36	34.07
865.651	17.87
865.941	45.82
866.232	24.49
866.522	-2.14
866.813	2.74
867.103	18.38
867.393	19.4
867.683	2.16
867.973	5.92
868.263	22.01
868.553	23.89
868.843	12.2
869.133	-13.28
869.423	32.64
869.713	14.47
870.002	43.8
870.292	19.94
870.582	12.32
870.871	0.06
871.161	30.43
871.45	25.96
871.739	2.3
872.029	26.19
872.318	28.29
872.607	5.85
872.896	-13.47
873.185	12.85
873.474	25.69
873.763	38.48
874.052	24.14
874.341	19.8
874.63	16.57
874.918	2.28
875.207	26.22
875.496	9.27
875.784	27.41
876.073	17.11
876.361	9.89
876.649	15.64
876.938	23.23
877.226	35.96
877.514	39.24
877.802	8.55
878.09	33.42
878.378	1.54
878.666	-6.58
878.954	37.06
879.242	28.59
879.53	6.35
879.817	1.56
880.105	29.28
880.392	41.99
880.68	12.74
880.967	-23.55
881.255	32.27
881.542	31.35
881.83	4.17
882.117	27.53
882.404	25.87
882.691	34.4
882.978	22.51
883.265	25.68
883.552	28.3
883.839	25.91
884.126	32.12
884.413	24.13
884.699	22.6
884.986	31.96
885.273	27.18
885.559	27.18
885.846	27.18
