Data from 1597-1_forehead_Reflection__2__42.txt Node

Date: Fri Nov 11 16:27:55 CST 2022
User: ToomeyLab
Spectrometer: FLMS14357
Trigger mode: 0
Integration Time (sec): 1.000000E-2
Scans to average: 100
Electric dark correction enabled: true
Nonlinearity correction enabled: false
Boxcar width: 0
XAxis mode: Wavelengths
Number of Pixels in Spectrum: 2048
>>>>>Begin Spectral Data<<<<<
189.047	37.45
189.435	37.45
189.823	37.45
190.211	-4.28
190.599	76.98
190.987	442.71
191.375	63.45
191.763	120.58
192.151	1841.61
192.538	-1661.7
192.926	-84.51
193.314	-55.63
193.702	146.26
194.089	20.14
194.477	118.72
194.864	-58.38
195.252	59.87
195.639	73.45
196.027	114.47
196.414	95.32
196.801	489.86
197.189	107.55
197.576	-96.17
197.963	11.93
198.351	20.17
198.738	-1.61
199.125	0.85
199.512	54.9
199.899	8.38
200.286	46.76
200.673	42.28
201.06	-10.44
201.447	31.74
201.833	53.82
202.22	24.43
202.607	52.27
202.994	27.31
203.38	28.01
203.767	-2.75
204.154	-48.19
204.54	41.59
204.927	28.8
205.313	8.52
205.699	4.33
206.086	33.89
206.472	49.45
206.858	1.13
207.245	29.81
207.631	49.4
208.017	34.72
208.403	50.88
208.789	-25.1
209.175	44.63
209.561	18.06
209.947	14.25
210.333	21.79
210.719	11.46
211.105	2.94
211.491	-29.08
211.876	32.04
212.262	-28.33
212.648	11.45
213.034	27.21
213.419	10.52
213.805	2.11
214.19	-20.37
214.576	33.88
214.961	23.27
215.346	-75.96
215.732	-26.96
216.117	24.92
216.502	27.42
216.888	11.93
217.273	10.14
217.658	18.61
218.043	-5.58
218.428	-26.87
218.813	36.01
219.198	-6.71
219.583	22.17
219.968	10.48
220.353	-15.48
220.738	-23.9
221.122	-25.88
221.507	30.42
221.892	7.6
222.276	20.31
222.661	13.11
223.046	19.23
223.43	-1.16
223.815	7.04
224.199	13.84
224.583	5.51
224.968	14.61
225.352	6.8
225.736	-0.46
226.121	7.49
226.505	9.79
226.889	14.6
227.273	4.04
227.657	-5.35
228.041	5.45
228.425	6.24
228.809	6.23
229.193	0.35
229.577	4.28
229.961	2.19
230.344	2.42
230.728	1.99
231.112	2.57
231.495	2.74
231.879	1.58
232.263	-0.55
232.646	2.23
233.03	2.04
233.413	2.48
233.797	2.13
234.18	1.98
234.563	2.71
234.946	0.5
235.33	1.6
235.713	1.98
236.096	0.16
236.479	1.77
236.862	3.78
237.245	1.57
237.628	1.76
238.011	2.76
238.394	3.62
238.777	1.53
239.16	3.32
239.543	2.96
239.925	3.27
240.308	2.73
240.691	1.07
241.073	1.72
241.456	0.87
241.838	1.87
242.221	2.24
242.603	1.37
242.986	2.04
243.368	1.51
243.75	1.88
244.133	1.69
244.515	2.23
244.897	1.53
245.279	1.43
245.661	1.53
246.043	2.31
246.425	2.3
246.807	1.66
247.189	1.64
247.571	1.11
247.953	1.59
248.335	1.96
248.717	1.69
249.098	1.9
249.48	1.99
249.862	1.57
250.243	1.85
250.625	1.61
251.006	2.56
251.388	2.17
251.769	2.04
252.151	2.66
252.532	3.11
252.913	1.63
253.295	1.93
253.676	1.67
254.057	1.97
254.438	2.28
254.819	2.15
255.2	3.01
255.581	1.64
255.962	0.93
256.343	2.37
256.724	2.56
257.105	3.2
257.486	3.17
257.867	1.53
258.247	2.84
258.628	2.02
259.009	2.65
259.389	2.54
259.77	2.19
260.15	2.62
260.531	1.78
260.911	1.9
261.292	1.85
261.672	1.98
262.052	1.77
262.432	2.31
262.813	1.99
263.193	1.51
263.573	2.55
263.953	2.03
264.333	2.23
264.713	1.76
265.093	2.8
265.473	3.27
265.853	1.58
266.233	2.06
266.612	2.56
266.992	1.89
267.372	1.83
267.752	2.57
268.131	2.1
268.511	2.07
268.89	2.55
269.27	1.81
269.649	1.93
270.029	1.13
270.408	1.38
270.787	2.44
271.167	1.52
271.546	2.71
271.925	2.04
272.304	1.73
272.683	2.35
273.062	2.32
273.441	2.14
273.82	1.7
274.199	2.16
274.578	2.03
274.957	1.82
275.336	1.89
275.715	2.22
276.093	2.53
276.472	2.09
276.851	2.53
277.229	2.26
277.608	2.03
277.986	1.81
278.365	2.75
278.743	2.01
279.122	1.75
279.5	1.86
279.878	1.84
280.257	2.39
280.635	2.15
281.013	2.25
281.391	2.31
281.769	2.55
282.147	1.77
282.525	1.95
282.903	2.1
283.281	1.73
283.659	1.78
284.037	1.5
284.415	1.88
284.792	2.11
285.17	2.36
285.548	2.03
285.925	2.02
286.303	2.14
286.68	2.05
287.058	2
287.435	1.93
287.813	1.95
288.19	2.06
288.567	2.03
288.945	1.78
289.322	2.02
289.699	2.35
290.076	1.82
290.453	2.23
290.83	2.34
291.207	1.96
291.584	1.75
291.961	1.88
292.338	2.06
292.715	2.14
293.092	1.81
293.469	2.56
293.845	2.68
294.222	2.69
294.599	2.9
294.975	2.32
295.352	2.39
295.728	2.27
296.105	2.3
296.481	1.99
296.858	2.28
297.234	2.41
297.61	2.07
297.986	1.77
298.363	2.12
298.739	2.32
299.115	2.11
299.491	2.51
299.867	2.37
300.243	2.11
300.619	2.45
300.995	2.34
301.371	2.18
301.746	2.51
302.122	2.67
302.498	2.73
302.874	2.55
303.249	2.44
303.625	2.53
304	2.42
304.376	2.51
304.751	3.38
305.127	2.99
305.502	2.98
305.878	3.02
306.253	3.2
306.628	2.96
307.003	2.75
307.378	3.18
307.754	3.13
308.129	3.4
308.504	2.54
308.879	2.45
309.254	2.43
309.629	3.01
310.003	3.12
310.378	2.73
310.753	3.02
311.128	3.18
311.502	2.7
311.877	3.6
312.252	2.89
312.626	3.07
313.001	3.27
313.375	3.27
313.75	3.4
314.124	3.28
314.498	3.43
314.873	3.38
315.247	3.84
315.621	3.25
315.995	3.38
316.369	3.85
316.743	3.55
317.117	3.77
317.491	3.97
317.865	3.51
318.239	3.95
318.613	3.74
318.987	3.93
319.361	4.11
319.734	3.73
320.108	4.12
320.482	3.86
320.855	4.09
321.229	4.05
321.602	3.81
321.976	3.75
322.349	4.63
322.723	4.42
323.096	4.47
323.469	4.59
323.843	4.84
324.216	4.41
324.589	4.59
324.962	4.22
325.335	4.89
325.708	4.27
326.081	4.33
326.454	4.53
326.827	4.54
327.2	4.27
327.573	5.06
327.945	4.6
328.318	4.64
328.691	5.02
329.063	4.97
329.436	4.96
329.809	4.64
330.181	5.02
330.553	4.75
330.926	4.18
331.298	4.97
331.671	4.94
332.043	5.32
332.415	5.34
332.787	5.25
333.159	5.45
333.532	4.35
333.904	4.49
334.276	5.22
334.648	4.95
335.02	5.28
335.391	5.39
335.763	5.32
336.135	5.3
336.507	5.28
336.879	5.32
337.25	4.85
337.622	5.81
337.993	5.76
338.365	5.35
338.736	5.87
339.108	5.37
339.479	5.85
339.851	5.23
340.222	5.21
340.593	5.26
340.964	5.44
341.336	5.21
341.707	5.53
342.078	5.45
342.449	6.49
342.82	5.63
343.191	5.86
343.562	5.99
343.933	5.64
344.303	6.21
344.674	5.91
345.045	6.02
345.416	5.83
345.786	5.48
346.157	5.8
346.527	6.05
346.898	6.34
347.268	6.07
347.639	5.91
348.009	6.2
348.38	6.12
348.75	6.57
349.12	6.23
349.49	6.18
349.861	6.04
350.231	6.14
350.601	6.57
350.971	6.43
351.341	6.19
351.711	6.43
352.081	5.89
352.45	6.72
352.82	6.51
353.19	6.04
353.56	6.57
353.929	6.72
354.299	7.03
354.669	6.99
355.038	6.45
355.408	6.28
355.777	6.83
356.147	6.85
356.516	6.91
356.885	6.9
357.254	6.8
357.624	6.88
357.993	6.68
358.362	7.1
358.731	6.76
359.1	6.62
359.469	6.77
359.838	6.95
360.207	7.39
360.576	7.38
360.945	7.33
361.314	7.42
361.682	7.23
362.051	7.07
362.42	7.01
362.788	6.77
363.157	7.26
363.525	7.39
363.894	7.24
364.262	7.27
364.631	7.15
364.999	7.41
365.367	7.44
365.735	7.53
366.104	7.2
366.472	7.6
366.84	7.45
367.208	7.44
367.576	7.33
367.944	7.9
368.312	7.92
368.68	7.8
369.048	7.54
369.416	7.58
369.783	7.25
370.151	7.83
370.519	8.03
370.886	7.99
371.254	7.8
371.621	8.14
371.989	7.7
372.356	7.86
372.724	8.14
373.091	8.04
373.458	8.06
373.826	8.37
374.193	8.15
374.56	8.09
374.927	7.74
375.294	8.19
375.661	8.6
376.028	8.28
376.395	8.68
376.762	8.42
377.129	8.52
377.496	8.26
377.863	8.12
378.229	8.44
378.596	8.43
378.963	8.35
379.329	8.56
379.696	8.47
380.062	8.52
380.429	8.63
380.795	8.36
381.161	8.62
381.528	8.82
381.894	9.03
382.26	8.51
382.626	8.87
382.993	8.76
383.359	8.74
383.725	8.88
384.091	8.76
384.457	8.99
384.823	8.63
385.188	9.01
385.554	9.09
385.92	8.88
386.286	8.82
386.651	8.85
387.017	8.96
387.383	9.14
387.748	9.06
388.114	9.26
388.479	8.96
388.845	9.18
389.21	9.32
389.575	9.13
389.94	9.57
390.306	9.29
390.671	9.48
391.036	9.54
391.401	9.34
391.766	9.42
392.131	9.18
392.496	9.44
392.861	9.32
393.226	9.46
393.591	9.46
393.956	9.59
394.32	9.69
394.685	9.78
395.05	9.69
395.414	9.76
395.779	9.49
396.143	9.86
396.508	9.75
396.872	9.84
397.236	9.79
397.601	9.89
397.965	9.99
398.329	9.83
398.694	10.18
399.058	9.99
399.422	10.1
399.786	10.1
400.15	10.06
400.514	9.95
400.878	10.22
401.242	10.39
401.605	10.13
401.969	10.42
402.333	10.36
402.697	10.3
403.06	10.43
403.424	10.2
403.787	10.05
404.151	10.48
404.514	10.63
404.878	10.49
405.241	10.24
405.604	10.3
405.968	10.61
406.331	10.34
406.694	10.41
407.057	10.51
407.42	10.68
407.783	10.64
408.146	10.69
408.509	10.74
408.872	10.88
409.235	10.98
409.598	10.83
409.961	10.92
410.323	10.95
410.686	11.04
411.049	11.04
411.411	10.9
411.774	10.85
412.136	10.76
412.499	11
412.861	10.92
413.223	10.9
413.586	11.06
413.948	11.04
414.31	11.27
414.672	11.47
415.035	11.33
415.397	11.43
415.759	11.48
416.121	11.28
416.483	11.58
416.845	11.5
417.206	11.41
417.568	11.38
417.93	11.29
418.292	11.17
418.653	11.3
419.015	11.34
419.377	11.37
419.738	11.42
420.1	11.35
420.461	11.22
420.822	11.36
421.184	11.21
421.545	11.36
421.906	11.26
422.267	11.39
422.629	11.48
422.99	11.28
423.351	11.44
423.712	11.37
424.073	11.46
424.434	11.58
424.795	11.75
425.155	11.65
425.516	11.58
425.877	11.59
426.238	11.59
426.598	11.51
426.959	11.73
427.32	11.81
427.68	11.82
428.041	12.03
428.401	11.84
428.761	12.06
429.122	12.25
429.482	12.21
429.842	12.21
430.202	12.25
430.563	12.3
430.923	12.36
431.283	12.48
431.643	12.43
432.003	12.54
432.363	12.46
432.722	12.56
433.082	12.56
433.442	12.52
433.802	12.61
434.161	12.52
434.521	12.66
434.881	12.4
435.24	12.51
435.6	12.51
435.959	12.58
436.319	12.49
436.678	12.59
437.037	12.82
437.396	12.85
437.756	12.76
438.115	12.76
438.474	13.01
438.833	12.75
439.192	12.91
439.551	12.79
439.91	12.95
440.269	12.99
440.628	13
440.987	12.9
441.345	13.03
441.704	12.85
442.063	12.96
442.421	12.93
442.78	13.09
443.138	12.87
443.497	13.01
443.855	13.11
444.214	13.12
444.572	13.44
444.93	13.41
445.288	13.58
445.647	13.2
446.005	13.38
446.363	13.35
446.721	13.31
447.079	13.27
447.437	13.27
447.795	13.24
448.153	13.22
448.51	13.3
448.868	13.3
449.226	13.38
449.584	13.5
449.941	13.59
450.299	13.72
450.656	13.89
451.014	13.83
451.371	13.78
451.729	13.99
452.086	13.86
452.443	14.03
452.801	14.08
453.158	13.95
453.515	14.04
453.872	14
454.229	14.07
454.586	14.18
454.943	14.15
455.3	14.05
455.657	14.23
456.014	14.17
456.371	14.21
456.727	14.39
457.084	14.24
457.441	14.47
457.797	14.51
458.154	14.44
458.51	14.55
458.867	14.63
459.223	14.4
459.58	14.57
459.936	14.53
460.292	14.51
460.648	14.54
461.005	14.48
461.361	14.33
461.717	14.27
462.073	14.31
462.429	14.5
462.785	14.57
463.141	14.64
463.496	14.67
463.852	14.74
464.208	14.84
464.564	15.18
464.919	15.18
465.275	15.15
465.631	15.18
465.986	15.06
466.342	15.37
466.697	15.23
467.052	15.1
467.408	15.22
467.763	15.22
468.118	15.22
468.473	15.32
468.829	15.35
469.184	15.33
469.539	15.51
469.894	15.22
470.249	15.43
470.603	15.37
470.958	15.73
471.313	15.61
471.668	15.71
472.023	15.77
472.377	15.87
472.732	15.89
473.086	15.84
473.441	15.65
473.795	15.81
474.15	15.92
474.504	15.92
474.859	15.67
475.213	15.99
475.567	15.92
475.921	15.98
476.275	16.13
476.63	16.05
476.984	16.01
477.338	16.16
477.692	16.14
478.045	16.09
478.399	16.01
478.753	16.11
479.107	16.01
479.461	16.2
479.814	16.14
480.168	16.08
480.521	16.12
480.875	16.2
481.228	16.27
481.582	16.24
481.935	16.34
482.289	16.44
482.642	16.24
482.995	16.23
483.348	16.2
483.701	16.21
484.055	16.16
484.408	16.07
484.761	15.74
485.114	15.64
485.466	15.43
485.819	15.47
486.172	15.54
486.525	15.71
486.878	15.83
487.23	15.95
487.583	16.14
487.936	16.25
488.288	16.2
488.641	16.12
488.993	15.92
489.345	15.89
489.698	15.96
490.05	15.96
490.402	16.1
490.754	16.35
491.107	16.42
491.459	16.59
491.811	16.6
492.163	16.79
492.515	16.75
492.866	16.56
493.218	16.35
493.57	16.27
493.922	16.38
494.274	16.61
494.625	16.71
494.977	16.96
495.328	17.1
495.68	17.21
496.031	17.25
496.383	17.58
496.734	17.51
497.086	17.73
497.437	17.53
497.788	17.64
498.139	17.42
498.49	17.34
498.842	17.46
499.193	17.43
499.544	17.53
499.894	17.66
500.245	17.65
500.596	17.77
500.947	17.79
501.298	17.83
501.648	18
501.999	17.97
502.35	17.98
502.7	18.21
503.051	18.22
503.401	17.99
503.752	18.12
504.102	18.14
504.452	18.18
504.803	18.36
505.153	18.42
505.503	18.35
505.853	18.54
506.203	18.55
506.553	18.48
506.903	18.36
507.253	18.36
507.603	18.55
507.953	18.51
508.303	18.49
508.652	18.56
509.002	18.45
509.352	18.48
509.701	18.58
510.051	18.5
510.4	18.55
510.75	18.32
511.099	18.45
511.449	18.51
511.798	18.46
512.147	18.59
512.496	18.7
512.846	18.63
513.195	18.54
513.544	18.83
513.893	18.82
514.242	18.71
514.591	18.74
514.939	18.83
515.288	18.96
515.637	18.96
515.986	19.16
516.334	19.18
516.683	19.2
517.032	19.09
517.38	19.33
517.729	19.28
518.077	19.15
518.426	19.32
518.774	19.11
519.122	19.02
519.47	19.04
519.819	18.97
520.167	18.82
520.515	18.98
520.863	18.97
521.211	19.01
521.559	19.11
521.907	19.27
522.255	19.39
522.602	19.49
522.95	19.61
523.298	19.5
523.645	19.63
523.993	19.82
524.341	19.77
524.688	19.85
525.036	19.78
525.383	19.75
525.73	19.8
526.078	19.9
526.425	19.74
526.772	19.66
527.119	19.51
527.466	19.31
527.814	19.45
528.161	19.45
528.508	19.5
528.854	19.64
529.201	19.66
529.548	19.42
529.895	19.2
530.242	19.12
530.588	19.04
530.935	19.18
531.282	19.27
531.628	19.34
531.975	19.48
532.321	19.66
532.667	19.83
533.014	20.02
533.36	19.99
533.706	20.01
534.052	20.05
534.399	20.06
534.745	19.79
535.091	19.57
535.437	19.7
535.783	19.79
536.129	19.95
536.474	20.11
536.82	20.36
537.166	20.48
537.512	20.46
537.857	20.47
538.203	20.38
538.549	20.15
538.894	20.25
539.239	20.51
539.585	20.56
539.93	20.76
540.276	20.83
540.621	20.93
540.966	20.91
541.311	20.98
541.656	21
542.001	20.93
542.346	20.72
542.691	20.44
543.036	20.26
543.381	20.23
543.726	20.28
544.071	20.38
544.415	20.58
544.76	20.62
545.105	20.76
545.449	20.86
545.794	20.95
546.138	21.12
546.483	21.32
546.827	21.35
547.171	21.4
547.516	21.3
547.86	21.27
548.204	21.31
548.548	21.28
548.892	21.38
549.236	21.39
549.58	21.61
549.924	21.73
550.268	21.87
550.612	21.91
550.956	21.86
551.3	22.14
551.643	22.19
551.987	22.2
552.33	22.26
552.674	22.09
553.017	22.34
553.361	22.23
553.704	22.4
554.048	22.34
554.391	22.11
554.734	22.07
555.077	22.17
555.42	22.45
555.764	22.55
556.107	22.39
556.45	22.68
556.793	22.59
557.135	22.46
557.478	22.61
557.821	22.65
558.164	22.66
558.507	22.8
558.849	22.87
559.192	22.81
559.534	22.85
559.877	22.96
560.219	23.09
560.562	23.08
560.904	22.94
561.246	23.03
561.589	23.07
561.931	23.13
562.273	23.06
562.615	22.93
562.957	22.94
563.299	23.08
563.641	23.04
563.983	23.19
564.325	23.1
564.667	23.32
565.008	23.15
565.35	23.4
565.692	23.18
566.033	23.48
566.375	23.3
566.716	23.53
567.058	23.48
567.399	23.46
567.741	23.27
568.082	23.3
568.423	23.3
568.764	23.39
569.105	23.45
569.447	23.42
569.788	23.43
570.129	23.62
570.47	23.58
570.811	23.89
571.151	23.66
571.492	23.83
571.833	23.78
572.174	23.78
572.514	24.04
572.855	23.75
573.195	23.86
573.536	23.88
573.876	23.62
574.217	23.47
574.557	23.69
574.898	23.65
575.238	23.91
575.578	23.95
575.918	23.77
576.258	24.06
576.598	24.25
576.938	23.98
577.278	24.04
577.618	24.14
577.958	24.23
578.298	24.21
578.638	24.34
578.977	24.44
579.317	24.32
579.657	24.36
579.996	24.63
580.336	24.52
580.675	24.71
581.014	24.47
581.354	24.53
581.693	24.44
582.032	24.78
582.372	24.85
582.711	24.62
583.05	24.6
583.389	24.95
583.728	25.04
584.067	24.97
584.406	24.91
584.745	25.01
585.083	24.92
585.422	25.19
585.761	25.33
586.1	25.07
586.438	25.12
586.777	25.24
587.115	25.54
587.454	25.46
587.792	25.45
588.13	25.36
588.469	25.42
588.807	25.58
589.145	25.37
589.483	25.28
589.821	25.17
590.159	25.67
590.497	25.72
590.835	25.49
591.173	25.68
591.511	25.56
591.849	25.31
592.187	25.63
592.524	25.47
592.862	25.71
593.2	25.77
593.537	25.53
593.875	25.91
594.212	25.73
594.55	25.75
594.887	25.8
595.224	25.79
595.561	25.72
595.899	25.46
596.236	25.96
596.573	25.9
596.91	25.56
597.247	26
597.584	25.71
597.921	25.66
598.258	25.63
598.594	25.87
598.931	25.95
599.268	25.83
599.604	25.82
599.941	25.86
600.277	26.01
600.614	26.21
600.95	26.24
601.287	26.35
601.623	26.46
601.959	26.46
602.296	26.38
602.632	26.28
602.968	26.37
603.304	26.55
603.64	26.61
603.976	26.55
604.312	26.43
604.648	26.36
604.984	26.3
605.319	26.39
605.655	26.39
605.991	26.32
606.326	26.31
606.662	26.11
606.998	26.42
607.333	26.31
607.668	26.66
608.004	26.66
608.339	26.96
608.674	26.8
609.01	26.58
609.345	26.84
609.68	27.43
610.015	26.85
610.35	26.95
610.685	26.77
611.02	26.97
611.355	26.82
611.689	26.91
612.024	26.68
612.359	26.82
612.694	26.95
613.028	27.3
613.363	27.3
613.697	27.44
614.032	27.18
614.366	27.05
614.7	27.39
615.035	27.24
615.369	27.85
615.703	27.69
616.037	27.74
616.371	27.43
616.705	27.87
617.039	27.6
617.373	27.93
617.707	27.77
618.041	27.73
618.375	28.22
618.709	27.67
619.042	27.76
619.376	27.83
619.71	27.72
620.043	28.02
620.377	27.82
620.71	27.54
621.043	28.25
621.377	27.66
621.71	28.19
622.043	27.9
622.376	27.93
622.709	28.5
623.043	28.08
623.376	28.17
623.709	28.53
624.041	28.38
624.374	28.45
624.707	28.29
625.04	28.3
625.373	28.23
625.705	28.4
626.038	28.25
626.37	28.06
626.703	28.45
627.035	28.34
627.368	28.25
627.7	28.26
628.032	28.24
628.365	28.6
628.697	28.72
629.029	28.5
629.361	28.24
629.693	28.41
630.025	28.27
630.357	28.59
630.689	28.82
631.021	28.65
631.353	28.43
631.684	28.56
632.016	28.64
632.348	28.98
632.679	28.99
633.011	29.01
633.342	28.8
633.674	28.85
634.005	28.97
634.336	28.95
634.668	28.89
634.999	28.94
635.33	28.71
635.661	29.3
635.992	29.33
636.323	29.52
636.654	29.11
636.985	29.31
637.316	29.26
637.647	29.27
637.977	29.23
638.308	29.49
638.639	29.32
638.969	29.32
639.3	29.45
639.63	29.31
639.961	28.98
640.291	29.35
640.622	29.71
640.952	29.54
641.282	29.61
641.612	30.02
641.943	29.7
642.273	29.79
642.603	29.5
642.933	29.59
643.263	29.43
643.592	29.74
643.922	30.01
644.252	29.93
644.582	30.13
644.911	30.05
645.241	30.14
645.571	30.11
645.9	29.86
646.23	30.24
646.559	29.76
646.888	30.11
647.218	30.26
647.547	30.21
647.876	30.33
648.205	30.03
648.534	29.91
648.863	29.79
649.192	30.66
649.521	30.37
649.85	30
650.179	29.91
650.508	30.27
650.837	30.73
651.165	30.33
651.494	30.83
651.822	30.12
652.151	30.28
652.479	30.4
652.808	30.43
653.136	30.15
653.465	30.6
653.793	30.32
654.121	30.55
654.449	30.67
654.777	30.49
655.105	30.8
655.433	30.2
655.761	30.41
656.089	30.76
656.417	30.51
656.745	30.89
657.073	30.9
657.4	30.78
657.728	31.23
658.056	30.86
658.383	30.57
658.711	31.16
659.038	30.61
659.365	30.87
659.693	30.69
660.02	31.44
660.347	30.92
660.674	30.74
661.001	31.38
661.329	30.65
661.656	30.91
661.982	31.03
662.309	31.18
662.636	31.12
662.963	30.79
663.29	31.36
663.616	31.44
663.943	31.04
664.27	31.43
664.596	31.46
664.923	31.61
665.249	31.41
665.576	31.16
665.902	31.42
666.228	31.62
666.554	31.03
666.881	31.62
667.207	31.32
667.533	32.06
667.859	31.48
668.185	31.76
668.511	31.81
668.837	31.79
669.162	31.67
669.488	31.12
669.814	32
670.139	32.05
670.465	31.45
670.791	31.68
671.116	31.48
671.442	31.96
671.767	31.83
672.092	31.91
672.418	31.93
672.743	31.49
673.068	32.28
673.393	31.57
673.718	32.03
674.043	31.99
674.368	31.78
674.693	32.11
675.018	32.27
675.343	31.82
675.667	31.96
675.992	31.93
676.317	32.65
676.641	32.36
676.966	31.8
677.29	31.83
677.615	32.4
677.939	32.12
678.264	31.97
678.588	32.61
678.912	32.57
679.236	32.15
679.56	32.94
679.885	32.94
680.209	32.6
680.532	32.53
680.856	32.62
681.18	32.41
681.504	32.55
681.828	32.19
682.152	32.43
682.475	32.31
682.799	32.28
683.122	32.56
683.446	32.66
683.769	33.04
684.093	32.43
684.416	32.92
684.739	32.81
685.062	33.02
685.386	33.3
685.709	33.22
686.032	32.88
686.355	32.57
686.678	33.29
687.001	33.46
687.324	33.08
687.646	32.83
687.969	32.61
688.292	33.57
688.614	33.03
688.937	32.98
689.26	32.85
689.582	33.48
689.904	33.11
690.227	33.94
690.549	33.96
690.871	33.03
691.194	33.6
691.516	33.16
691.838	33
692.16	33.77
692.482	33.1
692.804	33.49
693.126	33.55
693.448	34.47
693.769	33.62
694.091	32.92
694.413	33.41
694.735	33.48
695.056	33.17
695.378	33.37
695.699	33.6
696.021	34.04
696.342	33.37
696.663	34.76
696.984	33.65
697.306	33.43
697.627	33.43
697.948	33.69
698.269	34.62
698.59	33.61
698.911	34.08
699.232	33.87
699.553	32.96
699.873	34.15
700.194	33.66
700.515	33.68
700.835	33.92
701.156	33.7
701.477	33.44
701.797	33.78
702.117	33.29
702.438	33.99
702.758	33.89
703.078	34.63
703.398	34.16
703.719	34.21
704.039	33.96
704.359	34.31
704.679	33.69
704.999	34.35
705.319	33.06
705.638	34.57
705.958	34.44
706.278	34.09
706.597	34.58
706.917	33.46
707.237	34.66
707.556	34.88
707.876	34.65
708.195	34.99
708.514	35.18
708.834	34.62
709.153	34.91
709.472	34.33
709.791	34.07
710.11	33.62
710.429	34.32
710.748	33.32
711.067	34.28
711.386	34.58
711.705	34.14
712.023	34.9
712.342	35.41
712.661	34.45
712.979	35
713.298	34.87
713.616	34.68
713.935	34.41
714.253	36.24
714.572	34.6
714.89	35.06
715.208	35.56
715.526	34.69
715.844	34.64
716.162	34.68
716.48	34.62
716.798	34.86
717.116	34.91
717.434	36.14
717.752	35.07
718.069	34.26
718.387	35.09
718.705	33.96
719.022	34.94
719.34	34.94
719.657	34.67
719.975	35.22
720.292	34.44
720.609	34.26
720.927	35.51
721.244	36.06
721.561	35.29
721.878	35.92
722.195	35.79
722.512	37
722.829	35.47
723.146	35.58
723.463	35.56
723.779	35.13
724.096	34.67
724.413	35.13
724.729	34.18
725.046	34.68
725.362	36.07
725.679	35.44
725.995	35.51
726.311	35.13
726.628	35.15
726.944	35.07
727.26	36.33
727.576	34.38
727.892	35.05
728.208	35.5
728.524	35.58
728.84	34.29
729.156	36.22
729.472	35.57
729.787	35.87
730.103	35.66
730.419	35.87
730.734	35.88
731.05	35.15
731.365	36.26
731.681	35.16
731.996	34.7
732.311	36.03
732.626	36.35
732.942	35.95
733.257	35.81
733.572	36.19
733.887	36.54
734.202	36.53
734.517	36.03
734.832	35.8
735.146	35.34
735.461	35.17
735.776	34.95
736.091	36.52
736.405	36.73
736.72	35.59
737.034	35.73
737.349	36.39
737.663	35.08
737.977	36.44
738.292	35.77
738.606	36.57
738.92	36.35
739.234	35.62
739.548	36.03
739.862	35.21
740.176	37.08
740.49	37.06
740.804	36.68
741.117	37.25
741.431	36.86
741.745	36.69
742.058	37.19
742.372	38.04
742.685	36.63
742.999	36.13
743.312	36.46
743.626	37.47
743.939	36.2
744.252	36.69
744.565	37.82
744.878	37.55
745.191	36.72
745.505	36.78
745.817	35.8
746.13	37.04
746.443	37.52
746.756	35.71
747.069	37.19
747.381	39.48
747.694	36.98
748.007	37.12
748.319	37.05
748.632	36.81
748.944	37.98
749.256	36.07
749.569	38.16
749.881	38.47
750.193	38.93
750.505	38.04
750.817	35.07
751.129	37.51
751.441	36.47
751.753	38.25
752.065	36.54
752.377	37.19
752.689	35.68
753	37.81
753.312	38.47
753.624	37.22
753.935	37.04
754.247	36
754.558	34.93
754.869	35.07
755.181	36.16
755.492	36.91
755.803	36.34
756.114	36.79
756.425	38.18
756.736	35.13
757.047	36.94
757.358	37.83
757.669	38.25
757.98	37.36
758.291	36.78
758.601	36.87
758.912	36.23
759.223	38.15
759.533	36
759.844	38.92
760.154	36.81
760.464	37.45
760.775	39.27
761.085	37.77
761.395	36.41
761.705	38.19
762.016	38.33
762.326	37.3
762.636	39.35
762.945	39.19
763.255	39.04
763.565	36.99
763.875	38.03
764.185	38.98
764.494	37.65
764.804	37.01
765.113	36.52
765.423	38.07
765.732	38.46
766.042	38.84
766.351	37.42
766.66	39.36
766.97	36.67
767.279	38.67
767.588	37.28
767.897	36.77
768.206	40.01
768.515	39.05
768.824	37.42
769.133	37.3
769.441	36.84
769.75	36.25
770.059	38.75
770.367	39.11
770.676	38.36
770.984	41.33
771.293	35.6
771.601	40.08
771.91	39.25
772.218	38.05
772.526	37.21
772.834	35.63
773.142	35.32
773.45	37.09
773.758	37.68
774.066	36.09
774.374	37.15
774.682	42.88
774.99	36.97
775.298	38.4
775.605	36.24
775.913	39.54
776.22	40.1
776.528	39.47
776.835	39.78
777.143	36.73
777.45	40.44
777.757	36.05
778.065	37.94
778.372	35.49
778.679	36.02
778.986	37.05
779.293	37.74
779.6	38.6
779.907	40.57
780.214	36.35
780.52	39.1
780.827	42.53
781.134	35.16
781.44	33.97
781.747	41.82
782.053	38.58
782.36	39.71
782.666	41.08
782.973	38.17
783.279	37.24
783.585	40.1
783.891	39.98
784.197	37.75
784.503	34.86
784.809	36.99
785.115	37.52
785.421	39.16
785.727	38.29
786.033	37.87
786.339	39.38
786.644	39.6
786.95	40.12
787.255	39.11
787.561	41.8
787.866	37.08
788.172	35.51
788.477	38.42
788.782	38.3
789.088	39.45
789.393	40.25
789.698	39.11
790.003	37.95
790.308	42.74
790.613	37.49
790.918	38.34
791.223	39.7
791.527	38.26
791.832	39.71
792.137	39.98
792.441	38.77
792.746	39.97
793.05	37.62
793.355	41.22
793.659	37.6
793.963	40.22
794.268	40.82
794.572	37.67
794.876	37.48
795.18	39.23
795.484	37.48
795.788	38.29
796.092	41.97
796.396	37.85
796.7	38.57
797.004	36.81
797.307	38.35
797.611	42.77
797.915	38.67
798.218	39.42
798.522	37.08
798.825	39.21
799.128	41.03
799.432	39.39
799.735	40.5
800.038	41.76
800.341	42.73
800.644	36.76
800.947	37.59
801.25	40.46
801.553	38.04
801.856	38.6
802.159	40.91
802.462	38.97
802.764	40.17
803.067	40.15
803.37	35.54
803.672	35.89
803.975	43.09
804.277	41.2
804.579	38.75
804.882	39.44
805.184	35.8
805.486	35.68
805.788	38.27
806.09	41.17
806.392	32.07
806.694	39.26
806.996	43.15
807.298	43.47
807.6	35.39
807.902	37.02
808.203	39.64
808.505	43.56
808.807	36.6
809.108	39.41
809.409	39.84
809.711	40.56
810.012	36.23
810.313	42.15
810.615	37.35
810.916	40.94
811.217	36.43
811.518	34.87
811.819	38.16
812.12	39.58
812.421	44.72
812.722	42.63
813.023	35.87
813.323	38.61
813.624	38.84
813.925	42.55
814.225	46.12
814.526	39.26
814.826	42.57
815.126	38.82
815.427	40.63
815.727	39.32
816.027	38.43
816.327	39.93
816.627	40.66
816.927	34.49
817.227	38.28
817.527	36.66
817.827	40.03
818.127	40.8
818.427	33.99
818.727	41.49
819.026	32.45
819.326	41.47
819.625	37.73
819.925	41.65
820.224	47.38
820.524	36.72
820.823	39.16
821.122	39.92
821.421	42.61
821.72	41.95
822.019	38.71
822.318	40.14
822.617	36.57
822.916	40.36
823.215	39.91
823.514	41.53
823.813	40.89
824.111	39.93
824.41	41.07
824.709	41.01
825.007	40.86
825.306	40.94
825.604	40.71
825.902	41.36
826.201	40.91
826.499	40.98
826.797	41.22
827.095	40.88
827.393	42.87
827.691	41.12
827.989	40.52
828.287	39.01
828.585	39.44
828.882	37.33
829.18	41.64
829.478	39.25
829.775	40.84
830.073	39.97
830.37	41.45
830.668	42.31
830.965	41.39
831.263	42.34
831.56	40.45
831.857	38.76
832.154	39.72
832.451	41.82
832.748	39.19
833.045	39.02
833.342	44.68
833.639	36.14
833.936	40.99
834.232	45.81
834.529	34.7
834.826	41.82
835.122	39.1
835.419	40.53
835.715	38.18
836.012	39.23
836.308	40.54
836.604	39.98
836.901	39.31
837.197	40.88
837.493	40.41
837.789	39.07
838.085	40.95
838.381	39.75
838.677	40.92
838.972	42.1
839.268	36.74
839.564	43.32
839.86	40.02
840.155	47.69
840.451	45.88
840.746	44.33
841.042	46.46
841.337	36.36
841.632	40.13
841.928	38.8
842.223	41.57
842.518	45.21
842.813	31.71
843.108	38.59
843.403	42.67
843.698	34.2
843.993	40.31
844.287	46.21
844.582	37.25
844.877	39.93
845.171	40.75
845.466	42.7
845.761	39.56
846.055	43.11
846.349	36.82
846.644	40.96
846.938	24.33
847.232	41.89
847.526	41.16
847.82	33.13
848.114	44.87
848.408	44.68
848.702	40.55
848.996	40.44
849.29	43.25
849.584	36.65
849.877	36.03
850.171	37.12
850.465	45.79
850.758	28.99
851.052	32.7
851.345	38.51
851.638	46.81
851.932	47.46
852.225	35.04
852.518	59.75
852.811	34.82
853.104	34.6
853.397	23.68
853.69	37.21
853.983	46.24
854.276	59.49
854.569	27.47
854.861	37
855.154	26.69
855.447	42.63
855.739	56.44
856.032	39.64
856.324	36.65
856.616	58.67
856.909	37.59
857.201	56.08
857.493	41.84
857.785	40.74
858.077	34.63
858.369	58.74
858.661	23.82
858.953	44.17
859.245	34.08
859.537	32.9
859.829	39.48
860.12	60.13
860.412	32.31
860.703	44.12
860.995	43.56
861.286	26.03
861.578	34.02
861.869	18.24
862.16	7.34
862.452	43.25
862.743	26.21
863.034	31.54
863.325	73.71
863.616	34.63
863.907	46.33
864.198	38.13
864.488	43.36
864.779	34.45
865.07	33.64
865.36	51.02
865.651	34.94
865.941	55.5
866.232	24.79
866.522	31.64
866.813	39.17
867.103	39.57
867.393	39.73
867.683	42.41
867.973	35.65
868.263	43.22
868.553	31.04
868.843	36.92
869.133	47.97
869.423	41.55
869.713	47.39
870.002	59.39
870.292	58.37
870.582	42.22
870.871	30.02
871.161	43.8
871.45	46.13
871.739	38.92
872.029	45.86
872.318	58.73
872.607	39.84
872.896	29.63
873.185	66.26
873.474	19.66
873.763	35.07
874.052	41.31
874.341	41.41
874.63	33.96
874.918	40.75
875.207	21.1
875.496	50.52
875.784	37.59
876.073	35.86
876.361	15.29
876.649	41.5
876.938	41.31
877.226	55.67
877.514	34.87
877.802	33.1
878.09	45.75
878.378	50.54
878.666	41.13
878.954	49.25
879.242	33.65
879.53	25.61
879.817	21.55
880.105	11.19
880.392	41.07
880.68	29.18
880.967	41.35
881.255	24.9
881.542	44.88
881.83	28.51
882.117	58.34
882.404	25.93
882.691	41.33
882.978	30.68
883.265	30.57
883.552	44.2
883.839	39.72
884.126	38.76
884.413	42.74
884.699	48.37
884.986	40.78
885.273	44.46
885.559	44.46
885.846	44.46
