Data from 21-7_forehead_Reflection__2__132.txt Node

Date: Thu Dec 15 17:30:43 CST 2022
User: ToomeyLab
Spectrometer: FLMS14357
Trigger mode: 0
Integration Time (sec): 1.000000E-2
Scans to average: 100
Electric dark correction enabled: true
Nonlinearity correction enabled: false
Boxcar width: 0
XAxis mode: Wavelengths
Number of Pixels in Spectrum: 2048
>>>>>Begin Spectral Data<<<<<
189.047	-94.87
189.435	-94.87
189.823	-94.87
190.211	301.17
190.599	158.32
190.987	444.54
191.375	-22.23
191.763	18.1
192.151	-373.44
192.538	69.33
192.926	230.63
193.314	105.94
193.702	-139.99
194.089	19.33
194.477	77.75
194.864	-560.43
195.252	83.77
195.639	116.54
196.027	-215.72
196.414	489.09
196.801	282.53
197.189	16.82
197.576	265.53
197.963	97.7
198.351	-0.9
198.738	-22.42
199.125	-52.17
199.512	63.8
199.899	-16.17
200.286	-13.57
200.673	35.53
201.06	41.83
201.447	3.36
201.833	30.87
202.22	-7.55
202.607	-8.66
202.994	40.52
203.38	36.05
203.767	4.87
204.154	74.41
204.54	85.65
204.927	29.28
205.313	22.49
205.699	15.16
206.086	43.24
206.472	51.01
206.858	6.76
207.245	18.11
207.631	29.81
208.017	56.13
208.403	-56.22
208.789	52.18
209.175	23.24
209.561	7.79
209.947	19.63
210.333	30.25
210.719	30.26
211.105	49.33
211.491	55.58
211.876	-1.37
212.262	13.27
212.648	-16.28
213.034	-19.97
213.419	11.3
213.805	8.12
214.19	1.6
214.576	-6.75
214.961	27.38
215.346	1.6
215.732	7.41
216.117	32.96
216.502	14.27
216.888	22.2
217.273	39.03
217.658	-16.39
218.043	6.49
218.428	-3.17
218.813	31.25
219.198	-5.5
219.583	17.34
219.968	25.44
220.353	-22.45
220.738	24.29
221.122	-6.88
221.507	24.34
221.892	-8.44
222.276	-24.6
222.661	-10.94
223.046	4.45
223.43	12.38
223.815	12.38
224.199	0.36
224.583	1.02
224.968	-3.06
225.352	-7
225.736	7.3
226.121	-1.09
226.505	-5.11
226.889	-3.45
227.273	1.67
227.657	4.68
228.041	3.9
228.425	-3.41
228.809	3.13
229.193	0.76
229.577	2.71
229.961	1.63
230.344	1.42
230.728	1.95
231.112	3.22
231.495	1.81
231.879	3.65
232.263	2.53
232.646	1.23
233.03	3.83
233.413	3.41
233.797	1.95
234.18	6.16
234.563	2.14
234.946	0.88
235.33	1.98
235.713	2.65
236.096	4.73
236.479	1.86
236.862	2.5
237.245	3.03
237.628	3.1
238.011	1.85
238.394	0.07
238.777	2.66
239.16	5.9
239.543	3.24
239.925	3.79
240.308	2.17
240.691	1.61
241.073	1.75
241.456	3.16
241.838	3.18
242.221	3.02
242.603	2.58
242.986	2.96
243.368	2.26
243.75	2.77
244.133	2.6
244.515	2.12
244.897	2.27
245.279	2.11
245.661	2.2
246.043	2.89
246.425	2.81
246.807	2
247.189	3.31
247.571	2.09
247.953	2.34
248.335	2.47
248.717	2.6
249.098	2.62
249.48	2.52
249.862	2.49
250.243	2.49
250.625	2.16
251.006	2.82
251.388	2.63
251.769	2.57
252.151	2.53
252.532	2.32
252.913	2.69
253.295	2.44
253.676	2.7
254.057	2.87
254.438	3.12
254.819	3.28
255.2	3.49
255.581	3.59
255.962	3.38
256.343	3.6
256.724	2.79
257.105	3.37
257.486	3.25
257.867	2.91
258.247	3.11
258.628	2.52
259.009	2.46
259.389	1.83
259.77	1.93
260.15	3.72
260.531	2.78
260.911	2.42
261.292	2.58
261.672	2.4
262.052	2.23
262.432	2.39
262.813	2.48
263.193	2.4
263.573	2.68
263.953	1.91
264.333	2.73
264.713	2.88
265.093	2.81
265.473	2.1
265.853	3.19
266.233	2.81
266.612	2.02
266.992	2.79
267.372	1.99
267.752	2.51
268.131	2.29
268.511	2.43
268.89	2.57
269.27	1.64
269.649	2.35
270.029	2.16
270.408	2.82
270.787	2.37
271.167	2.45
271.546	3.27
271.925	2.85
272.304	1.98
272.683	2.12
273.062	2.38
273.441	1.92
273.82	2.38
274.199	2.38
274.578	2.16
274.957	1.8
275.336	2.55
275.715	3.07
276.093	1.69
276.472	1.78
276.851	2.56
277.229	2.21
277.608	2.11
277.986	2.06
278.365	2.71
278.743	2.1
279.122	1.86
279.5	2.16
279.878	2.34
280.257	2.64
280.635	2.81
281.013	1.79
281.391	1.99
281.769	3.14
282.147	2.01
282.525	2.6
282.903	2.27
283.281	2.65
283.659	2.96
284.037	2.24
284.415	2.08
284.792	2.83
285.17	2.18
285.548	2.27
285.925	2.12
286.303	2.42
286.68	2.4
287.058	2.61
287.435	2.23
287.813	2.53
288.19	2
288.567	2.37
288.945	1.97
289.322	2.87
289.699	2.7
290.076	2.4
290.453	2.37
290.83	2.49
291.207	2.65
291.584	2.92
291.961	2.59
292.338	2.33
292.715	2.6
293.092	3.06
293.469	2.48
293.845	2.89
294.222	2.95
294.599	2.46
294.975	2.17
295.352	2.97
295.728	2.89
296.105	2.51
296.481	3.3
296.858	3.07
297.234	2.89
297.61	3.51
297.986	3.46
298.363	2.97
298.739	3.59
299.115	3.26
299.491	3.64
299.867	3.22
300.243	3.13
300.619	3.39
300.995	3.45
301.371	3.28
301.746	3.97
302.122	3.34
302.498	3.46
302.874	4.05
303.249	3.33
303.625	3.6
304	3.72
304.376	3.74
304.751	3.64
305.127	3.19
305.502	3.73
305.878	4.17
306.253	3.88
306.628	4.05
307.003	3.52
307.378	3.76
307.754	3.83
308.129	3.55
308.504	4.57
308.879	4.23
309.254	4.51
309.629	4.3
310.003	4.26
310.378	4.38
310.753	4.49
311.128	4.84
311.502	4.58
311.877	4.48
312.252	4.82
312.626	4.89
313.001	4.21
313.375	4.98
313.75	4.9
314.124	5.06
314.498	5.15
314.873	4.8
315.247	4.79
315.621	4.8
315.995	5.1
316.369	4.78
316.743	5.27
317.117	5.02
317.491	5.13
317.865	4.73
318.239	5.42
318.613	5.51
318.987	4.81
319.361	5.39
319.734	5.37
320.108	5.57
320.482	6.16
320.855	5.7
321.229	5.67
321.602	5.66
321.976	5.15
322.349	6.59
322.723	6.12
323.096	5.86
323.469	5.83
323.843	5.62
324.216	5.79
324.589	6.39
324.962	5.65
325.335	5.85
325.708	6.01
326.081	6.12
326.454	6.64
326.827	6.13
327.2	5.84
327.573	6.46
327.945	6
328.318	5.85
328.691	6.05
329.063	6.03
329.436	6.4
329.809	6.86
330.181	7.18
330.553	7.01
330.926	7.09
331.298	6.33
331.671	6.46
332.043	6.72
332.415	7.13
332.787	6.9
333.159	6.76
333.532	6.63
333.904	7.35
334.276	6.93
334.648	6.77
335.02	7
335.391	6.52
335.763	7.09
336.135	7.15
336.507	6.77
336.879	6.79
337.25	7.11
337.622	7.15
337.993	7
338.365	7.07
338.736	7.02
339.108	7.23
339.479	7.2
339.851	7.22
340.222	7.32
340.593	7.07
340.964	7.52
341.336	6.72
341.707	7.22
342.078	6.8
342.449	6.96
342.82	7.45
343.191	7
343.562	7.62
343.933	6.97
344.303	7.62
344.674	7.62
345.045	7.46
345.416	7.58
345.786	7.4
346.157	7.58
346.527	7.49
346.898	7.42
347.268	7.27
347.639	7.33
348.009	7.58
348.38	7.27
348.75	7.75
349.12	7.93
349.49	7.8
349.861	8.02
350.231	7.67
350.601	7.74
350.971	7.67
351.341	7.97
351.711	7.92
352.081	7.48
352.45	7.77
352.82	7.44
353.19	7.92
353.56	7.82
353.929	8.01
354.299	8.28
354.669	8
355.038	8
355.408	8.17
355.777	8.28
356.147	8.13
356.516	7.82
356.885	7.83
357.254	8
357.624	7.82
357.993	7.86
358.362	8.02
358.731	8.51
359.1	8.58
359.469	8.46
359.838	8.17
360.207	8.4
360.576	8.34
360.945	8.42
361.314	8.26
361.682	8.12
362.051	8.43
362.42	8.37
362.788	8.44
363.157	8.09
363.525	8.36
363.894	8.36
364.262	8.47
364.631	8.74
364.999	8.53
365.367	8.44
365.735	8.51
366.104	8.5
366.472	8.51
366.84	8.81
367.208	9.01
367.576	8.71
367.944	8.59
368.312	8.83
368.68	9.27
369.048	9.19
369.416	8.56
369.783	8.84
370.151	9.34
370.519	9.34
370.886	8.88
371.254	9.2
371.621	9.18
371.989	9.24
372.356	9.02
372.724	9.28
373.091	8.93
373.458	9.1
373.826	9.32
374.193	9.16
374.56	9.07
374.927	9.22
375.294	9.45
375.661	9.27
376.028	9.39
376.395	9.46
376.762	9.13
377.129	9.47
377.496	9.54
377.863	9.76
378.229	9.56
378.596	9.75
378.963	9.57
379.329	9.54
379.696	9.55
380.062	9.7
380.429	9.46
380.795	9.65
381.161	9.53
381.528	9.42
381.894	9.54
382.26	10.06
382.626	9.98
382.993	10.04
383.359	9.7
383.725	9.59
384.091	10.18
384.457	9.83
384.823	9.67
385.188	9.95
385.554	10.06
385.92	9.84
386.286	10.09
386.651	10.21
387.017	10.49
387.383	10.25
387.748	10.23
388.114	10.14
388.479	10.26
388.845	10.33
389.21	10.3
389.575	10.5
389.94	10.43
390.306	10.39
390.671	10.41
391.036	10.46
391.401	10.34
391.766	10.24
392.131	10.78
392.496	10.51
392.861	10.21
393.226	10.09
393.591	10.53
393.956	10.5
394.32	10.67
394.685	10.63
395.05	10.58
395.414	10.49
395.779	10.55
396.143	10.41
396.508	10.59
396.872	10.75
397.236	11.08
397.601	10.86
397.965	10.65
398.329	10.63
398.694	10.61
399.058	10.9
399.422	10.76
399.786	10.71
400.15	10.65
400.514	11.01
400.878	10.7
401.242	11.06
401.605	11.2
401.969	10.89
402.333	10.85
402.697	11.45
403.06	11.05
403.424	11.1
403.787	11.15
404.151	11.39
404.514	11.18
404.878	10.92
405.241	11.11
405.604	10.88
405.968	11.08
406.331	11.08
406.694	11.14
407.057	11.17
407.42	11.17
407.783	11.34
408.146	11.23
408.509	11.44
408.872	11.33
409.235	11.4
409.598	11.41
409.961	11.41
410.323	11.23
410.686	11.18
411.049	11.51
411.411	11.47
411.774	11.55
412.136	11.73
412.499	11.62
412.861	11.19
413.223	11.61
413.586	11.53
413.948	11.67
414.31	11.73
414.672	11.72
415.035	12.03
415.397	11.85
415.759	11.88
416.121	11.84
416.483	12.05
416.845	11.88
417.206	11.97
417.568	11.79
417.93	12.01
418.292	11.83
418.653	11.98
419.015	12.02
419.377	11.98
419.738	11.98
420.1	12
420.461	11.95
420.822	12.08
421.184	12.09
421.545	12.14
421.906	12.2
422.267	12.05
422.629	12.08
422.99	12.05
423.351	12.21
423.712	12.25
424.073	12.35
424.434	12.44
424.795	12.27
425.155	12.37
425.516	12.47
425.877	12.46
426.238	12.36
426.598	12.44
426.959	12.59
427.32	12.76
427.68	12.81
428.041	12.84
428.401	12.82
428.761	12.87
429.122	13.2
429.482	13.2
429.842	13.03
430.202	13.43
430.563	13.19
430.923	13.18
431.283	13.52
431.643	13.47
432.003	13.53
432.363	13.59
432.722	13.45
433.082	13.39
433.442	13.69
433.802	13.49
434.161	13.35
434.521	13.51
434.881	13.61
435.24	13.51
435.6	13.78
435.959	13.69
436.319	13.73
436.678	13.96
437.037	13.8
437.396	13.77
437.756	13.86
438.115	14
438.474	14
438.833	14.12
439.192	13.98
439.551	14.09
439.91	14.07
440.269	14.16
440.628	14.14
440.987	14.13
441.345	14.17
441.704	14.14
442.063	14.14
442.421	14.15
442.78	14.17
443.138	14.3
443.497	14.39
443.855	14.62
444.214	14.42
444.572	14.64
444.93	14.59
445.288	14.72
445.647	14.48
446.005	14.72
446.363	14.62
446.721	14.67
447.079	14.76
447.437	14.59
447.795	14.73
448.153	14.62
448.51	14.7
448.868	14.75
449.226	14.84
449.584	14.85
449.941	15.13
450.299	14.97
450.656	15.02
451.014	15.27
451.371	15.26
451.729	15.29
452.086	15.25
452.443	15.57
452.801	15.4
453.158	15.63
453.515	15.48
453.872	15.45
454.229	15.46
454.586	15.45
454.943	15.59
455.3	15.78
455.657	15.66
456.014	15.87
456.371	15.82
456.727	15.93
457.084	16.15
457.441	15.94
457.797	15.89
458.154	16.07
458.51	16.2
458.867	16.17
459.223	16.18
459.58	16
459.936	16.08
460.292	16.05
460.648	15.9
461.005	15.87
461.361	15.87
461.717	15.9
462.073	15.99
462.429	16.31
462.785	16.43
463.141	16.39
463.496	16.54
463.852	16.62
464.208	16.69
464.564	16.79
464.919	16.72
465.275	16.76
465.631	16.85
465.986	16.75
466.342	16.71
466.697	16.86
467.052	16.95
467.408	17.02
467.763	17.04
468.118	16.93
468.473	17.14
468.829	16.96
469.184	17.16
469.539	17.04
469.894	17.28
470.249	17.29
470.603	17.47
470.958	17.37
471.313	17.4
471.668	17.4
472.023	17.46
472.377	17.45
472.732	17.55
473.086	17.36
473.441	17.62
473.795	17.74
474.15	17.54
474.504	17.62
474.859	17.39
475.213	17.64
475.567	17.62
475.921	18.03
476.275	17.98
476.63	17.96
476.984	17.88
477.338	17.8
477.692	17.94
478.045	17.94
478.399	17.88
478.753	17.89
479.107	18.21
479.461	18.03
479.814	18.1
480.168	18.14
480.521	18.27
480.875	18.23
481.228	18.19
481.582	18.31
481.935	18.42
482.289	18.25
482.642	18.21
482.995	18.15
483.348	18.09
483.701	18.07
484.055	17.99
484.408	17.85
484.761	17.59
485.114	17.49
485.466	17.42
485.819	17.49
486.172	17.7
486.525	17.85
486.878	18.05
487.23	18.22
487.583	18.14
487.936	18.27
488.288	18.11
488.641	18.01
488.993	17.88
489.345	18.07
489.698	18.1
490.05	18.13
490.402	18.36
490.754	18.5
491.107	18.63
491.459	18.78
491.811	18.85
492.163	18.69
492.515	18.65
492.866	18.47
493.218	18.39
493.57	18.55
493.922	18.62
494.274	18.93
494.625	19.17
494.977	19.24
495.328	19.36
495.68	19.43
496.031	19.65
496.383	19.59
496.734	19.58
497.086	19.86
497.437	19.78
497.788	19.8
498.139	19.61
498.49	19.67
498.842	19.56
499.193	19.67
499.544	19.7
499.894	19.76
500.245	19.96
500.596	20.17
500.947	20.1
501.298	20.01
501.648	20.12
501.999	20.35
502.35	20.39
502.7	20.5
503.051	20.38
503.401	20.45
503.752	20.6
504.102	20.45
504.452	20.56
504.803	20.6
505.153	20.65
505.503	20.67
505.853	20.71
506.203	20.67
506.553	20.7
506.903	20.85
507.253	20.7
507.603	20.79
507.953	20.77
508.303	20.77
508.652	20.85
509.002	20.98
509.352	20.98
509.701	20.88
510.051	21
510.4	21.07
510.75	20.82
511.099	20.85
511.449	20.89
511.798	21.01
512.147	21.06
512.496	21.16
512.846	21.26
513.195	21.19
513.544	21.22
513.893	21.24
514.242	21.07
514.591	21.28
514.939	21.5
515.288	21.69
515.637	21.5
515.986	21.62
516.334	21.76
516.683	21.75
517.032	21.83
517.38	21.72
517.729	21.86
518.077	22.02
518.426	21.93
518.774	21.74
519.122	21.75
519.47	21.58
519.819	21.51
520.167	21.49
520.515	21.67
520.863	21.75
521.211	21.79
521.559	21.93
521.907	22.05
522.255	22.08
522.602	22.33
522.95	22.36
523.298	22.33
523.645	22.57
523.993	22.42
524.341	22.46
524.688	22.39
525.036	22.53
525.383	22.55
525.73	22.5
526.078	22.72
526.425	22.39
526.772	22.27
527.119	22.34
527.466	22.24
527.814	22.34
528.161	22.42
528.508	22.54
528.854	22.57
529.201	22.41
529.548	22.13
529.895	21.95
530.242	21.93
530.588	22.06
530.935	22.25
531.282	22.35
531.628	22.55
531.975	22.61
532.321	22.88
532.667	22.97
533.014	23.17
533.36	23.05
533.706	23.07
534.052	22.98
534.399	22.86
534.745	22.73
535.091	22.73
535.437	22.86
535.783	22.98
536.129	23.29
536.474	23.5
536.82	23.64
537.166	23.56
537.512	23.64
537.857	23.41
538.203	23.49
538.549	23.5
538.894	23.5
539.239	23.69
539.585	23.94
539.93	24.12
540.276	24.19
540.621	24.37
540.966	24.22
541.311	24.16
541.656	24.15
542.001	24.07
542.346	23.73
542.691	23.56
543.036	23.49
543.381	23.68
543.726	23.85
544.071	24.01
544.415	24.14
544.76	24.09
545.105	24.24
545.449	24.44
545.794	24.47
546.138	24.69
546.483	24.87
546.827	24.85
547.171	24.76
547.516	24.94
547.86	24.88
548.204	24.89
548.548	24.72
548.892	24.89
549.236	25
549.58	25.21
549.924	25.43
550.268	25.53
550.612	25.58
550.956	25.81
551.3	25.87
551.643	25.68
551.987	25.97
552.33	25.84
552.674	25.93
553.017	25.95
553.361	26.14
553.704	25.9
554.048	26
554.391	25.96
554.734	25.94
555.077	26.05
555.42	26.05
555.764	26.22
556.107	26.35
556.45	26.28
556.793	26.56
557.135	26.57
557.478	26.55
557.821	26.55
558.164	26.7
558.507	26.66
558.849	26.86
559.192	26.61
559.534	26.89
559.877	26.96
560.219	27.02
560.562	26.78
560.904	27.28
561.246	26.88
561.589	27.09
561.931	27.05
562.273	26.92
562.615	27.01
562.957	27.13
563.299	27.12
563.641	27.26
563.983	27.22
564.325	27.43
564.667	27.54
565.008	27.2
565.35	27.25
565.692	27.74
566.033	27.63
566.375	27.48
566.716	27.58
567.058	27.52
567.399	27.44
567.741	27.37
568.082	27.57
568.423	27.49
568.764	27.71
569.105	27.85
569.447	27.73
569.788	27.99
570.129	27.94
570.47	28.29
570.811	27.91
571.151	28.13
571.492	28.25
571.833	28.13
572.174	28.31
572.514	28.17
572.855	28.15
573.195	27.96
573.536	28.19
573.876	28.08
574.217	28.06
574.557	28.23
574.898	28.4
575.238	28.34
575.578	28.59
575.918	28.59
576.258	28.82
576.598	28.48
576.938	28.69
577.278	28.7
577.618	28.66
577.958	28.8
578.298	28.76
578.638	28.91
578.977	29.31
579.317	29.08
579.657	29.24
579.996	29.36
580.336	29.41
580.675	29.31
581.014	29.7
581.354	29.37
581.693	29.86
582.032	29.8
582.372	29.73
582.711	29.78
583.05	29.89
583.389	30.12
583.728	29.83
584.067	29.96
584.406	30.16
584.745	29.8
585.083	29.88
585.422	30.24
585.761	30.11
586.1	30.39
586.438	30.01
586.777	30.17
587.115	30.44
587.454	30.41
587.792	30.64
588.13	30.42
588.469	30.18
588.807	30.61
589.145	30.59
589.483	30.49
589.821	30.61
590.159	30.66
590.497	30.77
590.835	30.87
591.173	30.47
591.511	30.86
591.849	30.69
592.187	30.7
592.524	30.9
592.862	30.56
593.2	31.17
593.537	31.18
593.875	31.25
594.212	31.27
594.55	31.23
594.887	31.25
595.224	31.3
595.561	30.97
595.899	31.55
596.236	31.53
596.573	31.29
596.91	31.46
597.247	31.76
597.584	31.57
597.921	31.43
598.258	31.27
598.594	31.18
598.931	31.12
599.268	31.25
599.604	31.42
599.941	31.43
600.277	31.75
600.614	31.94
600.95	31.78
601.287	32.02
601.623	31.87
601.959	32.37
602.296	32.15
602.632	32.14
602.968	32.49
603.304	32.47
603.64	32.17
603.976	32.1
604.312	32.33
604.648	32.43
604.984	32.12
605.319	32.24
605.655	31.97
605.991	32.02
606.326	32.13
606.662	32.03
606.998	32.38
607.333	32.36
607.668	32.47
608.004	32.51
608.339	32.42
608.674	32.89
609.01	33.02
609.345	32.72
609.68	32.44
610.015	32.81
610.35	32.83
610.685	32.78
611.02	32.63
611.355	32.95
611.689	33.06
612.024	32.89
612.359	33.2
612.694	33.44
613.028	33.25
613.363	33.26
613.697	33.54
614.032	33.53
614.366	33.71
614.7	33.7
615.035	33.72
615.369	33.89
615.703	33.59
616.037	33.53
616.371	33.75
616.705	34.13
617.039	33.99
617.373	34.07
617.707	34.33
618.041	34
618.375	33.72
618.709	34.17
619.042	34.08
619.376	34.25
619.71	34.18
620.043	34.32
620.377	34.36
620.71	34.37
621.043	34.4
621.377	34.48
621.71	34.69
622.043	34.69
622.376	34.64
622.709	34.72
623.043	34.31
623.376	34.79
623.709	34.86
624.041	34.53
624.374	34.75
624.707	34.66
625.04	34.83
625.373	35.06
625.705	35.15
626.038	35.41
626.37	35.24
626.703	34.81
627.035	35.02
627.368	35.36
627.7	35.3
628.032	34.83
628.365	35.44
628.697	35.54
629.029	35.28
629.361	35.14
629.693	35.33
630.025	35.69
630.357	35.14
630.689	35.01
631.021	35.54
631.353	35.51
631.684	35.5
632.016	35.22
632.348	35.68
632.679	35.68
633.011	35.94
633.342	35.5
633.674	35.79
634.005	36.09
634.336	35.84
634.668	35.88
634.999	35.8
635.33	36.14
635.661	35.73
635.992	35.97
636.323	36.2
636.654	36.24
636.985	36.02
637.316	35.93
637.647	36.2
637.977	36.54
638.308	36.84
638.639	36.18
638.969	36.28
639.3	36.49
639.63	36.93
639.961	36.63
640.291	36.78
640.622	37.03
640.952	37.29
641.282	36.53
641.612	36.72
641.943	36.79
642.273	36.88
642.603	37.03
642.933	37.31
643.263	37.18
643.592	37.12
643.922	37.79
644.252	37.16
644.582	37.41
644.911	37.37
645.241	37.09
645.571	37.25
645.9	37.68
646.23	37.5
646.559	37.29
646.888	37.51
647.218	36.88
647.547	37.48
647.876	37.68
648.205	37.22
648.534	37.52
648.863	37.94
649.192	38
649.521	38.12
649.85	38.26
650.179	37.95
650.508	38.49
650.837	38.05
651.165	38.53
651.494	38.11
651.822	38.05
652.151	37.94
652.479	37.62
652.808	38.78
653.136	37.84
653.465	38.84
653.793	38.68
654.121	37.83
654.449	38.84
654.777	38.33
655.105	38.22
655.433	39.06
655.761	38.69
656.089	38.93
656.417	38.53
656.745	38.98
657.073	38.59
657.4	39.03
657.728	38.34
658.056	38.86
658.383	39.46
658.711	38.21
659.038	39.31
659.365	39.25
659.693	38.79
660.02	39.06
660.347	38.73
660.674	38.66
661.001	38.96
661.329	38.99
661.656	38.93
661.982	39.1
662.309	39.26
662.636	39.41
662.963	39.73
663.29	39.68
663.616	39.66
663.943	40.44
664.27	39.6
664.596	38.97
664.923	40.03
665.249	39.78
665.576	40.27
665.902	40.5
666.228	40.15
666.554	39.94
666.881	39.88
667.207	40.52
667.533	40.2
667.859	40.09
668.185	40.17
668.511	40.6
668.837	40.54
669.162	40.57
669.488	39.95
669.814	40.44
670.139	40.14
670.465	40.16
670.791	40.79
671.116	40.14
671.442	40.23
671.767	40.81
672.092	39.99
672.418	41.69
672.743	40.25
673.068	40.88
673.393	40.49
673.718	40.41
674.043	40.54
674.368	40.32
674.693	40.91
675.018	40.76
675.343	41.76
675.667	40.83
675.992	41.24
676.317	40.85
676.641	41.09
676.966	41.02
677.29	41.32
677.615	41.38
677.939	41.77
678.264	41.46
678.588	41.19
678.912	41
679.236	41.57
679.56	42.02
679.885	41.21
680.209	41.36
680.532	41.84
680.856	41.67
681.18	42.14
681.504	41.44
681.828	41.98
682.152	41.71
682.475	41.61
682.799	41.89
683.122	41.63
683.446	41.95
683.769	43
684.093	42.12
684.416	42.04
684.739	41.93
685.062	42.09
685.386	42.17
685.709	42.38
686.032	42.45
686.355	42.6
686.678	42.58
687.001	42.61
687.324	42.36
687.646	42.95
687.969	42.76
688.292	42.72
688.614	43.07
688.937	43.08
689.26	43.19
689.582	43.24
689.904	43.31
690.227	43.16
690.549	42.7
690.871	42.58
691.194	42.94
691.516	42.32
691.838	43.15
692.16	42.22
692.482	42.53
692.804	43.33
693.126	42.46
693.448	42.65
693.769	43.01
694.091	43.22
694.413	43.53
694.735	43.11
695.056	42.74
695.378	44.27
695.699	43.24
696.021	43.06
696.342	43.33
696.663	43.71
696.984	43.42
697.306	42.41
697.627	43.8
697.948	43.07
698.269	43.68
698.59	44.7
698.911	42.88
699.232	44.18
699.553	43.96
699.873	43.55
700.194	43.11
700.515	43.6
700.835	43.78
701.156	44.01
701.477	43.45
701.797	43.8
702.117	44.11
702.438	44.62
702.758	43.51
703.078	44.16
703.398	43.49
703.719	44.03
704.039	44.66
704.359	44.09
704.679	43.93
704.999	44.43
705.319	44.37
705.638	44.64
705.958	44.91
706.278	44.19
706.597	44
706.917	45.23
707.237	44.37
707.556	44.88
707.876	44.78
708.195	44.67
708.514	45.25
708.834	44.28
709.153	44.38
709.472	45.11
709.791	44.62
710.11	44.44
710.429	45.51
710.748	44.67
711.067	45.43
711.386	45.12
711.705	45.47
712.023	45.1
712.342	45.53
712.661	44.41
712.979	45.67
713.298	44.79
713.616	44.73
713.935	45.2
714.253	45.84
714.572	45.28
714.89	45.98
715.208	45.24
715.526	45.36
715.844	45.23
716.162	45.29
716.48	46.26
716.798	45.41
717.116	45.12
717.434	45.48
717.752	44.82
718.069	46.31
718.387	45.29
718.705	44.99
719.022	45.29
719.34	44.84
719.657	47.03
719.975	45.77
720.292	45.61
720.609	44.89
720.927	46.54
721.244	46.73
721.561	45
721.878	44.83
722.195	46.63
722.512	46.21
722.829	46.09
723.146	46.6
723.463	45.74
723.779	45.77
724.096	45.76
724.413	46.89
724.729	45.77
725.046	46.71
725.362	47.11
725.679	46.44
725.995	46.71
726.311	46.38
726.628	46.73
726.944	46.43
727.26	45.67
727.576	47.06
727.892	47.21
728.208	47.29
728.524	46.17
728.84	46.21
729.156	46.01
729.472	47.2
729.787	47.01
730.103	46.38
730.419	46.43
730.734	46.59
731.05	45.84
731.365	47.12
731.681	47.18
731.996	48.05
732.311	47.84
732.626	46.68
732.942	47.65
733.257	47.32
733.572	47.74
733.887	47.22
734.202	48.04
734.517	48.28
734.832	47.53
735.146	46.79
735.461	46.64
735.776	49.64
736.091	47.83
736.405	47.79
736.72	47.43
737.034	49.09
737.349	47.32
737.663	49.06
737.977	48
738.292	47.77
738.606	48.37
738.92	47.53
739.234	48.05
739.548	48.23
739.862	47.7
740.176	48.08
740.49	47.09
740.804	48.63
741.117	48.19
741.431	47.74
741.745	47.4
742.058	48.27
742.372	47.51
742.685	48.17
742.999	47.4
743.312	49.45
743.626	47.6
743.939	48.71
744.252	48.58
744.565	47.63
744.878	48.58
745.191	48.07
745.505	49.23
745.817	48.16
746.13	48.94
746.443	48.3
746.756	48.28
747.069	51.11
747.381	48.4
747.694	49.36
748.007	48.04
748.319	47.55
748.632	48.16
748.944	49.55
749.256	48.91
749.569	50.76
749.881	48.35
750.193	48.52
750.505	49.54
750.817	48.5
751.129	47.91
751.441	49.33
751.753	49.84
752.065	50.05
752.377	49.48
752.689	47.87
753	50.94
753.312	48.86
753.624	49.73
753.935	47.99
754.247	48.84
754.558	48.14
754.869	50.18
755.181	48.96
755.492	51.02
755.803	49.47
756.114	50.9
756.425	49.01
756.736	50.89
757.047	48.88
757.358	48.55
757.669	49.76
757.98	49.75
758.291	50.89
758.601	49.26
758.912	49.38
759.223	49.76
759.533	50.75
759.844	48.88
760.154	48.39
760.464	49.25
760.775	50.8
761.085	51
761.395	48.98
761.705	50.59
762.016	49.02
762.326	49.25
762.636	50.27
762.945	50.14
763.255	49.81
763.565	50.29
763.875	48.74
764.185	50.06
764.494	49.45
764.804	50.13
765.113	48.99
765.423	51.59
765.732	50.89
766.042	51.91
766.351	50.71
766.66	51.33
766.97	49.74
767.279	50.74
767.588	50.18
767.897	50.75
768.206	51.09
768.515	50.05
768.824	50.52
769.133	49.23
769.441	49.4
769.75	50.43
770.059	49.95
770.367	47.95
770.676	50.32
770.984	48.09
771.293	49.88
771.601	48.16
771.91	48.97
772.218	49.44
772.526	47.45
772.834	49.36
773.142	50
773.45	52.22
773.758	51.55
774.066	50.71
774.374	50.66
774.682	50.87
774.99	49.11
775.298	46.56
775.605	49.69
775.913	48.52
776.22	51.03
776.528	51.22
776.835	48.61
777.143	54.08
777.45	52.85
777.757	50.21
778.065	48.4
778.372	49.94
778.679	54.86
778.986	54.05
779.293	48.11
779.6	50.72
779.907	49.63
780.214	53.21
780.52	52.09
780.827	49.43
781.134	51.46
781.44	54.78
781.747	50
782.053	51.69
782.36	51.92
782.666	50.86
782.973	49.88
783.279	53.55
783.585	53.43
783.891	51.61
784.197	51.93
784.503	51.71
784.809	54.2
785.115	49.25
785.421	52.22
785.727	52.07
786.033	50.69
786.339	55.33
786.644	51.82
786.95	51.89
787.255	46.88
787.561	49.22
787.866	49.47
788.172	50.33
788.477	51.53
788.782	47.83
789.088	47.83
789.393	50.43
789.698	49.04
790.003	50.43
790.308	53.97
790.613	56.45
790.918	50.9
791.223	54.13
791.527	54.15
791.832	52.58
792.137	56.29
792.441	49.04
792.746	52.84
793.05	51.02
793.355	46.56
793.659	52.53
793.963	51.39
794.268	54.45
794.572	52.1
794.876	54.19
795.18	53.48
795.484	53.31
795.788	57.85
796.092	50.33
796.396	48.77
796.7	51.26
797.004	47.48
797.307	50.07
797.611	56.01
797.915	51.41
798.218	49.5
798.522	48.61
798.825	58.34
799.128	53.45
799.432	50.51
799.735	52.09
800.038	53.66
800.341	51.72
800.644	52.76
800.947	47.99
801.25	51.94
801.553	52.88
801.856	55.87
802.159	48.17
802.462	49.65
802.764	50.67
803.067	54.53
803.37	53.59
803.672	52.23
803.975	48.9
804.277	49.38
804.579	51.38
804.882	51.49
805.184	52.2
805.486	54.54
805.788	54.39
806.09	49.83
806.392	51.89
806.694	52.72
806.996	55.64
807.298	49.05
807.6	55.59
807.902	51.46
808.203	44.99
808.505	53.84
808.807	53.74
809.108	53.39
809.409	51.29
809.711	52.99
810.012	54.51
810.313	52.88
810.615	57.92
810.916	51.22
811.217	50.16
811.518	51.07
811.819	55.71
812.12	54.71
812.421	45.71
812.722	48.64
813.023	49.98
813.323	54.47
813.624	52.71
813.925	50.34
814.225	55.53
814.526	47.33
814.826	51.82
815.126	55.66
815.427	48.5
815.727	44.99
816.027	56.48
816.327	51.28
816.627	48.26
816.927	49.32
817.227	49.32
817.527	56.01
817.827	57.08
818.127	49.83
818.427	50.75
818.727	48.24
819.026	47.14
819.326	57.16
819.625	54.88
819.925	52.4
820.224	55.43
820.524	55.86
820.823	57.92
821.122	52.58
821.421	46.31
821.72	50.45
822.019	52
822.318	52.71
822.617	59.12
822.916	53.62
823.215	52.51
823.514	52.63
823.813	53.84
824.111	55.84
824.41	54.97
824.709	55.23
825.007	54.9
825.306	55.39
825.604	54.4
825.902	55.11
826.201	54.85
826.499	54.7
826.797	54.99
827.095	55.36
827.393	55.44
827.691	55.17
827.989	56.64
828.287	53.21
828.585	53.12
828.882	53.02
829.18	53.81
829.478	56.47
829.775	55.08
830.073	55.97
830.37	54.26
830.668	58.39
830.965	55.1
831.263	52.78
831.56	54.03
831.857	54.55
832.154	57.65
832.451	57.55
832.748	52.43
833.045	56.18
833.342	50.05
833.639	53.22
833.936	52.37
834.232	52.9
834.529	54.04
834.826	56.85
835.122	47.99
835.419	55.19
835.715	58.26
836.012	56.63
836.308	55.29
836.604	53.58
836.901	54.71
837.197	54.81
837.493	55.56
837.789	54.2
838.085	53.75
838.381	56.87
838.677	56.76
838.972	50.15
839.268	54.56
839.564	59.54
839.86	53.03
840.155	58.36
840.451	58.38
840.746	51.59
841.042	49
841.337	48.47
841.632	54.54
841.928	56.54
842.223	47.04
842.518	52.48
842.813	57.9
843.108	56.55
843.403	62.09
843.698	52.82
843.993	64.48
844.287	49.33
844.582	58.84
844.877	51.12
845.171	61.93
845.466	57.33
845.761	48.53
846.055	56.81
846.349	46.93
846.644	61.15
846.938	54.9
847.232	43.52
847.526	61.84
847.82	57.04
848.114	60.83
848.408	67.88
848.702	59.86
848.996	62.57
849.29	67.05
849.584	59.3
849.877	55.48
850.171	55
850.465	63
850.758	54.67
851.052	47.36
851.345	48.99
851.638	55.25
851.932	77.45
852.225	54.48
852.518	48.69
852.811	49.31
853.104	47.97
853.397	69.76
853.69	60.25
853.983	40.67
854.276	45.9
854.569	51.35
854.861	43.16
855.154	70.36
855.447	71.19
855.739	33.42
856.032	44.96
856.324	74.4
856.616	47.52
856.909	50.74
857.201	78.37
857.493	50.27
857.785	56.19
858.077	69.99
858.369	51.62
858.661	51.45
858.953	47.22
859.245	45.34
859.537	65.22
859.829	34.63
860.12	50.99
860.412	74.01
860.703	40.33
860.995	81.11
861.286	66.38
861.578	49.32
861.869	39.29
862.16	52.22
862.452	26.12
862.743	39.17
863.034	58.4
863.325	40.3
863.616	43.4
863.907	49.08
864.198	36.9
864.488	39.07
864.779	54.89
865.07	50.71
865.36	51.28
865.651	44.66
865.941	51.89
866.232	64.87
866.522	74.79
866.813	59.86
867.103	38.89
867.393	66.93
867.683	38.29
867.973	49.01
868.263	65.13
868.553	44.41
868.843	46.93
869.133	54.25
869.423	76.46
869.713	70.57
870.002	47.95
870.292	58.01
870.582	65.71
870.871	46.46
871.161	40.28
871.45	73.28
871.739	77.41
872.029	75.26
872.318	60.33
872.607	79.91
872.896	51.63
873.185	50.4
873.474	28.61
873.763	63.45
874.052	75.57
874.341	48.28
874.63	56.74
874.918	75.01
875.207	32.24
875.496	73.16
875.784	36.36
876.073	60.11
876.361	54.97
876.649	38.99
876.938	50.29
877.226	79.96
877.514	45.9
877.802	44.85
878.09	51.17
878.378	95.33
878.666	58.25
878.954	57.6
879.242	57.4
879.53	52.61
879.817	27.46
880.105	66.08
880.392	83.14
880.68	58.49
880.967	21.17
881.255	52
881.542	51.37
881.83	70.82
882.117	40.72
882.404	75.96
882.691	81.46
882.978	70.93
883.265	54.53
883.552	59.12
883.839	53.97
884.126	57.12
884.413	59.33
884.699	54.63
884.986	61.36
885.273	61.35
885.559	61.35
885.846	61.35
