Data from 21-7_forehead_Reflection__0__130.txt Node

Date: Thu Dec 15 17:30:17 CST 2022
User: ToomeyLab
Spectrometer: FLMS14357
Trigger mode: 0
Integration Time (sec): 1.000000E-2
Scans to average: 100
Electric dark correction enabled: true
Nonlinearity correction enabled: false
Boxcar width: 0
XAxis mode: Wavelengths
Number of Pixels in Spectrum: 2048
>>>>>Begin Spectral Data<<<<<
189.047	128.45
189.435	128.45
189.823	128.45
190.211	-158.14
190.599	-7.01
190.987	235.09
191.375	54.07
191.763	45.49
192.151	-794.08
192.538	188.69
192.926	283.02
193.314	24.91
193.702	-141.27
194.089	-31.55
194.477	263.58
194.864	-1229.03
195.252	26.29
195.639	94.89
196.027	-118.17
196.414	-16.64
196.801	389.23
197.189	90.94
197.576	-116.15
197.963	162.4
198.351	29.57
198.738	-37.84
199.125	-72.13
199.512	81
199.899	-101.19
200.286	-12.31
200.673	34.12
201.06	3.79
201.447	-28.46
201.833	-2.02
202.22	17.08
202.607	44.03
202.994	20.74
203.38	24.58
203.767	25.44
204.154	51.32
204.54	48.61
204.927	25.14
205.313	42.39
205.699	37.36
206.086	35.95
206.472	7.23
206.858	18.08
207.245	-44.17
207.631	12.04
208.017	51.18
208.403	-116.99
208.789	34.23
209.175	2.04
209.561	-110.86
209.947	24.96
210.333	-33.84
210.719	11.49
211.105	8.72
211.491	95.27
211.876	-2.07
212.262	8.34
212.648	12.91
213.034	-1.88
213.419	17.52
213.805	-6.64
214.19	15.58
214.576	-13.99
214.961	10.14
215.346	14.12
215.732	8.47
216.117	1.97
216.502	-26.53
216.888	14.64
217.273	13.3
217.658	25.45
218.043	-19.38
218.428	5.28
218.813	17.68
219.198	-57.87
219.583	-5.34
219.968	-6.35
220.353	-20.97
220.738	7.34
221.122	7.11
221.507	-0.19
221.892	-12.14
222.276	-26.21
222.661	-7.04
223.046	-2.66
223.43	7.14
223.815	7.83
224.199	6.96
224.583	1.22
224.968	0.9
225.352	-4.92
225.736	5.75
226.121	1.84
226.505	1
226.889	4.87
227.273	2.21
227.657	4.18
228.041	3.82
228.425	4.89
228.809	-1.45
229.193	1.18
229.577	1.52
229.961	3.12
230.344	2.4
230.728	3.51
231.112	3.74
231.495	2.16
231.879	4.02
232.263	3.63
232.646	1.62
233.03	4.43
233.413	3.5
233.797	1.96
234.18	1.78
234.563	5.05
234.946	2.73
235.33	2.64
235.713	3.47
236.096	4.18
236.479	2.82
236.862	2.26
237.245	1.4
237.628	3.34
238.011	2.7
238.394	1.93
238.777	2.76
239.16	5.8
239.543	5.64
239.925	3.49
240.308	2.31
240.691	3.7
241.073	2.27
241.456	4.06
241.838	2.44
242.221	2.71
242.603	3.47
242.986	3.3
243.368	3.38
243.75	3.63
244.133	3.63
244.515	3.64
244.897	3.39
245.279	3.37
245.661	3.81
246.043	3.7
246.425	3.49
246.807	3.72
247.189	3.98
247.571	3.56
247.953	3.33
248.335	3.53
248.717	3.64
249.098	3.45
249.48	3.12
249.862	3.8
250.243	3.71
250.625	3.66
251.006	4.3
251.388	3.29
251.769	2.54
252.151	3.45
252.532	3.44
252.913	3.25
253.295	2.64
253.676	3.46
254.057	3.25
254.438	3.3
254.819	3.23
255.2	3.39
255.581	3.6
255.962	5.06
256.343	4.4
256.724	3.63
257.105	3.45
257.486	2.77
257.867	2.15
258.247	3.4
258.628	3.39
259.009	3.47
259.389	3.05
259.77	2.86
260.15	4.11
260.531	3.58
260.911	3.21
261.292	3.47
261.672	3.54
262.052	3.51
262.432	3.31
262.813	3.29
263.193	3.97
263.573	4.12
263.953	3.21
264.333	3.59
264.713	3.58
265.093	3.73
265.473	3.32
265.853	2.69
266.233	3.43
266.612	3.82
266.992	3.21
267.372	3.34
267.752	3.97
268.131	3.31
268.511	3.24
268.89	4.01
269.27	3.04
269.649	3
270.029	3.21
270.408	3.78
270.787	3.39
271.167	3.03
271.546	3.83
271.925	3.39
272.304	3.31
272.683	3.13
273.062	3.18
273.441	3.09
273.82	2.91
274.199	3.15
274.578	3.21
274.957	3.07
275.336	3.47
275.715	3.67
276.093	2.4
276.472	2.91
276.851	3.07
277.229	3.21
277.608	2.88
277.986	3.11
278.365	3.88
278.743	3.41
279.122	2.65
279.5	2.98
279.878	3
280.257	3.48
280.635	3.21
281.013	2.86
281.391	3.28
281.769	3.5
282.147	3.35
282.525	3.21
282.903	2.62
283.281	3.76
283.659	3.36
284.037	3.24
284.415	3.08
284.792	3.53
285.17	3.49
285.548	3.13
285.925	3.29
286.303	3.57
286.68	3.28
287.058	3.85
287.435	3.38
287.813	3.58
288.19	3.16
288.567	3.29
288.945	2.98
289.322	3.53
289.699	3.8
290.076	3.48
290.453	3.17
290.83	3.62
291.207	3.37
291.584	3.97
291.961	3.7
292.338	3.84
292.715	3.51
293.092	3.93
293.469	3.81
293.845	3.71
294.222	4.31
294.599	3.65
294.975	3.6
295.352	4.02
295.728	4.02
296.105	3.87
296.481	4.23
296.858	3.91
297.234	3.48
297.61	4.32
297.986	4.83
298.363	4.42
298.739	4.72
299.115	4.35
299.491	4.55
299.867	4.15
300.243	4.82
300.619	4.33
300.995	4.17
301.371	4.68
301.746	4.95
302.122	4.3
302.498	4.14
302.874	5.07
303.249	4.59
303.625	4.28
304	5.25
304.376	5.23
304.751	4.94
305.127	4.59
305.502	5.1
305.878	5.65
306.253	5.33
306.628	5.23
307.003	5.2
307.378	5
307.754	5.33
308.129	5.25
308.504	6.01
308.879	5.85
309.254	5.52
309.629	5.68
310.003	5.58
310.378	6.02
310.753	5.99
311.128	5.39
311.502	5.93
311.877	5.72
312.252	6.07
312.626	6.41
313.001	6.07
313.375	6.53
313.75	6.21
314.124	6.54
314.498	6.2
314.873	6.48
315.247	6.32
315.621	6.25
315.995	6.48
316.369	6.17
316.743	6.29
317.117	6.53
317.491	6.79
317.865	6.54
318.239	7.53
318.613	6.85
318.987	6.19
319.361	6.44
319.734	6.92
320.108	7.53
320.482	6.9
320.855	6.81
321.229	6.85
321.602	7.23
321.976	6.66
322.349	7.53
322.723	7.75
323.096	7.52
323.469	7.19
323.843	7.6
324.216	7.82
324.589	7.61
324.962	7.3
325.335	7.46
325.708	7.45
326.081	7.62
326.454	7.91
326.827	7.56
327.2	7.36
327.573	8.03
327.945	7.47
328.318	7.52
328.691	7.79
329.063	7.73
329.436	7.49
329.809	8.07
330.181	8.09
330.553	8.61
330.926	8.66
331.298	7.95
331.671	8.29
332.043	8.25
332.415	7.75
332.787	8.42
333.159	7.46
333.532	7.97
333.904	8.57
334.276	8.44
334.648	8.56
335.02	8.24
335.391	8.07
335.763	8.6
336.135	8.29
336.507	8.34
336.879	8.41
337.25	8.46
337.622	8.9
337.993	8.54
338.365	8.47
338.736	8.23
339.108	8.46
339.479	8.32
339.851	9.27
340.222	9
340.593	8.07
340.964	8.41
341.336	8.53
341.707	8.75
342.078	8.47
342.449	9.28
342.82	8.91
343.191	8.84
343.562	8.77
343.933	8.58
344.303	9.32
344.674	8.82
345.045	8.74
345.416	9.46
345.786	9.1
346.157	8.96
346.527	9.05
346.898	8.87
347.268	8.85
347.639	9.35
348.009	9.08
348.38	9.05
348.75	9.32
349.12	9.47
349.49	9.29
349.861	9.13
350.231	9.73
350.601	9.85
350.971	9.84
351.341	9.44
351.711	9.25
352.081	9.31
352.45	9.16
352.82	8.9
353.19	9.42
353.56	9.08
353.929	9.57
354.299	9.73
354.669	9.58
355.038	9.8
355.408	9.65
355.777	9.74
356.147	9.55
356.516	9.56
356.885	9.52
357.254	9.7
357.624	9.65
357.993	9.7
358.362	9.81
358.731	9.91
359.1	9.79
359.469	9.99
359.838	10.16
360.207	9.79
360.576	10.01
360.945	10.26
361.314	9.82
361.682	9.96
362.051	9.75
362.42	10.04
362.788	10.09
363.157	9.88
363.525	10.17
363.894	9.77
364.262	10.07
364.631	10.38
364.999	10.37
365.367	10.27
365.735	9.94
366.104	9.99
366.472	10.42
366.84	10.42
367.208	10.53
367.576	10.63
367.944	10.54
368.312	10.51
368.68	10.64
369.048	10.41
369.416	10.49
369.783	10.71
370.151	11.26
370.519	10.99
370.886	10.76
371.254	10.49
371.621	10.98
371.989	11
372.356	10.61
372.724	10.56
373.091	10.6
373.458	10.81
373.826	11.11
374.193	10.68
374.56	10.7
374.927	10.74
375.294	11.02
375.661	11.21
376.028	11.08
376.395	11.21
376.762	10.86
377.129	11.05
377.496	11.08
377.863	11.2
378.229	11.16
378.596	11.4
378.963	11.28
379.329	11.29
379.696	10.97
380.062	11.28
380.429	11.03
380.795	11.47
381.161	11.24
381.528	11.12
381.894	11.36
382.26	11.7
382.626	11.65
382.993	11.76
383.359	11.52
383.725	11.31
384.091	11.42
384.457	11.47
384.823	11.74
385.188	11.54
385.554	11.81
385.92	11.43
386.286	11.83
386.651	11.44
387.017	11.7
387.383	11.8
387.748	11.83
388.114	11.76
388.479	11.85
388.845	11.58
389.21	11.8
389.575	12.13
389.94	11.97
390.306	12
390.671	12.05
391.036	11.94
391.401	12
391.766	11.89
392.131	12.1
392.496	12.2
392.861	12.01
393.226	11.91
393.591	12.01
393.956	12.25
394.32	12.33
394.685	12.24
395.05	12.13
395.414	12.32
395.779	12.53
396.143	12.11
396.508	12.04
396.872	12.26
397.236	12.45
397.601	12.24
397.965	12.26
398.329	12.29
398.694	12.23
399.058	12.45
399.422	12.5
399.786	12.33
400.15	12.46
400.514	12.58
400.878	12.52
401.242	12.61
401.605	12.55
401.969	12.14
402.333	12.4
402.697	12.81
403.06	12.73
403.424	12.46
403.787	12.77
404.151	12.8
404.514	12.69
404.878	12.55
405.241	12.64
405.604	12.52
405.968	12.64
406.331	12.56
406.694	12.83
407.057	12.65
407.42	12.67
407.783	12.77
408.146	12.8
408.509	12.79
408.872	12.82
409.235	13.01
409.598	12.83
409.961	12.8
410.323	12.69
410.686	12.99
411.049	12.91
411.411	12.96
411.774	12.93
412.136	13
412.499	13.15
412.861	12.95
413.223	13.06
413.586	13.13
413.948	13.3
414.31	13.34
414.672	13.34
415.035	13.48
415.397	13.27
415.759	13.08
416.121	13.39
416.483	13.27
416.845	13.11
417.206	13.36
417.568	13.1
417.93	13.33
418.292	13.24
418.653	13.13
419.015	13.32
419.377	13.5
419.738	13.25
420.1	13.27
420.461	13.24
420.822	13.49
421.184	13.37
421.545	13.47
421.906	13.47
422.267	13.44
422.629	13.33
422.99	13.4
423.351	13.53
423.712	13.55
424.073	13.72
424.434	13.72
424.795	13.62
425.155	13.68
425.516	13.56
425.877	13.65
426.238	13.76
426.598	13.86
426.959	13.96
427.32	13.93
427.68	14.15
428.041	14.24
428.401	14.13
428.761	14.28
429.122	14.42
429.482	14.4
429.842	14.5
430.202	14.59
430.563	14.47
430.923	14.6
431.283	14.6
431.643	14.51
432.003	14.6
432.363	14.75
432.722	14.87
433.082	14.72
433.442	14.87
433.802	14.74
434.161	14.73
434.521	14.68
434.881	14.79
435.24	14.71
435.6	14.6
435.959	14.78
436.319	14.98
436.678	15.04
437.037	14.95
437.396	15.2
437.756	15.04
438.115	14.97
438.474	15.27
438.833	15.07
439.192	15.3
439.551	15.16
439.91	15.23
440.269	15.33
440.628	15.35
440.987	15.3
441.345	15.23
441.704	15.28
442.063	15.23
442.421	15.22
442.78	15.33
443.138	15.49
443.497	15.5
443.855	15.63
444.214	15.41
444.572	15.74
444.93	15.6
445.288	15.84
445.647	15.48
446.005	15.51
446.363	15.8
446.721	15.64
447.079	15.65
447.437	15.66
447.795	15.57
448.153	15.53
448.51	15.68
448.868	15.66
449.226	15.83
449.584	15.97
449.941	16.03
450.299	16.01
450.656	16.06
451.014	16.15
451.371	16.27
451.729	16.29
452.086	16.29
452.443	16.42
452.801	16.41
453.158	16.56
453.515	16.28
453.872	16.51
454.229	16.43
454.586	16.49
454.943	16.55
455.3	16.38
455.657	16.54
456.014	16.68
456.371	16.85
456.727	16.87
457.084	16.91
457.441	16.8
457.797	16.91
458.154	16.76
458.51	16.79
458.867	16.94
459.223	16.91
459.58	16.98
459.936	16.87
460.292	16.88
460.648	16.78
461.005	16.71
461.361	16.58
461.717	16.54
462.073	16.88
462.429	16.98
462.785	17.2
463.141	17.18
463.496	17.41
463.852	17.54
464.208	17.24
464.564	17.41
464.919	17.35
465.275	17.31
465.631	17.66
465.986	17.44
466.342	17.54
466.697	17.52
467.052	17.65
467.408	17.71
467.763	17.59
468.118	17.67
468.473	17.78
468.829	17.62
469.184	17.68
469.539	17.64
469.894	18.07
470.249	17.86
470.603	17.92
470.958	17.88
471.313	18.03
471.668	18.19
472.023	18.19
472.377	18.17
472.732	18.1
473.086	17.99
473.441	18.11
473.795	18.32
474.15	18.25
474.504	18.05
474.859	18.08
475.213	18.31
475.567	18.38
475.921	18.45
476.275	18.43
476.63	18.36
476.984	18.43
477.338	18.42
477.692	18.34
478.045	18.52
478.399	18.31
478.753	18.44
479.107	18.64
479.461	18.47
479.814	18.66
480.168	18.55
480.521	18.61
480.875	18.66
481.228	18.86
481.582	18.56
481.935	18.85
482.289	18.69
482.642	18.65
482.995	18.65
483.348	18.58
483.701	18.62
484.055	18.43
484.408	18.4
484.761	18.11
485.114	17.77
485.466	17.73
485.819	17.89
486.172	18.13
486.525	18.42
486.878	18.58
487.23	18.67
487.583	18.68
487.936	18.68
488.288	18.57
488.641	18.32
488.993	18.26
489.345	18.34
489.698	18.35
490.05	18.56
490.402	18.73
490.754	18.89
491.107	19.1
491.459	19.12
491.811	19.27
492.163	19.16
492.515	18.94
492.866	18.76
493.218	18.64
493.57	18.79
493.922	19
494.274	19.25
494.625	19.47
494.977	19.68
495.328	19.73
495.68	19.7
496.031	19.85
496.383	19.91
496.734	19.73
497.086	20.01
497.437	20
497.788	19.97
498.139	19.75
498.49	19.76
498.842	19.8
499.193	19.92
499.544	19.82
499.894	20
500.245	20.12
500.596	20.26
500.947	20.15
501.298	20.15
501.648	20.25
501.999	20.41
502.35	20.36
502.7	20.46
503.051	20.5
503.401	20.58
503.752	20.65
504.102	20.68
504.452	20.56
504.803	20.55
505.153	20.68
505.503	20.67
505.853	20.67
506.203	20.65
506.553	20.58
506.903	20.8
507.253	20.73
507.603	20.9
507.953	20.9
508.303	20.77
508.652	20.76
509.002	20.88
509.352	20.87
509.701	20.86
510.051	20.89
510.4	20.94
510.75	20.97
511.099	20.8
511.449	21.02
511.798	20.97
512.147	21.15
512.496	21.18
512.846	21.06
513.195	21.15
513.544	21.25
513.893	21.02
514.242	21.15
514.591	21.21
514.939	21.4
515.288	21.43
515.637	21.41
515.986	21.44
516.334	21.47
516.683	21.63
517.032	21.52
517.38	21.51
517.729	21.66
518.077	21.65
518.426	21.56
518.774	21.53
519.122	21.59
519.47	21.44
519.819	21.3
520.167	21.22
520.515	21.44
520.863	21.51
521.211	21.64
521.559	21.74
521.907	21.8
522.255	21.85
522.602	21.93
522.95	22.02
523.298	22.05
523.645	22.26
523.993	22.32
524.341	22.27
524.688	22.14
525.036	22.11
525.383	22.15
525.73	22.1
526.078	22.25
526.425	21.98
526.772	22
527.119	21.9
527.466	21.88
527.814	21.87
528.161	22.12
528.508	22.21
528.854	22.2
529.201	21.96
529.548	21.8
529.895	21.46
530.242	21.41
530.588	21.56
530.935	21.85
531.282	22.01
531.628	22.22
531.975	22.33
532.321	22.49
532.667	22.56
533.014	22.71
533.36	22.61
533.706	22.61
534.052	22.56
534.399	22.29
534.745	22.04
535.091	22.16
535.437	22.36
535.783	22.48
536.129	22.79
536.474	22.97
536.82	23.1
537.166	23.01
537.512	22.98
537.857	22.92
538.203	22.78
538.549	22.8
538.894	22.95
539.239	23.27
539.585	23.3
539.93	23.38
540.276	23.62
540.621	23.56
540.966	23.49
541.311	23.46
541.656	23.32
542.001	23.21
542.346	23.02
542.691	22.72
543.036	22.55
543.381	22.72
543.726	23.03
544.071	23.21
544.415	23.4
544.76	23.3
545.105	23.4
545.449	23.67
545.794	23.87
546.138	23.81
546.483	24.07
546.827	23.97
547.171	23.89
547.516	24.05
547.86	23.94
548.204	23.82
548.548	23.88
548.892	23.88
549.236	24.08
549.58	24.27
549.924	24.31
550.268	24.69
550.612	24.64
550.956	24.72
551.3	24.9
551.643	24.61
551.987	24.91
552.33	25.12
552.674	24.65
553.017	24.76
553.361	24.98
553.704	24.62
554.048	24.81
554.391	24.79
554.734	24.72
555.077	24.96
555.42	24.84
555.764	24.98
556.107	25.18
556.45	25.25
556.793	25.27
557.135	25.36
557.478	25.17
557.821	25.45
558.164	25.37
558.507	25.24
558.849	25.54
559.192	25.49
559.534	25.5
559.877	25.51
560.219	25.49
560.562	25.74
560.904	25.79
561.246	25.68
561.589	25.67
561.931	25.8
562.273	25.81
562.615	25.57
562.957	25.68
563.299	25.79
563.641	25.86
563.983	25.75
564.325	25.92
564.667	25.7
565.008	25.97
565.35	25.81
565.692	26.05
566.033	25.87
566.375	25.95
566.716	25.83
567.058	25.98
567.399	25.94
567.741	25.78
568.082	26.04
568.423	25.77
568.764	25.97
569.105	26
569.447	26.29
569.788	26.22
570.129	26.16
570.47	26.34
570.811	26.27
571.151	26.28
571.492	26.5
571.833	26.49
572.174	26.59
572.514	26.47
572.855	26.52
573.195	26.25
573.536	26.6
573.876	26.41
574.217	26.44
574.557	26.37
574.898	26.46
575.238	26.76
575.578	26.82
575.918	26.85
576.258	27.05
576.598	26.67
576.938	26.83
577.278	26.77
577.618	27.11
577.958	27.07
578.298	27.17
578.638	27.06
578.977	27.43
579.317	27.22
579.657	27.24
579.996	27.42
580.336	27.54
580.675	27.37
581.014	27.5
581.354	27.43
581.693	27.4
582.032	27.89
582.372	27.69
582.711	27.77
583.05	27.86
583.389	27.8
583.728	27.96
584.067	27.85
584.406	28.03
584.745	27.95
585.083	27.91
585.422	28.19
585.761	28.18
586.1	27.99
586.438	28
586.777	27.91
587.115	28.03
587.454	28.07
587.792	28.23
588.13	28.17
588.469	27.96
588.807	28.28
589.145	28.07
589.483	28.24
589.821	28.01
590.159	28.35
590.497	28.31
590.835	28.5
591.173	28.49
591.511	28.32
591.849	28.58
592.187	28.35
592.524	28.52
592.862	28.37
593.2	28.8
593.537	28.62
593.875	28.6
594.212	29.11
594.55	28.72
594.887	28.85
595.224	28.88
595.561	28.61
595.899	28.87
596.236	29.04
596.573	28.87
596.91	28.91
597.247	29.07
597.584	28.76
597.921	28.74
598.258	28.71
598.594	28.77
598.931	28.39
599.268	28.73
599.604	29.02
599.941	29.18
600.277	29.34
600.614	29.44
600.95	29.4
601.287	29.17
601.623	29.24
601.959	29.73
602.296	29.54
602.632	29.35
602.968	29.66
603.304	29.36
603.64	29.44
603.976	29.27
604.312	29.49
604.648	29.6
604.984	29.2
605.319	29.51
605.655	29.4
605.991	29.48
606.326	29.2
606.662	29.49
606.998	29.54
607.333	29.63
607.668	29.49
608.004	29.98
608.339	29.84
608.674	29.81
609.01	30.03
609.345	29.99
609.68	29.76
610.015	30.12
610.35	29.73
610.685	29.42
611.02	29.46
611.355	29.77
611.689	29.62
612.024	30.04
612.359	30.04
612.694	30.35
613.028	30.33
613.363	30.18
613.697	30.28
614.032	30.32
614.366	30.42
614.7	30.55
615.035	30.36
615.369	30.69
615.703	30.63
616.037	30.62
616.371	30.48
616.705	30.41
617.039	30.46
617.373	30.53
617.707	30.86
618.041	30.57
618.375	30.32
618.709	30.87
619.042	30.59
619.376	30.8
619.71	31.06
620.043	30.82
620.377	30.72
620.71	30.93
621.043	30.99
621.377	30.87
621.71	31.37
622.043	31.32
622.376	31.38
622.709	31.6
623.043	31.02
623.376	31.3
623.709	31.03
624.041	30.95
624.374	31.32
624.707	31.33
625.04	31.21
625.373	31.04
625.705	31.26
626.038	31.66
626.37	31.28
626.703	31.49
627.035	31.75
627.368	31.57
627.7	31.31
628.032	31.5
628.365	31.46
628.697	31.23
629.029	31.27
629.361	31.65
629.693	31.7
630.025	31.91
630.357	31.54
630.689	31.69
631.021	31.65
631.353	31.68
631.684	31.45
632.016	31.46
632.348	31.67
632.679	32.43
633.011	32.02
633.342	31.77
633.674	31.64
634.005	31.94
634.336	32.1
634.668	32.05
634.999	31.71
635.33	31.92
635.661	31.83
635.992	31.93
636.323	32.08
636.654	32.21
636.985	32.14
637.316	32.13
637.647	32.44
637.977	32.14
638.308	32.51
638.639	32.15
638.969	32.34
639.3	32.49
639.63	32.5
639.961	32.29
640.291	32.74
640.622	32.61
640.952	32.63
641.282	32.69
641.612	32.47
641.943	32.61
642.273	32.85
642.603	32.64
642.933	33.09
643.263	32.75
643.592	33.12
643.922	33
644.252	32.48
644.582	33.21
644.911	32.6
645.241	32.67
645.571	33.06
645.9	33.56
646.23	33.02
646.559	32.61
646.888	33.45
647.218	32.77
647.547	32.71
647.876	33.07
648.205	32.52
648.534	33.17
648.863	33
649.192	33.15
649.521	33.51
649.85	33.91
650.179	33.78
650.508	33.31
650.837	33.25
651.165	33.25
651.494	33.4
651.822	33.54
652.151	33.49
652.479	33.55
652.808	33.41
653.136	33.09
653.465	33.86
653.793	33.52
654.121	33.56
654.449	33.69
654.777	33.41
655.105	33.33
655.433	33.95
655.761	33.83
656.089	33.69
656.417	33.83
656.745	34.19
657.073	33.81
657.4	33.8
657.728	33.45
658.056	33.98
658.383	34.13
658.711	33.93
659.038	34.46
659.365	34.09
659.693	33.9
660.02	34.15
660.347	33.64
660.674	33.68
661.001	33.69
661.329	33.94
661.656	33.91
661.982	34.09
662.309	34.32
662.636	34.25
662.963	34.49
663.29	34.11
663.616	34.94
663.943	34.12
664.27	34.61
664.596	34.33
664.923	34.81
665.249	34.48
665.576	34
665.902	34.27
666.228	35.35
666.554	34.84
666.881	34.16
667.207	34.36
667.533	34.84
667.859	35.1
668.185	34.44
668.511	35.09
668.837	34.9
669.162	35.12
669.488	34.09
669.814	34.96
670.139	34.38
670.465	34.33
670.791	34.84
671.116	34.97
671.442	34.61
671.767	34.48
672.092	34.75
672.418	35.24
672.743	35.35
673.068	34.98
673.393	35.17
673.718	34.33
674.043	35.12
674.368	34.97
674.693	35.08
675.018	35.78
675.343	35.65
675.667	35.28
675.992	34.92
676.317	34.31
676.641	35.15
676.966	34.8
677.29	35.49
677.615	34.85
677.939	35.29
678.264	35.2
678.588	35.3
678.912	35.32
679.236	35.45
679.56	35.69
679.885	34.97
680.209	35.55
680.532	35.19
680.856	35.48
681.18	35.46
681.504	35.08
681.828	35.2
682.152	35.39
682.475	35.33
682.799	35.12
683.122	35.22
683.446	35.28
683.769	36.02
684.093	35.76
684.416	35.65
684.739	35.92
685.062	35.61
685.386	35.7
685.709	35.53
686.032	35.62
686.355	35.56
686.678	35.92
687.001	35.3
687.324	36.2
687.646	36.03
687.969	36.22
688.292	36.11
688.614	35.92
688.937	36.32
689.26	35.84
689.582	36.6
689.904	36.41
690.227	36.99
690.549	36.17
690.871	35.25
691.194	36.38
691.516	36.46
691.838	36.69
692.16	35.54
692.482	35.73
692.804	36.51
693.126	35.77
693.448	36.34
693.769	36.04
694.091	36.62
694.413	36.13
694.735	36.73
695.056	36.02
695.378	36.07
695.699	36.6
696.021	35.98
696.342	36.2
696.663	36.66
696.984	36.14
697.306	35.99
697.627	36.45
697.948	36.66
698.269	37.28
698.59	36.16
698.911	36.6
699.232	36.73
699.553	37.01
699.873	36.35
700.194	36.16
700.515	36.07
700.835	36.66
701.156	36.62
701.477	36.39
701.797	36.88
702.117	36.86
702.438	37.11
702.758	36.74
703.078	36.74
703.398	35.75
703.719	37.63
704.039	37.58
704.359	36.69
704.679	37.61
704.999	37.75
705.319	36.79
705.638	36.74
705.958	37.8
706.278	37.77
706.597	37.07
706.917	37.76
707.237	38.12
707.556	37.8
707.876	37.66
708.195	38.15
708.514	36.97
708.834	37.47
709.153	37.16
709.472	38.49
709.791	37.57
710.11	36.65
710.429	37.36
710.748	37.93
711.067	38.12
711.386	37.38
711.705	37.2
712.023	38.31
712.342	37.48
712.661	37.86
712.979	37.99
713.298	37.77
713.616	37.81
713.935	36.95
714.253	37.84
714.572	37.3
714.89	38.19
715.208	37.09
715.526	38.18
715.844	37.27
716.162	37.25
716.48	36.9
716.798	37.84
717.116	37.46
717.434	38.29
717.752	37.41
718.069	37.88
718.387	38.28
718.705	36.49
719.022	38.32
719.34	36.76
719.657	38.68
719.975	38.87
720.292	36.64
720.609	38.16
720.927	38.23
721.244	38.77
721.561	37.37
721.878	38.95
722.195	37.98
722.512	38.53
722.829	36.96
723.146	38.6
723.463	38.81
723.779	38.56
724.096	38.26
724.413	39.47
724.729	37.46
725.046	38.28
725.362	38.72
725.679	37.54
725.995	37.64
726.311	37.67
726.628	38.53
726.944	38.13
727.26	37.47
727.576	38.67
727.892	36.92
728.208	37.94
728.524	37.33
728.84	38.31
729.156	36.71
729.472	38.09
729.787	38.24
730.103	37.3
730.419	37.9
730.734	38.53
731.05	39.55
731.365	38.93
731.681	38.85
731.996	38.1
732.311	36.95
732.626	38.21
732.942	38.44
733.257	37.76
733.572	38.32
733.887	38.97
734.202	39.1
734.517	39.77
734.832	38.46
735.146	38.51
735.461	37.96
735.776	40.88
736.091	40.47
736.405	39.32
736.72	37.05
737.034	39.57
737.349	39.44
737.663	39.27
737.977	40.11
738.292	38.38
738.606	38.95
738.92	40.16
739.234	39.17
739.548	37.92
739.862	38.5
740.176	39.07
740.49	38.06
740.804	39.11
741.117	39.26
741.431	40.42
741.745	39.73
742.058	37.84
742.372	38.98
742.685	39.49
742.999	37.93
743.312	39.64
743.626	40.56
743.939	39.17
744.252	38.39
744.565	39.13
744.878	38.83
745.191	37.98
745.505	38.82
745.817	39.7
746.13	38.93
746.443	38.87
746.756	40.19
747.069	40.03
747.381	39.16
747.694	39.84
748.007	39.13
748.319	40.99
748.632	40.07
748.944	39.68
749.256	40.21
749.569	39.98
749.881	39.65
750.193	40.95
750.505	39.67
750.817	39.43
751.129	39.35
751.441	40.07
751.753	40.84
752.065	40.93
752.377	39.25
752.689	38.5
753	39.75
753.312	41.6
753.624	40.28
753.935	38.19
754.247	38.39
754.558	39.36
754.869	40.96
755.181	40.13
755.492	41.47
755.803	40.94
756.114	38.75
756.425	38.4
756.736	39.95
757.047	38.81
757.358	40.11
757.669	38.55
757.98	38.42
758.291	40.85
758.601	39.23
758.912	39.79
759.223	39.76
759.533	42.71
759.844	40.64
760.154	39.31
760.464	40.5
760.775	39.85
761.085	41.57
761.395	40.22
761.705	40.31
762.016	40.42
762.326	41.66
762.636	40.67
762.945	39.6
763.255	39.27
763.565	40.06
763.875	39.1
764.185	40.8
764.494	40.34
764.804	38.98
765.113	39.44
765.423	40.82
765.732	40.29
766.042	41.17
766.351	41.02
766.66	41.55
766.97	39.76
767.279	41.13
767.588	38.42
767.897	41.9
768.206	41.71
768.515	39.94
768.824	41.77
769.133	40.56
769.441	40.5
769.75	40.33
770.059	39.62
770.367	39.75
770.676	42.76
770.984	39
771.293	40.09
771.601	39.85
771.91	40.09
772.218	37.79
772.526	37.13
772.834	38.92
773.142	39.66
773.45	42.13
773.758	43.22
774.066	41.7
774.374	41.79
774.682	41.25
774.99	40.75
775.298	41.94
775.605	40.57
775.913	39.75
776.22	41.9
776.528	40.8
776.835	42.71
777.143	45.29
777.45	41.65
777.757	41.17
778.065	39.03
778.372	38.49
778.679	43.46
778.986	42.58
779.293	41.66
779.6	41.21
779.907	42.81
780.214	42.7
780.52	40.94
780.827	36.4
781.134	39.68
781.44	45.88
781.747	40.64
782.053	42.15
782.36	40.82
782.666	41.32
782.973	37.83
783.279	42.77
783.585	42.09
783.891	37.19
784.197	41.6
784.503	37.1
784.809	42.95
785.115	40.02
785.421	41.68
785.727	41.29
786.033	44.11
786.339	44.75
786.644	42.51
786.95	37.78
787.255	37.07
787.561	38.34
787.866	39.29
788.172	42.78
788.477	42.01
788.782	37.23
789.088	42.74
789.393	42.77
789.698	39.99
790.003	40.6
790.308	39.45
790.613	41.17
790.918	43.64
791.223	40.98
791.527	45.94
791.832	41.58
792.137	45.06
792.441	40.09
792.746	42.3
793.05	42.41
793.355	38.85
793.659	41.11
793.963	36.83
794.268	46.6
794.572	42.89
794.876	42.15
795.18	40.95
795.484	45.43
795.788	42.78
796.092	39.08
796.396	37.08
796.7	38
797.004	36.99
797.307	40.43
797.611	39.54
797.915	41.64
798.218	39.77
798.522	40.08
798.825	46.18
799.128	40.35
799.432	38.78
799.735	38.49
800.038	40.66
800.341	38.19
800.644	40.42
800.947	41.4
801.25	40.11
801.553	44.3
801.856	44.69
802.159	39.93
802.462	44.44
802.764	45.01
803.067	41.02
803.37	45.04
803.672	40.64
803.975	42.69
804.277	36.24
804.579	38.27
804.882	41.75
805.184	39.77
805.486	42.44
805.788	45.73
806.09	41.72
806.392	43.42
806.694	39.56
806.996	43.21
807.298	36.38
807.6	40.25
807.902	38.32
808.203	41.5
808.505	42.64
808.807	47.28
809.108	41.53
809.409	41.09
809.711	39.52
810.012	40.31
810.313	39.55
810.615	44.16
810.916	46.62
811.217	37.24
811.518	43.23
811.819	44.46
812.12	49.02
812.421	41.57
812.722	40.22
813.023	42.13
813.323	42.96
813.624	47.18
813.925	44.02
814.225	40.5
814.526	37.99
814.826	37.63
815.126	41.87
815.427	45.11
815.727	42.29
816.027	42.12
816.327	35.4
816.627	38.78
816.927	45.11
817.227	37.25
817.527	41.74
817.827	44.75
818.127	42.21
818.427	38.79
818.727	38.11
819.026	39.54
819.326	40.68
819.625	44.05
819.925	42.35
820.224	44.41
820.524	45.01
820.823	42.13
821.122	34.56
821.421	40.98
821.72	32.69
822.019	39.13
822.318	42.57
822.617	39.05
822.916	37.56
823.215	41.24
823.514	41.49
823.813	41.13
824.111	41.99
824.41	42.8
824.709	43.05
825.007	42.88
825.306	43.96
825.604	43.46
825.902	44.09
826.201	43.4
826.499	44.5
826.797	42.16
827.095	44.47
827.393	45.27
827.691	45.3
827.989	46.16
828.287	43.84
828.585	42.3
828.882	40.81
829.18	42.43
829.478	45.17
829.775	43.22
830.073	45.75
830.37	41.51
830.668	43.6
830.965	44.15
831.263	43.29
831.56	47.41
831.857	41.93
832.154	42.26
832.451	46.92
832.748	45.21
833.045	45.24
833.342	44.01
833.639	45.46
833.936	43.48
834.232	42.43
834.529	41.74
834.826	45.38
835.122	38.92
835.419	44.4
835.715	44.65
836.012	43.33
836.308	46.51
836.604	42.37
836.901	44.27
837.197	43.23
837.493	45.12
837.789	42.69
838.085	42.15
838.381	45.83
838.677	47.22
838.972	41.89
839.268	43.48
839.564	47.82
839.86	44.22
840.155	39.94
840.451	46.92
840.746	47.07
841.042	39.89
841.337	41.78
841.632	43.27
841.928	42.43
842.223	48.14
842.518	42.31
842.813	44.32
843.108	41.94
843.403	47.31
843.698	40.06
843.993	46.19
844.287	40.24
844.582	44.24
844.877	48.02
845.171	43.32
845.466	32.31
845.761	45.25
846.055	43.49
846.349	42.42
846.644	33.07
846.938	40.71
847.232	46.18
847.526	45.02
847.82	44.44
848.114	44.78
848.408	36.51
848.702	41.54
848.996	41.86
849.29	43.75
849.584	42.03
849.877	44.58
850.171	39.57
850.465	25.42
850.758	31.49
851.052	65.01
851.345	34.58
851.638	40.34
851.932	45.29
852.225	41.5
852.518	39.87
852.811	24.67
853.104	46.64
853.397	35.91
853.69	27
853.983	49.09
854.276	36.2
854.569	43.93
854.861	33.32
855.154	40.06
855.447	42.53
855.739	28.54
856.032	28.1
856.324	33.83
856.616	49.09
856.909	29.37
857.201	17.62
857.493	41.76
857.785	29.11
858.077	47.85
858.369	33.14
858.661	39.35
858.953	36.29
859.245	39.49
859.537	29.87
859.829	19.91
860.12	35.14
860.412	40.85
860.703	49.4
860.995	56.87
861.286	19.91
861.578	40.28
861.869	48.5
862.16	41.41
862.452	8.24
862.743	34.45
863.034	48.34
863.325	59.58
863.616	41.33
863.907	46.34
864.198	41.41
864.488	35.55
864.779	27.25
865.07	31.6
865.36	58.16
865.651	35.94
865.941	39.35
866.232	47.49
866.522	40.42
866.813	40.15
867.103	29.58
867.393	39.46
867.683	35.67
867.973	40.35
868.263	28.17
868.553	46.36
868.843	43.85
869.133	37.94
869.423	42.47
869.713	10.78
870.002	41.7
870.292	57.87
870.582	40.11
870.871	48.15
871.161	28.72
871.45	43.87
871.739	54.85
872.029	44.97
872.318	68.64
872.607	51.89
872.896	48.8
873.185	55.74
873.474	17.21
873.763	55.62
874.052	47.8
874.341	45.12
874.63	52.18
874.918	48.49
875.207	3.11
875.496	46.03
875.784	1.39
876.073	62.83
876.361	49.57
876.649	22.48
876.938	46.23
877.226	28.76
877.514	44.88
877.802	20.39
878.09	31.55
878.378	64.02
878.666	49.63
878.954	35.64
879.242	26.41
879.53	33.18
879.817	15.33
880.105	35.73
880.392	28.84
880.68	60.39
880.967	36.13
881.255	62.53
881.542	26.03
881.83	61.26
882.117	31.87
882.404	46.78
882.691	28.74
882.978	36.45
883.265	28.55
883.552	53.09
883.839	49.53
884.126	53.94
884.413	50.55
884.699	43.44
884.986	39.86
885.273	51.04
885.559	51.04
885.846	51.04
