Data from 21-9_chest_Reflection__4__34.txt Node

Date: Thu Dec 15 16:43:45 CST 2022
User: ToomeyLab
Spectrometer: FLMS14357
Trigger mode: 0
Integration Time (sec): 1.000000E-2
Scans to average: 100
Electric dark correction enabled: true
Nonlinearity correction enabled: false
Boxcar width: 0
XAxis mode: Wavelengths
Number of Pixels in Spectrum: 2048
>>>>>Begin Spectral Data<<<<<
189.047	37.45
189.435	37.45
189.823	37.45
190.211	-37.83
190.599	113.47
190.987	2.53
191.375	-36.53
191.763	232.31
192.151	79.77
192.538	33.93
192.926	463.64
193.314	69.01
193.702	-42.09
194.089	-234.2
194.477	-622
194.864	46.26
195.252	458.09
195.639	118.59
196.027	-49.88
196.414	281.67
196.801	50
197.189	183.08
197.576	34.33
197.963	-7.9
198.351	11.22
198.738	-4.52
199.125	0.54
199.512	43.99
199.899	26.95
200.286	-42.4
200.673	15.51
201.06	19.82
201.447	11.46
201.833	16.49
202.22	22.37
202.607	16.89
202.994	14.27
203.38	-6.57
203.767	-10.88
204.154	19.42
204.54	30.95
204.927	7.09
205.313	37.07
205.699	36.22
206.086	27.43
206.472	37.82
206.858	24.39
207.245	13.03
207.631	-18.76
208.017	41.51
208.403	-48.27
208.789	23.92
209.175	51.31
209.561	-31.72
209.947	20.69
210.333	11.45
210.719	34.51
211.105	15.64
211.491	25.29
211.876	28.16
212.262	4.59
212.648	30.06
213.034	39.35
213.419	15.7
213.805	8.59
214.19	-3.58
214.576	-1.92
214.961	18.08
215.346	4.06
215.732	18.44
216.117	21.14
216.502	-7.13
216.888	33.9
217.273	11.86
217.658	-3.05
218.043	11.54
218.428	3.05
218.813	11.21
219.198	-5.86
219.583	6.62
219.968	9.77
220.353	-13.64
220.738	24.86
221.122	7.77
221.507	3.32
221.892	2.85
222.276	-15.68
222.661	-1.81
223.046	6.96
223.43	11.75
223.815	10.6
224.199	7.47
224.583	2.36
224.968	6.03
225.352	8.98
225.736	11.72
226.121	3.34
226.505	-0.17
226.889	4.51
227.273	5.73
227.657	4.16
228.041	2.98
228.425	3.42
228.809	4.74
229.193	3.72
229.577	4.79
229.961	4.33
230.344	4.87
230.728	5.33
231.112	4.25
231.495	3.38
231.879	5.09
232.263	4.61
232.646	5.31
233.03	5.81
233.413	4.54
233.797	4.25
234.18	4.89
234.563	5.39
234.946	5.28
235.33	3.29
235.713	4.83
236.096	5.52
236.479	5.18
236.862	4.87
237.245	3.2
237.628	5.16
238.011	4.83
238.394	4.52
238.777	5.84
239.16	5.97
239.543	7.03
239.925	4.65
240.308	3.55
240.691	5.47
241.073	4.37
241.456	5.56
241.838	5.19
242.221	5.32
242.603	4.62
242.986	4.7
243.368	4.76
243.75	4.94
244.133	5.43
244.515	4.94
244.897	4.51
245.279	4.42
245.661	5.18
246.043	5.77
246.425	6.05
246.807	5.21
247.189	4.99
247.571	4.74
247.953	4.75
248.335	4.84
248.717	5.1
249.098	5.18
249.48	5.03
249.862	5.19
250.243	5.28
250.625	4.84
251.006	5.78
251.388	4.95
251.769	4.58
252.151	5.41
252.532	4.32
252.913	5.4
253.295	4.64
253.676	4.94
254.057	4.7
254.438	5.14
254.819	5.4
255.2	5.88
255.581	5.69
255.962	5.18
256.343	5.83
256.724	5.18
257.105	4.99
257.486	3.95
257.867	5.03
258.247	5.29
258.628	4.99
259.009	4.88
259.389	4.52
259.77	4.77
260.15	5.52
260.531	5.04
260.911	4.64
261.292	4.85
261.672	4.86
262.052	4.96
262.432	4.57
262.813	4.6
263.193	4.79
263.573	5.41
263.953	4.58
264.333	5.21
264.713	5.08
265.093	4.64
265.473	4.65
265.853	4.5
266.233	4.47
266.612	4.24
266.992	5.11
267.372	5.71
267.752	4.78
268.131	4.83
268.511	4.66
268.89	5.3
269.27	4.69
269.649	4.85
270.029	4.5
270.408	4.57
270.787	5.38
271.167	5.08
271.546	5.78
271.925	4.95
272.304	4.49
272.683	4.39
273.062	4.23
273.441	4.51
273.82	4.54
274.199	4.25
274.578	4.75
274.957	4.47
275.336	5.11
275.715	4.94
276.093	4.57
276.472	4.41
276.851	4.61
277.229	4.12
277.608	3.96
277.986	4.78
278.365	4.55
278.743	4.63
279.122	4.44
279.5	4.42
279.878	4.16
280.257	4.79
280.635	4.32
281.013	4.3
281.391	3.89
281.769	5.04
282.147	4.39
282.525	4.11
282.903	4.17
283.281	4.73
283.659	4.91
284.037	4.25
284.415	4.07
284.792	4.64
285.17	4.21
285.548	4.51
285.925	4.25
286.303	4.74
286.68	4.59
287.058	4.72
287.435	4.35
287.813	4.47
288.19	4.1
288.567	4.37
288.945	4.62
289.322	4.64
289.699	4.6
290.076	4.91
290.453	4.16
290.83	4.84
291.207	4.11
291.584	4.81
291.961	4.75
292.338	4.5
292.715	4.5
293.092	5.3
293.469	4.63
293.845	4.67
294.222	4.9
294.599	4.64
294.975	4.92
295.352	5.19
295.728	4.96
296.105	4.98
296.481	5.04
296.858	4.59
297.234	4.65
297.61	4.84
297.986	5.38
298.363	4.88
298.739	5.48
299.115	5.09
299.491	5.21
299.867	4.71
300.243	4.88
300.619	5.06
300.995	5.24
301.371	5.31
301.746	5.38
302.122	4.81
302.498	4.82
302.874	5.34
303.249	5.04
303.625	4.91
304	5.22
304.376	5.77
304.751	5.36
305.127	4.86
305.502	5.42
305.878	5.43
306.253	5.03
306.628	5.32
307.003	5.23
307.378	5.15
307.754	5.06
308.129	4.67
308.504	5.47
308.879	5.18
309.254	5.76
309.629	5.24
310.003	5.32
310.378	5.6
310.753	5.61
311.128	5.33
311.502	5.54
311.877	5.12
312.252	5.3
312.626	5.57
313.001	5.46
313.375	5.47
313.75	5.46
314.124	5.61
314.498	5.34
314.873	5.18
315.247	5.43
315.621	5.3
315.995	5.43
316.369	5.04
316.743	5.09
317.117	4.91
317.491	5.4
317.865	5.18
318.239	6.05
318.613	5.69
318.987	4.97
319.361	5.44
319.734	5.48
320.108	5.85
320.482	5.69
320.855	5.56
321.229	5.05
321.602	5.83
321.976	5.25
322.349	5.74
322.723	5.93
323.096	5.54
323.469	5.9
323.843	5.14
324.216	5.44
324.589	5.63
324.962	5.27
325.335	5.02
325.708	5.7
326.081	5.51
326.454	5.69
326.827	5.32
327.2	5.07
327.573	6.22
327.945	5.36
328.318	5.55
328.691	5.44
329.063	5.11
329.436	5.28
329.809	5.34
330.181	6.14
330.553	5.53
330.926	6.03
331.298	5.77
331.671	5.57
332.043	5.61
332.415	5.76
332.787	5.62
333.159	4.97
333.532	5.44
333.904	5.67
334.276	5.38
334.648	5.4
335.02	5.52
335.391	5.7
335.763	5.47
336.135	5.77
336.507	5.41
336.879	5.57
337.25	5.57
337.622	5.45
337.993	5.59
338.365	5.42
338.736	5.73
339.108	5.83
339.479	5.78
339.851	5.62
340.222	5.69
340.593	5.46
340.964	5.87
341.336	5.41
341.707	5.47
342.078	5.25
342.449	5.56
342.82	5.74
343.191	5.22
343.562	5.68
343.933	5.48
344.303	5.96
344.674	5.93
345.045	5.36
345.416	5.98
345.786	5.48
346.157	5.63
346.527	5.56
346.898	5.19
347.268	5.38
347.639	5.37
348.009	5.5
348.38	5.71
348.75	5.81
349.12	5.65
349.49	5.38
349.861	5.59
350.231	5.4
350.601	5.46
350.971	5.25
351.341	5.85
351.711	5.56
352.081	5.56
352.45	5.12
352.82	5.45
353.19	5.74
353.56	5.47
353.929	5.69
354.299	5.75
354.669	5.64
355.038	5.86
355.408	5.64
355.777	5.8
356.147	5.57
356.516	5.46
356.885	5.26
357.254	5.49
357.624	5.27
357.993	5.52
358.362	5.6
358.731	5.67
359.1	5.64
359.469	5.92
359.838	5.8
360.207	5.51
360.576	5.73
360.945	5.61
361.314	5.33
361.682	5.44
362.051	5.55
362.42	5.73
362.788	5.76
363.157	5.36
363.525	5.84
363.894	5.34
364.262	5.77
364.631	5.9
364.999	5.45
365.367	5.75
365.735	5.6
366.104	5.56
366.472	5.65
366.84	5.8
367.208	5.77
367.576	5.42
367.944	5.56
368.312	5.76
368.68	6.11
369.048	5.67
369.416	5.6
369.783	5.61
370.151	6.08
370.519	5.92
370.886	5.7
371.254	5.94
371.621	5.93
371.989	5.78
372.356	5.53
372.724	5.75
373.091	5.58
373.458	5.41
373.826	5.8
374.193	5.76
374.56	5.9
374.927	5.79
375.294	5.89
375.661	6.01
376.028	6
376.395	5.85
376.762	5.86
377.129	5.87
377.496	5.72
377.863	5.88
378.229	6.11
378.596	5.93
378.963	5.93
379.329	5.86
379.696	5.83
380.062	5.71
380.429	5.82
380.795	6.24
381.161	5.39
381.528	5.46
381.894	5.55
382.26	6.1
382.626	6.03
382.993	6.06
383.359	5.81
383.725	5.58
384.091	5.71
384.457	5.57
384.823	5.81
385.188	5.94
385.554	5.76
385.92	5.58
386.286	5.71
386.651	5.71
387.017	6.23
387.383	5.58
387.748	5.77
388.114	5.98
388.479	5.85
388.845	5.71
389.21	6.11
389.575	6.32
389.94	5.96
390.306	5.87
390.671	6.02
391.036	5.74
391.401	5.95
391.766	6
392.131	6.03
392.496	5.99
392.861	5.77
393.226	5.76
393.591	5.95
393.956	6.1
394.32	5.99
394.685	5.92
395.05	5.82
395.414	5.99
395.779	5.92
396.143	5.85
396.508	5.76
396.872	5.81
397.236	6.3
397.601	5.93
397.965	6.1
398.329	6.1
398.694	5.81
399.058	5.97
399.422	5.9
399.786	5.92
400.15	5.89
400.514	6.01
400.878	5.91
401.242	6.18
401.605	6
401.969	5.98
402.333	5.94
402.697	6.27
403.06	5.87
403.424	6.01
403.787	6.16
404.151	5.86
404.514	6.23
404.878	6.05
405.241	5.95
405.604	5.92
405.968	6.04
406.331	6.1
406.694	6.14
407.057	5.84
407.42	6.02
407.783	6.1
408.146	6.18
408.509	6.19
408.872	6.19
409.235	6.15
409.598	6.08
409.961	6.33
410.323	5.94
410.686	6.03
411.049	6.33
411.411	6.19
411.774	6.15
412.136	6.21
412.499	6.41
412.861	5.83
413.223	6.1
413.586	6.17
413.948	6.4
414.31	6.22
414.672	6
415.035	6.14
415.397	6.32
415.759	5.98
416.121	6.4
416.483	6.11
416.845	6.16
417.206	6.02
417.568	5.94
417.93	6.21
418.292	6.11
418.653	5.99
419.015	6.18
419.377	6.08
419.738	6.19
420.1	6.1
420.461	6
420.822	6.09
421.184	6.11
421.545	6.1
421.906	5.98
422.267	5.98
422.629	5.98
422.99	5.95
423.351	6.13
423.712	6.09
424.073	6.15
424.434	6.25
424.795	6.02
425.155	6.07
425.516	5.99
425.877	6.12
426.238	6.14
426.598	6.11
426.959	6.17
427.32	6.15
427.68	6.17
428.041	6.16
428.401	6.11
428.761	6.26
429.122	6.4
429.482	6.27
429.842	6.12
430.202	6.42
430.563	6.37
430.923	6.23
431.283	6.39
431.643	6.44
432.003	6.31
432.363	6.5
432.722	6.41
433.082	6.41
433.442	6.32
433.802	6.29
434.161	6.36
434.521	6.2
434.881	6.32
435.24	6.32
435.6	6.3
435.959	6.28
436.319	6.23
436.678	6.29
437.037	6.3
437.396	6.45
437.756	6.26
438.115	6.38
438.474	6.32
438.833	6.29
439.192	6.32
439.551	6.37
439.91	6.37
440.269	6.4
440.628	6.3
440.987	6.35
441.345	6.33
441.704	6.34
442.063	6.19
442.421	6.33
442.78	6.26
443.138	6.23
443.497	6.33
443.855	6.45
444.214	6.16
444.572	6.53
444.93	6.16
445.288	6.36
445.647	6.22
446.005	6.41
446.363	6.36
446.721	6.37
447.079	6.31
447.437	6.42
447.795	6.37
448.153	6.34
448.51	6.41
448.868	6.23
449.226	6.34
449.584	6.33
449.941	6.48
450.299	6.38
450.656	6.36
451.014	6.44
451.371	6.59
451.729	6.44
452.086	6.48
452.443	6.61
452.801	6.7
453.158	6.54
453.515	6.43
453.872	6.42
454.229	6.44
454.586	6.33
454.943	6.5
455.3	6.5
455.657	6.45
456.014	6.55
456.371	6.64
456.727	6.69
457.084	6.69
457.441	6.55
457.797	6.66
458.154	6.46
458.51	6.58
458.867	6.56
459.223	6.39
459.58	6.55
459.936	6.57
460.292	6.45
460.648	6.48
461.005	6.43
461.361	6.37
461.717	6.39
462.073	6.46
462.429	6.43
462.785	6.56
463.141	6.54
463.496	6.66
463.852	6.62
464.208	6.71
464.564	6.58
464.919	6.67
465.275	6.63
465.631	6.9
465.986	6.83
466.342	6.61
466.697	6.62
467.052	6.79
467.408	6.8
467.763	6.64
468.118	6.49
468.473	6.75
468.829	6.57
469.184	6.72
469.539	6.45
469.894	6.7
470.249	6.56
470.603	6.73
470.958	6.82
471.313	6.91
471.668	6.7
472.023	6.66
472.377	6.94
472.732	6.76
473.086	6.64
473.441	6.75
473.795	6.86
474.15	6.72
474.504	6.74
474.859	6.47
475.213	6.72
475.567	6.59
475.921	6.83
476.275	6.77
476.63	6.79
476.984	6.65
477.338	6.73
477.692	6.77
478.045	6.74
478.399	6.81
478.753	6.79
479.107	6.72
479.461	6.74
479.814	6.75
480.168	6.74
480.521	6.89
480.875	6.91
481.228	6.85
481.582	6.79
481.935	6.91
482.289	6.79
482.642	7.04
482.995	6.8
483.348	6.74
483.701	6.74
484.055	6.71
484.408	6.64
484.761	6.52
485.114	6.45
485.466	6.42
485.819	6.45
486.172	6.49
486.525	6.55
486.878	6.64
487.23	6.65
487.583	6.67
487.936	6.68
488.288	6.69
488.641	6.65
488.993	6.62
489.345	6.64
489.698	6.62
490.05	6.6
490.402	6.64
490.754	6.75
491.107	6.76
491.459	6.86
491.811	6.92
492.163	6.84
492.515	6.72
492.866	6.69
493.218	6.64
493.57	6.68
493.922	6.77
494.274	6.9
494.625	6.91
494.977	6.97
495.328	7.07
495.68	7.08
496.031	7.08
496.383	7.02
496.734	7.03
497.086	7.1
497.437	7.23
497.788	7.22
498.139	7.07
498.49	7.07
498.842	7.11
499.193	6.99
499.544	7.07
499.894	7.11
500.245	7.16
500.596	7.05
500.947	7.12
501.298	7.13
501.648	7.22
501.999	7.2
502.35	7.08
502.7	7.33
503.051	7.24
503.401	7.27
503.752	7.07
504.102	7.22
504.452	7.13
504.803	7.33
505.153	7.14
505.503	7.31
505.853	7.26
506.203	7.28
506.553	7.34
506.903	7.33
507.253	7.33
507.603	7.42
507.953	7.32
508.303	7.36
508.652	7.15
509.002	7.5
509.352	7.4
509.701	7.26
510.051	7.32
510.4	7.43
510.75	7.15
511.099	7.32
511.449	7.42
511.798	7.3
512.147	7.28
512.496	7.44
512.846	7.4
513.195	7.38
513.544	7.54
513.893	7.4
514.242	7.38
514.591	7.44
514.939	7.49
515.288	7.49
515.637	7.46
515.986	7.51
516.334	7.58
516.683	7.5
517.032	7.54
517.38	7.49
517.729	7.54
518.077	7.59
518.426	7.63
518.774	7.51
519.122	7.56
519.47	7.48
519.819	7.56
520.167	7.5
520.515	7.53
520.863	7.54
521.211	7.45
521.559	7.56
521.907	7.61
522.255	7.62
522.602	7.66
522.95	7.71
523.298	7.71
523.645	7.86
523.993	7.81
524.341	7.79
524.688	7.68
525.036	7.83
525.383	7.84
525.73	7.63
526.078	7.8
526.425	7.74
526.772	7.72
527.119	7.67
527.466	7.77
527.814	7.74
528.161	7.84
528.508	7.83
528.854	7.85
529.201	7.72
529.548	7.67
529.895	7.59
530.242	7.54
530.588	7.57
530.935	7.61
531.282	7.61
531.628	7.71
531.975	7.72
532.321	7.86
532.667	7.88
533.014	8.02
533.36	7.98
533.706	8.1
534.052	7.96
534.399	7.9
534.745	7.89
535.091	7.8
535.437	7.87
535.783	7.9
536.129	7.97
536.474	8.18
536.82	8.14
537.166	8.05
537.512	8.1
537.857	8.06
538.203	7.99
538.549	8.03
538.894	8.21
539.239	8.18
539.585	8.29
539.93	8.29
540.276	8.36
540.621	8.39
540.966	8.36
541.311	8.49
541.656	8.3
542.001	8.33
542.346	8.24
542.691	8.2
543.036	8.17
543.381	8.16
543.726	8.25
544.071	8.22
544.415	8.31
544.76	8.35
545.105	8.4
545.449	8.43
545.794	8.52
546.138	8.5
546.483	8.52
546.827	8.53
547.171	8.57
547.516	8.6
547.86	8.6
548.204	8.63
548.548	8.58
548.892	8.68
549.236	8.73
549.58	8.82
549.924	8.89
550.268	8.86
550.612	9.04
550.956	8.91
551.3	8.98
551.643	8.87
551.987	9.06
552.33	9.03
552.674	8.87
553.017	9.11
553.361	9.12
553.704	9.08
554.048	9.13
554.391	9.09
554.734	9.06
555.077	9.22
555.42	9.2
555.764	9.3
556.107	9.2
556.45	9.31
556.793	9.37
557.135	9.33
557.478	9.39
557.821	9.35
558.164	9.45
558.507	9.28
558.849	9.51
559.192	9.4
559.534	9.43
559.877	9.4
560.219	9.44
560.562	9.55
560.904	9.71
561.246	9.32
561.589	9.83
561.931	9.54
562.273	9.5
562.615	9.44
562.957	9.54
563.299	9.87
563.641	9.71
563.983	9.58
564.325	9.72
564.667	9.72
565.008	9.67
565.35	9.75
565.692	9.73
566.033	9.84
566.375	9.81
566.716	9.77
567.058	9.77
567.399	9.85
567.741	9.83
568.082	9.88
568.423	9.92
568.764	9.83
569.105	9.96
569.447	9.99
569.788	10.05
570.129	10.02
570.47	10.03
570.811	10.06
571.151	10.26
571.492	10.12
571.833	10.29
572.174	10.17
572.514	10.23
572.855	10.32
573.195	10.19
573.536	10.26
573.876	10.26
574.217	10.21
574.557	10.18
574.898	10.35
575.238	10.46
575.578	10.56
575.918	10.59
576.258	10.48
576.598	10.52
576.938	10.33
577.278	10.52
577.618	10.47
577.958	10.64
578.298	10.59
578.638	10.61
578.977	10.7
579.317	10.73
579.657	10.9
579.996	10.82
580.336	10.86
580.675	10.74
581.014	10.84
581.354	10.74
581.693	10.81
582.032	11.24
582.372	10.99
582.711	11.06
583.05	11.16
583.389	11.18
583.728	11.41
584.067	11.06
584.406	11.32
584.745	11.05
585.083	11.21
585.422	11.41
585.761	11.45
586.1	11.5
586.438	11.39
586.777	11.21
587.115	11.36
587.454	11.23
587.792	11.46
588.13	11.41
588.469	11.7
588.807	11.73
589.145	11.75
589.483	11.37
589.821	11.66
590.159	11.76
590.497	11.76
590.835	11.83
591.173	11.88
591.511	11.81
591.849	11.9
592.187	11.78
592.524	11.9
592.862	11.95
593.2	12.07
593.537	11.78
593.875	11.93
594.212	11.76
594.55	12.03
594.887	12.02
595.224	12.27
595.561	12
595.899	12.11
596.236	12.23
596.573	11.91
596.91	12.08
597.247	12.38
597.584	12.23
597.921	12.13
598.258	12.42
598.594	12.27
598.931	12.12
599.268	12.18
599.604	12.39
599.941	12.35
600.277	12.38
600.614	12.46
600.95	12.54
601.287	12.43
601.623	12.31
601.959	12.96
602.296	12.77
602.632	12.52
602.968	12.65
603.304	12.95
603.64	12.9
603.976	12.75
604.312	12.66
604.648	12.83
604.984	12.69
605.319	12.84
605.655	12.72
605.991	12.97
606.326	12.71
606.662	12.73
606.998	13.02
607.333	13.11
607.668	12.88
608.004	13.11
608.339	13
608.674	13.17
609.01	13.37
609.345	13.34
609.68	13.28
610.015	13.71
610.35	13.35
610.685	13.22
611.02	13.4
611.355	13.37
611.689	13.32
612.024	13.31
612.359	13.7
612.694	13.32
613.028	13.34
613.363	13.57
613.697	13.77
614.032	13.68
614.366	13.8
614.7	13.68
615.035	13.77
615.369	13.88
615.703	14.09
616.037	14.39
616.371	13.86
616.705	14.29
617.039	14.21
617.373	14.36
617.707	14.23
618.041	13.87
618.375	13.74
618.709	14.14
619.042	14.09
619.376	14.06
619.71	14.02
620.043	14.49
620.377	14.68
620.71	14.19
621.043	14.72
621.377	14.41
621.71	14.37
622.043	14.79
622.376	14.47
622.709	14.8
623.043	14.4
623.376	14.57
623.709	14.7
624.041	14.43
624.374	14.78
624.707	14.78
625.04	14.58
625.373	14.64
625.705	14.89
626.038	14.86
626.37	14.88
626.703	14.92
627.035	14.8
627.368	15.17
627.7	15.02
628.032	14.89
628.365	15
628.697	15.07
629.029	15.23
629.361	15.28
629.693	15.26
630.025	15.28
630.357	15.34
630.689	15.16
631.021	15.47
631.353	15.32
631.684	15.36
632.016	14.86
632.348	15.26
632.679	15.55
633.011	15.26
633.342	15.61
633.674	15.36
634.005	15.34
634.336	15.66
634.668	15.44
634.999	15.83
635.33	15.95
635.661	15.8
635.992	15.81
636.323	15.53
636.654	15.91
636.985	15.8
637.316	15.88
637.647	15.94
637.977	16.03
638.308	16
638.639	15.81
638.969	15.98
639.3	15.88
639.63	15.7
639.961	16.05
640.291	15.86
640.622	16.27
640.952	16.2
641.282	15.89
641.612	16.39
641.943	16.21
642.273	16.48
642.603	16.63
642.933	16.37
643.263	16.51
643.592	16.94
643.922	16.74
644.252	16.45
644.582	16.58
644.911	16.63
645.241	16.58
645.571	16.81
645.9	17.18
646.23	17.12
646.559	16.77
646.888	17.15
647.218	17.05
647.547	16.97
647.876	16.94
648.205	16.83
648.534	16.8
648.863	17.18
649.192	17.07
649.521	17.03
649.85	16.75
650.179	17.09
650.508	17.24
650.837	16.95
651.165	17.28
651.494	17.64
651.822	17.78
652.151	17.04
652.479	17.72
652.808	17.35
653.136	17.42
653.465	17.6
653.793	17.62
654.121	17.63
654.449	17.77
654.777	17.51
655.105	17.06
655.433	17.73
655.761	17.56
656.089	17.71
656.417	18.37
656.745	18.04
657.073	17.8
657.4	17.98
657.728	17.49
658.056	17.86
658.383	17.92
658.711	18
659.038	18.34
659.365	18.5
659.693	18.07
660.02	18.05
660.347	17.91
660.674	17.75
661.001	17.87
661.329	17.94
661.656	18
661.982	18.2
662.309	18.06
662.636	18.48
662.963	18.6
663.29	18.44
663.616	18.55
663.943	18.51
664.27	18.97
664.596	18.08
664.923	18.62
665.249	18.61
665.576	18.59
665.902	18.93
666.228	19.04
666.554	18.89
666.881	18.18
667.207	18.91
667.533	18.81
667.859	18.74
668.185	18.37
668.511	19.43
668.837	18.52
669.162	19.18
669.488	18.74
669.814	19.39
670.139	18.81
670.465	19.36
670.791	18.88
671.116	19.06
671.442	18.86
671.767	19.2
672.092	18.86
672.418	19.5
672.743	19.38
673.068	19.13
673.393	19.59
673.718	19.3
674.043	19.97
674.368	19.35
674.693	19.82
675.018	20.02
675.343	20.01
675.667	19.75
675.992	20.1
676.317	19.32
676.641	20.15
676.966	19.85
677.29	19.45
677.615	19.59
677.939	20.14
678.264	19.81
678.588	19.88
678.912	20.34
679.236	19.75
679.56	20.26
679.885	19.43
680.209	20.53
680.532	20.83
680.856	19.96
681.18	20.57
681.504	20.2
681.828	20.36
682.152	20.36
682.475	20.04
682.799	20.56
683.122	20.37
683.446	20.34
683.769	20.81
684.093	20.83
684.416	20.31
684.739	20.64
685.062	21.27
685.386	20.73
685.709	20.72
686.032	21.05
686.355	20.95
686.678	20.93
687.001	20.5
687.324	21.06
687.646	20.89
687.969	20.95
688.292	20.87
688.614	21.3
688.937	21.23
689.26	21.3
689.582	21.08
689.904	21.35
690.227	21.2
690.549	21.31
690.871	21.3
691.194	21.49
691.516	20.77
691.838	21.54
692.16	20.94
692.482	20.59
692.804	21.86
693.126	21.68
693.448	22.03
693.769	21.66
694.091	21.39
694.413	21.49
694.735	21.08
695.056	21.52
695.378	21.66
695.699	22.13
696.021	22.08
696.342	20.7
696.663	22.23
696.984	20.99
697.306	21.46
697.627	22.58
697.948	22.44
698.269	22.78
698.59	21.41
698.911	21.7
699.232	22.99
699.553	22.49
699.873	22.14
700.194	22.14
700.515	22.07
700.835	22.27
701.156	22.91
701.477	21.9
701.797	21.43
702.117	21.89
702.438	22.51
702.758	22.31
703.078	22.71
703.398	22.3
703.719	22.67
704.039	22.53
704.359	22.83
704.679	22.37
704.999	22.97
705.319	21.86
705.638	22.16
705.958	22.38
706.278	22.46
706.597	23.25
706.917	23.23
707.237	22.67
707.556	23.66
707.876	22.27
708.195	23.33
708.514	23.37
708.834	23.54
709.153	22.42
709.472	22.79
709.791	23.26
710.11	22.97
710.429	23.5
710.748	23.64
711.067	24.23
711.386	23.66
711.705	23.36
712.023	24.42
712.342	23.83
712.661	24.43
712.979	23.58
713.298	23.23
713.616	24.02
713.935	24.24
714.253	24.18
714.572	23.72
714.89	24.56
715.208	23.73
715.526	23.47
715.844	24.3
716.162	24.65
716.48	23.77
716.798	23.92
717.116	24.16
717.434	23.71
717.752	24.15
718.069	23.95
718.387	24.5
718.705	24.03
719.022	24.4
719.34	23.5
719.657	23.94
719.975	24.05
720.292	23.31
720.609	23.42
720.927	24.93
721.244	24.86
721.561	23.34
721.878	24.88
722.195	26.06
722.512	24.39
722.829	24.99
723.146	24.82
723.463	24.9
723.779	24.21
724.096	24.11
724.413	25.13
724.729	24.99
725.046	24.84
725.362	25.48
725.679	25.29
725.995	23.49
726.311	25.56
726.628	24.49
726.944	25.74
727.26	25.2
727.576	26.54
727.892	25.48
728.208	25.39
728.524	24.95
728.84	24.16
729.156	24.57
729.472	25.42
729.787	25.4
730.103	24.58
730.419	24.75
730.734	25.06
731.05	25.12
731.365	26.74
731.681	26.12
731.996	25.74
732.311	25.03
732.626	26.21
732.942	24.97
733.257	26.19
733.572	25.44
733.887	25.81
734.202	25.36
734.517	26.28
734.832	26.83
735.146	26.39
735.461	26.5
735.776	27.28
736.091	26
736.405	25.99
736.72	24.88
737.034	26.2
737.349	26.46
737.663	26.9
737.977	27.87
738.292	25.44
738.606	26.16
738.92	26.72
739.234	26.14
739.548	26.81
739.862	26.94
740.176	26.37
740.49	27.56
740.804	27.19
741.117	26.73
741.431	27.69
741.745	26.99
742.058	27.98
742.372	26.03
742.685	26.46
742.999	26.07
743.312	25.91
743.626	27.76
743.939	26.7
744.252	26.17
744.565	26.89
744.878	26.21
745.191	27.46
745.505	27.65
745.817	29.49
746.13	25.96
746.443	25.77
746.756	27.28
747.069	26.54
747.381	29.59
747.694	27.34
748.007	29.82
748.319	28.63
748.632	27.72
748.944	28.73
749.256	29.45
749.569	25.53
749.881	27.19
750.193	28.14
750.505	27.83
750.817	28.34
751.129	28.29
751.441	27.63
751.753	29.1
752.065	28.93
752.377	28.46
752.689	26.39
753	29.08
753.312	27.53
753.624	26.88
753.935	27.96
754.247	28.1
754.558	27.69
754.869	28.67
755.181	26.64
755.492	28.12
755.803	27.94
756.114	28.6
756.425	29.02
756.736	30.14
757.047	28.51
757.358	26.89
757.669	27.78
757.98	27
758.291	29.24
758.601	27.07
758.912	26.27
759.223	27.07
759.533	28.41
759.844	27.47
760.154	28.61
760.464	28.57
760.775	31.2
761.085	28.16
761.395	28.24
761.705	29.94
762.016	29.74
762.326	29.41
762.636	28.49
762.945	29.32
763.255	27.14
763.565	31.03
763.875	29.88
764.185	31.36
764.494	28.68
764.804	28.66
765.113	28.96
765.423	28.12
765.732	29.78
766.042	30.25
766.351	30.11
766.66	28.53
766.97	29.47
767.279	29.72
767.588	28.47
767.897	27.57
768.206	28.92
768.515	30.97
768.824	29.31
769.133	29.76
769.441	29.61
769.75	28.96
770.059	30.35
770.367	31.58
770.676	27.62
770.984	29.35
771.293	28.6
771.601	28.86
771.91	28.73
772.218	29.53
772.526	27.6
772.834	27.7
773.142	29.15
773.45	30.44
773.758	30.47
774.066	31.95
774.374	31.23
774.682	31.78
774.99	29.34
775.298	28.4
775.605	28.61
775.913	28.05
776.22	28.38
776.528	30.85
776.835	32.56
777.143	31.24
777.45	31.21
777.757	31.06
778.065	30.02
778.372	29.76
778.679	32.92
778.986	31.73
779.293	30.96
779.6	34.51
779.907	31.29
780.214	29.15
780.52	31.31
780.827	30.92
781.134	33.47
781.44	34.17
781.747	33.95
782.053	30.32
782.36	29.22
782.666	30.15
782.973	27.58
783.279	31.32
783.585	32.72
783.891	30.38
784.197	29.67
784.503	30.18
784.809	33.43
785.115	36.6
785.421	35.94
785.727	33.38
786.033	30.83
786.339	31.69
786.644	30.65
786.95	29.06
787.255	28.88
787.561	31.29
787.866	32.75
788.172	30.36
788.477	34.24
788.782	31.18
789.088	27.85
789.393	34.14
789.698	30.64
790.003	30.57
790.308	30.88
790.613	31.05
790.918	33.67
791.223	34.06
791.527	33.42
791.832	29.28
792.137	33.82
792.441	32.2
792.746	30.09
793.05	30.78
793.355	37.5
793.659	33.29
793.963	27.86
794.268	35.56
794.572	32.8
794.876	32.4
795.18	36.3
795.484	35.58
795.788	34.36
796.092	30.19
796.396	29.74
796.7	31.71
797.004	29.59
797.307	30.52
797.611	34.04
797.915	30.21
798.218	30.05
798.522	30.96
798.825	33.79
799.128	33.05
799.432	30.46
799.735	31.38
800.038	28.32
800.341	32.48
800.644	29.25
800.947	30.28
801.25	32.25
801.553	34.12
801.856	35
802.159	27.91
802.462	31.38
802.764	33.27
803.067	33.22
803.37	29.96
803.672	32.53
803.975	28.65
804.277	32.1
804.579	31.37
804.882	33.29
805.184	34.95
805.486	35.66
805.788	33.31
806.09	30.1
806.392	35.22
806.694	31.46
806.996	40.09
807.298	28.58
807.6	37.82
807.902	31.96
808.203	27.29
808.505	29.51
808.807	39.07
809.108	35.83
809.409	32.55
809.711	33.38
810.012	32.48
810.313	35.37
810.615	37.31
810.916	35.76
811.217	30.19
811.518	33.87
811.819	36.99
812.12	34.92
812.421	28.4
812.722	35.33
813.023	41.37
813.323	36.44
813.624	35.13
813.925	33.47
814.225	37.71
814.526	28.01
814.826	34.02
815.126	27.33
815.427	31.43
815.727	26.8
816.027	35.78
816.327	40.97
816.627	38.08
816.927	37.01
817.227	32.55
817.527	36.59
817.827	28.64
818.127	30.93
818.427	33.33
818.727	30.03
819.026	34.84
819.326	31.57
819.625	36.58
819.925	35.21
820.224	40.59
820.524	34.79
820.823	37.37
821.122	32.3
821.421	30.9
821.72	34.13
822.019	30.73
822.318	29.84
822.617	37.83
822.916	34.66
823.215	35.05
823.514	36.98
823.813	34.65
824.111	34.62
824.41	35.12
824.709	36.34
825.007	36.08
825.306	35.79
825.604	35.41
825.902	35.09
826.201	35.28
826.499	35.51
826.797	35.24
827.095	37.34
827.393	36.95
827.691	34.52
827.989	34.83
828.287	35.57
828.585	35.3
828.882	35.68
829.18	36.79
829.478	38.15
829.775	35.74
830.073	36.41
830.37	35.94
830.668	37.96
830.965	37.24
831.263	36.9
831.56	40.45
831.857	34.68
832.154	35.5
832.451	34.74
832.748	33.42
833.045	35.06
833.342	30.86
833.639	35.4
833.936	33.98
834.232	37.33
834.529	32.83
834.826	38.36
835.122	33.92
835.419	37.15
835.715	40.05
836.012	36.83
836.308	39.12
836.604	37.62
836.901	35.37
837.197	36.86
837.493	38.51
837.789	36.27
838.085	34.24
838.381	35.93
838.677	37.76
838.972	39.01
839.268	42.7
839.564	39.41
839.86	37.13
840.155	42.71
840.451	38.63
840.746	36.16
841.042	36.07
841.337	28.44
841.632	30.94
841.928	43.54
842.223	49.08
842.518	40.59
842.813	35.47
843.108	38.92
843.403	35.08
843.698	36.16
843.993	39.77
844.287	44.54
844.582	34.3
844.877	40.38
845.171	45.13
845.466	40.84
845.761	43.06
846.055	47
846.349	36.51
846.644	39.16
846.938	28.12
847.232	40.17
847.526	32.77
847.82	35.61
848.114	36.66
848.408	37.15
848.702	55.73
848.996	39.98
849.29	43.21
849.584	29.91
849.877	35.2
850.171	44.61
850.465	31.22
850.758	28.71
851.052	40.94
851.345	32.83
851.638	30.67
851.932	24.89
852.225	43.56
852.518	51.26
852.811	44.16
853.104	23.92
853.397	41.47
853.69	50
853.983	22.27
854.276	39.59
854.569	29.65
854.861	23.78
855.154	49.19
855.447	40.8
855.739	26.68
856.032	43.38
856.324	32.33
856.616	53.39
856.909	27.76
857.201	17
857.493	67.1
857.785	32.92
858.077	40.31
858.369	30.74
858.661	49.62
858.953	46.06
859.245	21.33
859.537	15.8
859.829	38.4
860.12	34.95
860.412	32.95
860.703	37.33
860.995	39.59
861.286	33.18
861.578	22.24
861.869	32.73
862.16	38.01
862.452	35.67
862.743	11.17
863.034	50.93
863.325	50.33
863.616	40.68
863.907	38.42
864.198	26.31
864.488	41.29
864.779	35.59
865.07	31.7
865.36	56.29
865.651	39.86
865.941	32.34
866.232	54.24
866.522	29.55
866.813	33.83
867.103	33.25
867.393	52.79
867.683	49.41
867.973	44.51
868.263	37.38
868.553	33.62
868.843	51.89
869.133	50.49
869.423	46.82
869.713	5.58
870.002	39.89
870.292	32.66
870.582	13.99
870.871	43.82
871.161	54.91
871.45	28.19
871.739	24.49
872.029	24.28
872.318	58.34
872.607	66.93
872.896	42.46
873.185	39.42
873.474	20.88
873.763	44.75
874.052	49.38
874.341	54.07
874.63	46.45
874.918	46.1
875.207	10.97
875.496	45.27
875.784	34.98
876.073	27.94
876.361	56.93
876.649	58.54
876.938	17.66
877.226	51.36
877.514	28.44
877.802	18.89
878.09	38.81
878.378	39.37
878.666	31.47
878.954	52.65
879.242	57.48
879.53	42.19
879.817	50.68
880.105	38.99
880.392	42
880.68	57.3
880.967	37.66
881.255	62.26
881.542	43.95
881.83	63.99
882.117	50.42
882.404	33.49
882.691	31.53
882.978	55.66
883.265	23.91
883.552	45.78
883.839	52.07
884.126	43.71
884.413	41.71
884.699	41.65
884.986	38.47
885.273	45.11
885.559	45.11
885.846	45.11
