Data from 21-9_chest_Reflection__1__31.txt Node

Date: Thu Dec 15 16:43:01 CST 2022
User: ToomeyLab
Spectrometer: FLMS14357
Trigger mode: 0
Integration Time (sec): 1.000000E-2
Scans to average: 100
Electric dark correction enabled: true
Nonlinearity correction enabled: false
Boxcar width: 0
XAxis mode: Wavelengths
Number of Pixels in Spectrum: 2048
>>>>>Begin Spectral Data<<<<<
189.047	28.69
189.435	28.69
189.823	28.69
190.211	35.86
190.599	201.36
190.987	23.6
191.375	-288.37
191.763	18.93
192.151	181.9
192.538	137.68
192.926	130.63
193.314	23.68
193.702	-47.16
194.089	172.63
194.477	-1410
194.864	135.15
195.252	-20.34
195.639	83.07
196.027	138.82
196.414	740.95
196.801	-234.72
197.189	9.98
197.576	49.62
197.963	-15.77
198.351	28.34
198.738	-52
199.125	9.09
199.512	28.23
199.899	28.3
200.286	20.2
200.673	43.45
201.06	24.57
201.447	23.62
201.833	59.67
202.22	-3.14
202.607	23.82
202.994	42.01
203.38	1.6
203.767	38.23
204.154	32.75
204.54	40.31
204.927	33.43
205.313	16.14
205.699	39.79
206.086	32.53
206.472	24.34
206.858	18.55
207.245	-15.77
207.631	17.79
208.017	52.21
208.403	-54.51
208.789	13.83
209.175	31.53
209.561	29.02
209.947	11.77
210.333	-20.75
210.719	45.16
211.105	26.37
211.491	23.42
211.876	-0.5
212.262	35.18
212.648	22.7
213.034	-11.8
213.419	26.71
213.805	-8.73
214.19	-0.98
214.576	14.63
214.961	31.28
215.346	0.61
215.732	10.06
216.117	18.22
216.502	16.83
216.888	10.04
217.273	11.72
217.658	14.22
218.043	4.73
218.428	11.89
218.813	32.14
219.198	-4.76
219.583	14.58
219.968	8.44
220.353	-9.28
220.738	12.2
221.122	14.01
221.507	-4.98
221.892	-3.45
222.276	3.8
222.661	-7.69
223.046	11.22
223.43	16.37
223.815	1.59
224.199	8.05
224.583	3.4
224.968	9.11
225.352	-0.37
225.736	12.72
226.121	2.32
226.505	4.92
226.889	9.8
227.273	7.15
227.657	5.14
228.041	5.88
228.425	-0.51
228.809	1.97
229.193	3.36
229.577	2.91
229.961	2.93
230.344	4.17
230.728	4.38
231.112	3.91
231.495	2.75
231.879	4.07
232.263	2.85
232.646	4.49
233.03	5.99
233.413	4.21
233.797	3.72
234.18	5.46
234.563	4.25
234.946	2.27
235.33	4.62
235.713	4.39
236.096	4.97
236.479	5.57
236.862	3.35
237.245	3.06
237.628	5.18
238.011	4.22
238.394	3.91
238.777	4.75
239.16	4.88
239.543	4.3
239.925	4.19
240.308	3.12
240.691	4.7
241.073	4.13
241.456	3.41
241.838	3.55
242.221	3.54
242.603	4.44
242.986	3.97
243.368	3.74
243.75	4.22
244.133	4.37
244.515	3.65
244.897	3.02
245.279	3.76
245.661	3.63
246.043	4.58
246.425	4.41
246.807	3.56
247.189	3.53
247.571	3.6
247.953	3.36
248.335	3.31
248.717	3.48
249.098	3.51
249.48	3.56
249.862	3.66
250.243	3.62
250.625	3.97
251.006	3.84
251.388	3.81
251.769	3.52
252.151	3.99
252.532	3.83
252.913	3.61
253.295	3.93
253.676	3.05
254.057	3.79
254.438	3.58
254.819	3.29
255.2	4.4
255.581	3.77
255.962	3.77
256.343	3.86
256.724	4.48
257.105	4.56
257.486	3.53
257.867	2.85
258.247	3.31
258.628	3.05
259.009	3.4
259.389	2.85
259.77	3.24
260.15	4.09
260.531	3.55
260.911	3.13
261.292	3.38
261.672	3.09
262.052	3.41
262.432	3.12
262.813	3.84
263.193	3.2
263.573	3.33
263.953	3.57
264.333	3.33
264.713	3.27
265.093	2.89
265.473	3.27
265.853	3.57
266.233	4.25
266.612	3.46
266.992	3.21
267.372	3.86
267.752	3.28
268.131	3.04
268.511	3.16
268.89	3.64
269.27	3.34
269.649	3.24
270.029	3.42
270.408	3.25
270.787	3.88
271.167	3.14
271.546	3.81
271.925	3.36
272.304	3.4
272.683	2.54
273.062	3.27
273.441	2.94
273.82	3.24
274.199	2.86
274.578	3.32
274.957	3.33
275.336	3.3
275.715	3.14
276.093	3.06
276.472	3.11
276.851	3.14
277.229	3.38
277.608	2.87
277.986	3.19
278.365	3.8
278.743	3.21
279.122	3.19
279.5	3.09
279.878	2.86
280.257	3.32
280.635	3.63
281.013	3.2
281.391	3.51
281.769	3.73
282.147	3.54
282.525	2.94
282.903	2.88
283.281	3.5
283.659	3.53
284.037	2.92
284.415	2.76
284.792	3.07
285.17	2.62
285.548	3.12
285.925	3.36
286.303	3.37
286.68	3.05
287.058	3.28
287.435	2.95
287.813	3.13
288.19	2.96
288.567	2.83
288.945	3.08
289.322	3.09
289.699	3.5
290.076	2.88
290.453	2.72
290.83	3.52
291.207	3.01
291.584	3.24
291.961	3.23
292.338	2.92
292.715	3.01
293.092	3.6
293.469	3.04
293.845	3.17
294.222	3.68
294.599	3.05
294.975	2.79
295.352	3.18
295.728	3.06
296.105	3.16
296.481	3.25
296.858	3.4
297.234	2.63
297.61	3.38
297.986	3.01
298.363	3.25
298.739	3.24
299.115	3.03
299.491	3.21
299.867	2.99
300.243	3.2
300.619	3.15
300.995	3.06
301.371	3.16
301.746	3.21
302.122	2.84
302.498	2.68
302.874	3.03
303.249	2.94
303.625	2.54
304	2.98
304.376	3.6
304.751	2.97
305.127	2.81
305.502	3.18
305.878	3.19
306.253	2.64
306.628	3.07
307.003	2.75
307.378	3.06
307.754	3.53
308.129	2.73
308.504	3.4
308.879	2.96
309.254	3.13
309.629	3.24
310.003	3.11
310.378	3.58
310.753	2.86
311.128	2.76
311.502	2.84
311.877	2.82
312.252	2.93
312.626	3.26
313.001	3.15
313.375	3.11
313.75	3.18
314.124	3.01
314.498	3.17
314.873	2.71
315.247	3.12
315.621	3.17
315.995	2.89
316.369	2.86
316.743	2.92
317.117	2.97
317.491	2.97
317.865	3.1
318.239	3.67
318.613	2.97
318.987	2.59
319.361	2.86
319.734	2.98
320.108	3.23
320.482	3.33
320.855	3.3
321.229	2.96
321.602	3.28
321.976	2.7
322.349	3.15
322.723	3.08
323.096	2.84
323.469	2.59
323.843	2.75
324.216	2.86
324.589	3.32
324.962	2.78
325.335	2.83
325.708	2.9
326.081	2.99
326.454	3.03
326.827	3.53
327.2	2.78
327.573	3.04
327.945	2.79
328.318	2.78
328.691	3.22
329.063	2.71
329.436	2.65
329.809	3.2
330.181	3.72
330.553	3.22
330.926	3.47
331.298	2.79
331.671	3.08
332.043	2.64
332.415	3.25
332.787	3.38
333.159	2.93
333.532	3.1
333.904	3.05
334.276	3.18
334.648	2.89
335.02	3.07
335.391	3.45
335.763	3.14
336.135	2.94
336.507	2.82
336.879	2.87
337.25	2.95
337.622	3.21
337.993	2.76
338.365	3
338.736	3.01
339.108	2.98
339.479	2.85
339.851	3.31
340.222	3.09
340.593	2.62
340.964	2.93
341.336	2.58
341.707	3.01
342.078	2.69
342.449	3.07
342.82	3.02
343.191	2.87
343.562	3.05
343.933	2.97
344.303	3.12
344.674	3.19
345.045	2.97
345.416	3.22
345.786	2.92
346.157	3.1
346.527	3.11
346.898	2.71
347.268	3.2
347.639	2.84
348.009	3.06
348.38	2.87
348.75	3.37
349.12	2.9
349.49	2.94
349.861	2.83
350.231	2.92
350.601	3.08
350.971	2.82
351.341	3.03
351.711	2.82
352.081	2.71
352.45	2.72
352.82	2.59
353.19	3.01
353.56	3.08
353.929	3.06
354.299	3.46
354.669	2.99
355.038	3.29
355.408	2.9
355.777	3.05
356.147	2.93
356.516	2.82
356.885	2.78
357.254	3.09
357.624	2.68
357.993	2.75
358.362	3.3
358.731	3.28
359.1	2.91
359.469	3.05
359.838	3.01
360.207	2.83
360.576	3.06
360.945	2.85
361.314	3.1
361.682	2.78
362.051	2.83
362.42	2.97
362.788	3.16
363.157	2.77
363.525	2.94
363.894	2.72
364.262	3
364.631	3.23
364.999	3.01
365.367	3.01
365.735	2.76
366.104	2.96
366.472	3.15
366.84	3.03
367.208	3.33
367.576	2.9
367.944	3.08
368.312	2.93
368.68	3.04
369.048	3.06
369.416	2.78
369.783	3.18
370.151	3.38
370.519	3.26
370.886	3.02
371.254	3.2
371.621	3.22
371.989	3.2
372.356	2.95
372.724	2.99
373.091	2.77
373.458	2.83
373.826	3.12
374.193	2.99
374.56	3.15
374.927	3.15
375.294	3.43
375.661	3.12
376.028	2.9
376.395	3.24
376.762	2.77
377.129	2.84
377.496	2.72
377.863	3.12
378.229	3.31
378.596	3.08
378.963	3.17
379.329	3.11
379.696	2.77
380.062	3.26
380.429	2.88
380.795	3.32
381.161	2.65
381.528	2.7
381.894	3.02
382.26	2.98
382.626	3.11
382.993	3.37
383.359	2.88
383.725	2.85
384.091	3.19
384.457	3.02
384.823	3.02
385.188	2.92
385.554	3.18
385.92	2.89
386.286	2.96
386.651	2.97
387.017	3.31
387.383	3.06
387.748	3.08
388.114	3.17
388.479	2.98
388.845	2.81
389.21	3.23
389.575	3.32
389.94	3.19
390.306	3.22
390.671	3.15
391.036	3.27
391.401	3.43
391.766	3.13
392.131	3.33
392.496	3.07
392.861	3.13
393.226	3.12
393.591	3.21
393.956	3.18
394.32	3.41
394.685	3.12
395.05	3.1
395.414	3.11
395.779	3.16
396.143	2.94
396.508	3.13
396.872	3.08
397.236	3.39
397.601	3.32
397.965	3.18
398.329	3.15
398.694	3.04
399.058	3.07
399.422	2.92
399.786	2.86
400.15	3.12
400.514	3.29
400.878	3.11
401.242	3.23
401.605	3.31
401.969	3.1
402.333	3.1
402.697	3.26
403.06	2.99
403.424	3.02
403.787	2.91
404.151	3.25
404.514	3.29
404.878	2.95
405.241	2.95
405.604	3.09
405.968	3.01
406.331	2.96
406.694	3.24
407.057	2.98
407.42	3.16
407.783	3.42
408.146	3.16
408.509	3.2
408.872	3.19
409.235	3.27
409.598	3.15
409.961	3.3
410.323	3.11
410.686	3.05
411.049	3.27
411.411	3.16
411.774	3.04
412.136	3.12
412.499	3.23
412.861	2.86
413.223	2.93
413.586	3.24
413.948	3.5
414.31	3.32
414.672	3.24
415.035	3.39
415.397	2.97
415.759	2.98
416.121	3.4
416.483	3.46
416.845	3.25
417.206	3.25
417.568	3.17
417.93	3.17
418.292	3.06
418.653	2.97
419.015	3.2
419.377	2.89
419.738	3.1
420.1	3.25
420.461	3.06
420.822	3.2
421.184	3.1
421.545	3.07
421.906	3.13
422.267	3.12
422.629	3.02
422.99	3.05
423.351	3.07
423.712	3.15
424.073	3.14
424.434	3.2
424.795	3.05
425.155	3
425.516	2.99
425.877	3.05
426.238	3.05
426.598	3.13
426.959	3.13
427.32	3.07
427.68	3.05
428.041	3.18
428.401	3.12
428.761	3.2
429.122	3.27
429.482	3.21
429.842	3.11
430.202	3.3
430.563	3.3
430.923	3.35
431.283	3.24
431.643	3.37
432.003	3.21
432.363	3.21
432.722	3.12
433.082	3.11
433.442	3.25
433.802	3.31
434.161	3.23
434.521	3.16
434.881	3.2
435.24	3.13
435.6	3.13
435.959	3.17
436.319	3.28
436.678	3.41
437.037	3.32
437.396	3.2
437.756	3.13
438.115	3.1
438.474	3.17
438.833	3.32
439.192	3.16
439.551	3.19
439.91	3.23
440.269	3.19
440.628	3.05
440.987	3.19
441.345	3.12
441.704	3.25
442.063	3.08
442.421	3.13
442.78	3.19
443.138	3.2
443.497	3.18
443.855	3.31
444.214	3.09
444.572	3.39
444.93	3.18
445.288	3.2
445.647	3.1
446.005	3.23
446.363	3.19
446.721	3.25
447.079	3.07
447.437	3.26
447.795	3.22
448.153	3.16
448.51	3.21
448.868	3.14
449.226	3.23
449.584	3.18
449.941	3.23
450.299	3.2
450.656	3.26
451.014	3.23
451.371	3.32
451.729	3.36
452.086	3.25
452.443	3.41
452.801	3.31
453.158	3.38
453.515	3.26
453.872	3.31
454.229	3.15
454.586	3.15
454.943	3.35
455.3	3.34
455.657	3.25
456.014	3.31
456.371	3.31
456.727	3.4
457.084	3.52
457.441	3.48
457.797	3.38
458.154	3.32
458.51	3.32
458.867	3.23
459.223	3.36
459.58	3.31
459.936	3.24
460.292	3.18
460.648	3.1
461.005	3.13
461.361	3.24
461.717	3.17
462.073	3.28
462.429	3.33
462.785	3.4
463.141	3.29
463.496	3.49
463.852	3.39
464.208	3.31
464.564	3.32
464.919	3.23
465.275	3.32
465.631	3.55
465.986	3.47
466.342	3.34
466.697	3.27
467.052	3.5
467.408	3.49
467.763	3.34
468.118	3.21
468.473	3.41
468.829	3.28
469.184	3.47
469.539	3.24
469.894	3.45
470.249	3.45
470.603	3.48
470.958	3.42
471.313	3.5
471.668	3.34
472.023	3.44
472.377	3.31
472.732	3.53
473.086	3.41
473.441	3.43
473.795	3.49
474.15	3.28
474.504	3.33
474.859	3.19
475.213	3.4
475.567	3.38
475.921	3.27
476.275	3.45
476.63	3.34
476.984	3.38
477.338	3.53
477.692	3.43
478.045	3.4
478.399	3.39
478.753	3.33
479.107	3.34
479.461	3.31
479.814	3.35
480.168	3.42
480.521	3.44
480.875	3.32
481.228	3.41
481.582	3.36
481.935	3.47
482.289	3.23
482.642	3.4
482.995	3.26
483.348	3.32
483.701	3.3
484.055	3.31
484.408	3.21
484.761	3.2
485.114	3.05
485.466	3.08
485.819	3.08
486.172	3.14
486.525	3.21
486.878	3.27
487.23	3.29
487.583	3.29
487.936	3.26
488.288	3.26
488.641	3.22
488.993	3.2
489.345	3.17
489.698	3.19
490.05	3.2
490.402	3.23
490.754	3.23
491.107	3.26
491.459	3.34
491.811	3.33
492.163	3.29
492.515	3.25
492.866	3.17
493.218	3.19
493.57	3.29
493.922	3.28
494.274	3.37
494.625	3.44
494.977	3.41
495.328	3.44
495.68	3.45
496.031	3.56
496.383	3.36
496.734	3.37
497.086	3.41
497.437	3.52
497.788	3.54
498.139	3.43
498.49	3.45
498.842	3.46
499.193	3.41
499.544	3.44
499.894	3.42
500.245	3.51
500.596	3.54
500.947	3.43
501.298	3.46
501.648	3.32
501.999	3.54
502.35	3.4
502.7	3.65
503.051	3.47
503.401	3.53
503.752	3.44
504.102	3.5
504.452	3.45
504.803	3.38
505.153	3.51
505.503	3.49
505.853	3.53
506.203	3.43
506.553	3.51
506.903	3.51
507.253	3.47
507.603	3.53
507.953	3.52
508.303	3.67
508.652	3.42
509.002	3.56
509.352	3.58
509.701	3.37
510.051	3.54
510.4	3.52
510.75	3.42
511.099	3.48
511.449	3.63
511.798	3.49
512.147	3.58
512.496	3.46
512.846	3.5
513.195	3.5
513.544	3.59
513.893	3.51
514.242	3.42
514.591	3.37
514.939	3.55
515.288	3.6
515.637	3.46
515.986	3.51
516.334	3.69
516.683	3.54
517.032	3.6
517.38	3.44
517.729	3.48
518.077	3.48
518.426	3.54
518.774	3.48
519.122	3.5
519.47	3.55
519.819	3.58
520.167	3.45
520.515	3.46
520.863	3.41
521.211	3.5
521.559	3.5
521.907	3.53
522.255	3.52
522.602	3.57
522.95	3.72
523.298	3.66
523.645	3.5
523.993	3.55
524.341	3.63
524.688	3.52
525.036	3.56
525.383	3.65
525.73	3.46
526.078	3.62
526.425	3.57
526.772	3.45
527.119	3.55
527.466	3.53
527.814	3.54
528.161	3.59
528.508	3.59
528.854	3.57
529.201	3.5
529.548	3.44
529.895	3.32
530.242	3.33
530.588	3.4
530.935	3.44
531.282	3.46
531.628	3.52
531.975	3.51
532.321	3.59
532.667	3.64
533.014	3.65
533.36	3.6
533.706	3.64
534.052	3.59
534.399	3.54
534.745	3.48
535.091	3.45
535.437	3.56
535.783	3.56
536.129	3.54
536.474	3.62
536.82	3.73
537.166	3.56
537.512	3.62
537.857	3.56
538.203	3.63
538.549	3.54
538.894	3.66
539.239	3.67
539.585	3.83
539.93	3.71
540.276	3.68
540.621	3.76
540.966	3.77
541.311	3.8
541.656	3.68
542.001	3.7
542.346	3.63
542.691	3.58
543.036	3.57
543.381	3.58
543.726	3.65
544.071	3.67
544.415	3.67
544.76	3.7
545.105	3.66
545.449	3.78
545.794	3.67
546.138	3.72
546.483	3.82
546.827	3.74
547.171	3.73
547.516	3.83
547.86	3.76
548.204	3.77
548.548	3.74
548.892	3.87
549.236	3.78
549.58	3.86
549.924	3.85
550.268	3.87
550.612	3.81
550.956	3.99
551.3	4.11
551.643	3.97
551.987	4.01
552.33	4.22
552.674	3.95
553.017	4.14
553.361	4.11
553.704	4
554.048	3.92
554.391	3.91
554.734	3.84
555.077	3.99
555.42	4.03
555.764	3.95
556.107	4.12
556.45	4.07
556.793	4.26
557.135	4.01
557.478	3.93
557.821	4.09
558.164	4.05
558.507	4.09
558.849	4.05
559.192	3.95
559.534	4.11
559.877	4.05
560.219	4.08
560.562	4.03
560.904	4.32
561.246	4.07
561.589	4.01
561.931	4.13
562.273	4.06
562.615	4.02
562.957	3.99
563.299	4.12
563.641	4.06
563.983	4.01
564.325	4.19
564.667	4.12
565.008	3.99
565.35	4.14
565.692	4.12
566.033	4.06
566.375	4.14
566.716	3.98
567.058	4.26
567.399	4.15
567.741	4.2
568.082	4.15
568.423	4.11
568.764	4.2
569.105	4.26
569.447	4.03
569.788	4.22
570.129	4.16
570.47	4.33
570.811	4.32
571.151	4.28
571.492	4.3
571.833	4.19
572.174	4.43
572.514	4.26
572.855	4.3
573.195	4.31
573.536	4.47
573.876	4.35
574.217	4.21
574.557	4.26
574.898	4.31
575.238	4.57
575.578	4.46
575.918	4.47
576.258	4.53
576.598	4.36
576.938	4.34
577.278	4.39
577.618	4.3
577.958	4.5
578.298	4.41
578.638	4.29
578.977	4.61
579.317	4.59
579.657	4.55
579.996	4.67
580.336	4.65
580.675	4.51
581.014	4.61
581.354	4.43
581.693	4.75
582.032	4.7
582.372	4.79
582.711	4.84
583.05	4.54
583.389	4.48
583.728	4.58
584.067	4.77
584.406	4.64
584.745	4.33
585.083	4.76
585.422	4.89
585.761	4.83
586.1	4.84
586.438	4.69
586.777	4.72
587.115	4.98
587.454	4.67
587.792	4.64
588.13	4.59
588.469	4.61
588.807	4.58
589.145	4.72
589.483	4.57
589.821	4.8
590.159	4.77
590.497	4.83
590.835	4.77
591.173	5.01
591.511	4.96
591.849	4.89
592.187	4.64
592.524	4.66
592.862	4.68
593.2	4.9
593.537	4.95
593.875	4.85
594.212	4.94
594.55	4.96
594.887	4.99
595.224	5.34
595.561	4.91
595.899	4.95
596.236	5.02
596.573	4.87
596.91	4.82
597.247	5.07
597.584	5
597.921	4.83
598.258	5.31
598.594	4.95
598.931	4.84
599.268	4.95
599.604	5.09
599.941	4.99
600.277	5.12
600.614	5.06
600.95	5.03
601.287	4.86
601.623	4.82
601.959	5.34
602.296	5.53
602.632	5.17
602.968	5.25
603.304	5.24
603.64	5.25
603.976	5.11
604.312	5.05
604.648	5.27
604.984	5.25
605.319	5.16
605.655	5.27
605.991	5.09
606.326	5.18
606.662	5
606.998	5.38
607.333	5.41
607.668	5.15
608.004	5.33
608.339	5.33
608.674	5.24
609.01	5.61
609.345	5.38
609.68	5.39
610.015	5.52
610.35	5.51
610.685	5.13
611.02	5.35
611.355	5.29
611.689	5.51
612.024	5.44
612.359	5.6
612.694	5.8
613.028	5.53
613.363	5.62
613.697	5.73
614.032	5.7
614.366	5.53
614.7	5.5
615.035	5.84
615.369	5.64
615.703	5.86
616.037	5.75
616.371	5.55
616.705	5.76
617.039	5.56
617.373	5.8
617.707	6.05
618.041	6.03
618.375	5.08
618.709	5.94
619.042	6.04
619.376	5.7
619.71	5.95
620.043	5.73
620.377	5.66
620.71	5.81
621.043	6.24
621.377	5.92
621.71	5.93
622.043	6.01
622.376	5.8
622.709	6.3
623.043	5.85
623.376	5.86
623.709	6.23
624.041	5.9
624.374	5.9
624.707	6.07
625.04	5.72
625.373	5.95
625.705	6.22
626.038	6.19
626.37	5.93
626.703	6.21
627.035	6.24
627.368	6.32
627.7	5.76
628.032	6.03
628.365	6.36
628.697	6.33
629.029	6.06
629.361	6.33
629.693	6.26
630.025	6
630.357	6.49
630.689	6.32
631.021	6.24
631.353	6.32
631.684	6.2
632.016	6
632.348	6.08
632.679	6.42
633.011	6.18
633.342	6.11
633.674	6.16
634.005	6.53
634.336	6.49
634.668	6.52
634.999	6.43
635.33	6.42
635.661	6.34
635.992	6.54
636.323	6.39
636.654	6.69
636.985	6.44
637.316	6.55
637.647	6.53
637.977	6.41
638.308	6.71
638.639	6.39
638.969	6.29
639.3	6.51
639.63	6.47
639.961	6.89
640.291	6.44
640.622	6.99
640.952	6.84
641.282	6.29
641.612	6.38
641.943	6.63
642.273	6.63
642.603	6.58
642.933	7.07
643.263	7.24
643.592	7.05
643.922	7.49
644.252	6.79
644.582	6.98
644.911	6.72
645.241	7.13
645.571	7.04
645.9	7.08
646.23	7.06
646.559	6.89
646.888	7.6
647.218	7.5
647.547	7.04
647.876	7.15
648.205	6.74
648.534	6.97
648.863	7.12
649.192	7.09
649.521	7.07
649.85	7.24
650.179	7.2
650.508	6.72
650.837	7.44
651.165	7.05
651.494	7.16
651.822	7.22
652.151	6.91
652.479	7.01
652.808	7.46
653.136	7.11
653.465	6.93
653.793	7.23
654.121	7.63
654.449	6.95
654.777	7.24
655.105	7.09
655.433	7.99
655.761	7.37
656.089	7.81
656.417	8.09
656.745	7.91
657.073	7.31
657.4	7.57
657.728	7.55
658.056	7.54
658.383	7.39
658.711	8.02
659.038	8.23
659.365	7.72
659.693	8.1
660.02	7.47
660.347	8.04
660.674	7.38
661.001	7.64
661.329	7.46
661.656	7.31
661.982	7.67
662.309	7.58
662.636	7.68
662.963	7.77
663.29	7.9
663.616	7.9
663.943	8.03
664.27	7.67
664.596	7.52
664.923	8.39
665.249	8.26
665.576	7.66
665.902	7.75
666.228	8.08
666.554	8.21
666.881	7.85
667.207	8.18
667.533	8.28
667.859	7.57
668.185	8.1
668.511	8.5
668.837	7.71
669.162	8.3
669.488	7.81
669.814	7.44
670.139	7.71
670.465	8.73
670.791	7.81
671.116	7.91
671.442	8.06
671.767	8.15
672.092	8.41
672.418	8.23
672.743	7.8
673.068	7.89
673.393	8.5
673.718	8.07
674.043	7.82
674.368	7.87
674.693	8.55
675.018	8.65
675.343	9.07
675.667	8.4
675.992	8.47
676.317	8.52
676.641	8.71
676.966	8.44
677.29	8.16
677.615	8.26
677.939	8.89
678.264	8.68
678.588	8.97
678.912	8.46
679.236	8.76
679.56	8.24
679.885	8.65
680.209	8.72
680.532	8.87
680.856	9.09
681.18	9.44
681.504	8.5
681.828	8.54
682.152	8.89
682.475	8.78
682.799	8.36
683.122	9.17
683.446	8.74
683.769	9.19
684.093	8.78
684.416	8.83
684.739	8.96
685.062	8.91
685.386	9.39
685.709	9.32
686.032	9.29
686.355	9.2
686.678	9.54
687.001	9.03
687.324	9.23
687.646	9.1
687.969	8.99
688.292	9.33
688.614	9.26
688.937	9.42
689.26	9.71
689.582	9.31
689.904	9.74
690.227	10.34
690.549	9.13
690.871	9
691.194	9.3
691.516	9.17
691.838	9.95
692.16	9.37
692.482	9.73
692.804	9.44
693.126	9.4
693.448	10.11
693.769	9.52
694.091	9.47
694.413	9.27
694.735	9.9
695.056	9.46
695.378	8.84
695.699	8.96
696.021	10.24
696.342	9.39
696.663	10.37
696.984	8.9
697.306	9.15
697.627	10
697.948	9.87
698.269	10.47
698.59	9.71
698.911	9.32
699.232	10.08
699.553	10.26
699.873	9.47
700.194	9.49
700.515	9.24
700.835	9.64
701.156	9.86
701.477	9.88
701.797	9.44
702.117	9.4
702.438	9.91
702.758	9.98
703.078	10.47
703.398	10.17
703.719	10.16
704.039	10.49
704.359	10.41
704.679	10.11
704.999	10.54
705.319	9.43
705.638	10.19
705.958	10.65
706.278	9.95
706.597	9.19
706.917	10.76
707.237	10.77
707.556	11.14
707.876	10.94
708.195	10.93
708.514	10
708.834	10.22
709.153	10.79
709.472	11.35
709.791	10.8
710.11	11.18
710.429	11.29
710.748	11.03
711.067	11.37
711.386	10.47
711.705	10.62
712.023	11.43
712.342	10.81
712.661	11.24
712.979	10.88
713.298	10.61
713.616	10.7
713.935	10.81
714.253	11.29
714.572	9.9
714.89	11.63
715.208	10.68
715.526	11.44
715.844	10.11
716.162	10.85
716.48	10.85
716.798	10.69
717.116	10.84
717.434	10.93
717.752	11.09
718.069	10.97
718.387	11.17
718.705	11.36
719.022	11.77
719.34	10.48
719.657	12.59
719.975	11.23
720.292	11.5
720.609	10.83
720.927	10.89
721.244	12.28
721.561	10.8
721.878	10.94
722.195	12.08
722.512	13.06
722.829	11.57
723.146	12.08
723.463	11.63
723.779	10.72
724.096	11.05
724.413	12.41
724.729	12.37
725.046	11.03
725.362	12.19
725.679	11.42
725.995	11.46
726.311	11.34
726.628	12.5
726.944	12.16
727.26	12.45
727.576	12.87
727.892	12.83
728.208	12.36
728.524	10.96
728.84	10.9
729.156	10.43
729.472	12.15
729.787	12.06
730.103	12.15
730.419	10.72
730.734	11.08
731.05	11.29
731.365	13
731.681	12.67
731.996	13.12
732.311	11.75
732.626	12.46
732.942	12.39
733.257	12.57
733.572	12.46
733.887	13.82
734.202	13.19
734.517	12.81
734.832	11.71
735.146	12.19
735.461	12.14
735.776	12.88
736.091	11.58
736.405	12.44
736.72	12.55
737.034	13.28
737.349	12.39
737.663	12.69
737.977	13.54
738.292	11.1
738.606	13.42
738.92	14.36
739.234	12.97
739.548	12.07
739.862	13.47
740.176	12.35
740.49	11.32
740.804	13.02
741.117	12.9
741.431	13.03
741.745	12.22
742.058	13.64
742.372	12.77
742.685	14.39
742.999	12.33
743.312	12.29
743.626	12.91
743.939	12.6
744.252	12.69
744.565	15.06
744.878	12.4
745.191	13.57
745.505	13.64
745.817	13.72
746.13	14.28
746.443	12.23
746.756	13.79
747.069	13.94
747.381	14.59
747.694	14.44
748.007	13.72
748.319	15.43
748.632	12.36
748.944	12.71
749.256	14.12
749.569	13.22
749.881	14.64
750.193	14.66
750.505	12.97
750.817	15.19
751.129	14.08
751.441	14.49
751.753	16.24
752.065	12.93
752.377	13.32
752.689	13.24
753	13.86
753.312	15.47
753.624	11.29
753.935	12.42
754.247	13.23
754.558	12.92
754.869	15.32
755.181	12.3
755.492	13.06
755.803	14.28
756.114	13.76
756.425	11.72
756.736	13.8
757.047	14.93
757.358	14.57
757.669	13.57
757.98	12.47
758.291	14.14
758.601	15.66
758.912	13.2
759.223	13.78
759.533	14.46
759.844	13.06
760.154	15.42
760.464	12.44
760.775	16.43
761.085	15.07
761.395	14.47
761.705	15.26
762.016	15.38
762.326	16
762.636	16.26
762.945	13.96
763.255	14.57
763.565	15.18
763.875	13.55
764.185	15.23
764.494	14.5
764.804	13.39
765.113	14.47
765.423	14.66
765.732	14.14
766.042	15.57
766.351	15.59
766.66	15.27
766.97	14.71
767.279	15.79
767.588	13.38
767.897	13.77
768.206	14.46
768.515	14.5
768.824	16.51
769.133	14.03
769.441	13.27
769.75	14.17
770.059	15.63
770.367	17.45
770.676	14.78
770.984	13.38
771.293	15.35
771.601	14.42
771.91	14.02
772.218	15.64
772.526	14.22
772.834	14.79
773.142	16.16
773.45	14.96
773.758	16.42
774.066	17.58
774.374	17.43
774.682	14.5
774.99	14.23
775.298	15.27
775.605	14.91
775.913	16.56
776.22	14.95
776.528	15.97
776.835	17.68
777.143	18.23
777.45	14.73
777.757	16.81
778.065	15.84
778.372	15.83
778.679	19.55
778.986	18.48
779.293	13.92
779.6	14.67
779.907	18.21
780.214	14.85
780.52	17.05
780.827	17.89
781.134	16.79
781.44	19.95
781.747	19.62
782.053	16.27
782.36	16.31
782.666	13.86
782.973	12.45
783.279	16.17
783.585	18.7
783.891	18.13
784.197	19.16
784.503	16.42
784.809	19.19
785.115	21.08
785.421	20.56
785.727	15.37
786.033	18.57
786.339	21.49
786.644	13.86
786.95	13.33
787.255	16.67
787.561	14.64
787.866	16.03
788.172	18.15
788.477	17.04
788.782	11.95
789.088	13.3
789.393	15.95
789.698	17.53
790.003	18.44
790.308	17.23
790.613	16.88
790.918	15.69
791.223	18.01
791.527	16.72
791.832	17.15
792.137	20.86
792.441	16.11
792.746	19.33
793.05	17.94
793.355	18.24
793.659	15.57
793.963	17.56
794.268	20.13
794.572	17.3
794.876	17.58
795.18	20.85
795.484	19.3
795.788	21.04
796.092	16.94
796.396	13.83
796.7	14.55
797.004	17.02
797.307	17.85
797.611	19.36
797.915	17.41
798.218	18.33
798.522	14.5
798.825	20.22
799.128	19.53
799.432	15.1
799.735	15.82
800.038	19.4
800.341	20.06
800.644	15.3
800.947	21.05
801.25	15.81
801.553	18.42
801.856	19.5
802.159	17.97
802.462	19.86
802.764	19.63
803.067	19.17
803.37	20.81
803.672	9.79
803.975	19.43
804.277	13.96
804.579	15.79
804.882	23.53
805.184	18.15
805.486	22.39
805.788	22.72
806.09	17.8
806.392	17.79
806.694	22.7
806.996	19.17
807.298	14.38
807.6	22.23
807.902	17.43
808.203	12.92
808.505	15.64
808.807	22.17
809.108	21.81
809.409	21.74
809.711	16.96
810.012	19.92
810.313	19.03
810.615	24.64
810.916	16.42
811.217	13.37
811.518	16.02
811.819	16.69
812.12	21.31
812.421	13.09
812.722	18.64
813.023	24.84
813.323	19.37
813.624	23.32
813.925	21.03
814.225	28.59
814.526	10.84
814.826	15.51
815.126	16.1
815.427	22.85
815.727	21.82
816.027	21.02
816.327	24.71
816.627	22.6
816.927	17.19
817.227	16.95
817.527	20.84
817.827	19.24
818.127	18.23
818.427	17.81
818.727	16.37
819.026	19.89
819.326	15.49
819.625	21.45
819.925	22.12
820.224	25.37
820.524	16.62
820.823	23.34
821.122	18.59
821.421	18.5
821.72	23.64
822.019	15.74
822.318	19.8
822.617	19.77
822.916	16.03
823.215	19.53
823.514	21.85
823.813	19.75
824.111	19.1
824.41	20.41
824.709	20.06
825.007	19.83
825.306	20.4
825.604	20.44
825.902	20.76
826.201	20.03
826.499	19.92
826.797	20.98
827.095	21.44
827.393	22.07
827.691	21.9
827.989	22.75
828.287	22.69
828.585	20.42
828.882	19.67
829.18	19.79
829.478	22.17
829.775	20.93
830.073	20.65
830.37	21.04
830.668	21.9
830.965	21.93
831.263	19
831.56	22.7
831.857	23.54
832.154	21.56
832.451	21.91
832.748	19.35
833.045	22.58
833.342	19.29
833.639	22.7
833.936	20.33
834.232	21.68
834.529	19.87
834.826	29.4
835.122	17.64
835.419	24.59
835.715	23.58
836.012	19.77
836.308	25
836.604	21.5
836.901	21.5
837.197	22.75
837.493	22.47
837.789	23.16
838.085	19.76
838.381	26.03
838.677	24.63
838.972	19.66
839.268	24.07
839.564	27.86
839.86	17.66
840.155	22.88
840.451	28.29
840.746	25.55
841.042	19.7
841.337	23.9
841.632	21.9
841.928	24.83
842.223	15.66
842.518	26.24
842.813	25.33
843.108	26.63
843.403	21.94
843.698	24.88
843.993	32.68
844.287	25.31
844.582	31.34
844.877	31.72
845.171	20.5
845.466	30.52
845.761	27.86
846.055	29.43
846.349	26.21
846.644	15.13
846.938	29.29
847.232	36.34
847.526	27.88
847.82	33.59
848.114	22.58
848.408	26.58
848.702	41.2
848.996	36.52
849.29	28.57
849.584	29.84
849.877	19.8
850.171	17.3
850.465	31.16
850.758	13.27
851.052	24.28
851.345	29.46
851.638	11.63
851.932	20.31
852.225	26.19
852.518	31.31
852.811	21.33
853.104	29.84
853.397	34.34
853.69	22.59
853.983	41.08
854.276	22.6
854.569	15.58
854.861	23.88
855.154	27.83
855.447	23.36
855.739	-2.23
856.032	32.82
856.324	18.1
856.616	23.02
856.909	20.68
857.201	13.73
857.493	16.89
857.785	36.44
858.077	15.9
858.369	35.08
858.661	10.2
858.953	27.26
859.245	37.27
859.537	7.48
859.829	44.42
860.12	31.79
860.412	17.25
860.703	39.83
860.995	39.02
861.286	10.16
861.578	22.69
861.869	16.65
862.16	18.5
862.452	33.85
862.743	14.01
863.034	28.68
863.325	41.12
863.616	37.54
863.907	32.85
864.198	19.98
864.488	37.28
864.779	28.6
865.07	27.94
865.36	42.4
865.651	39.63
865.941	27.09
866.232	43.61
866.522	40.27
866.813	27.84
867.103	13.87
867.393	30.45
867.683	19.36
867.973	15.23
868.263	21.56
868.553	10.86
868.843	11.59
869.133	33.28
869.423	23.82
869.713	5.57
870.002	45.7
870.292	37.07
870.582	20.68
870.871	24.04
871.161	28.24
871.45	12.57
871.739	28.57
872.029	34.45
872.318	42.52
872.607	51.16
872.896	27.86
873.185	57
873.474	15.6
873.763	42.78
874.052	26.92
874.341	22.17
874.63	34.54
874.918	37.85
875.207	20.45
875.496	30.38
875.784	31.74
876.073	38.82
876.361	55.57
876.649	43.47
876.938	46.81
877.226	50.53
877.514	38.06
877.802	3.79
878.09	31.97
878.378	26.08
878.666	25.62
878.954	35.17
879.242	54.72
879.53	46.7
879.817	17.51
880.105	41.27
880.392	34.39
880.68	59.92
880.967	33.35
881.255	38.59
881.542	34.7
881.83	39.04
882.117	27.22
882.404	19.54
882.691	21.33
882.978	26.55
883.265	29.45
883.552	25.41
883.839	40.21
884.126	27
884.413	33.88
884.699	26.51
884.986	28.07
885.273	29.78
885.559	29.78
885.846	29.78
