Data from 21-9_forehead_Reflection__3__43.txt Node

Date: Thu Dec 15 16:46:25 CST 2022
User: ToomeyLab
Spectrometer: FLMS14357
Trigger mode: 0
Integration Time (sec): 1.000000E-2
Scans to average: 100
Electric dark correction enabled: true
Nonlinearity correction enabled: false
Boxcar width: 0
XAxis mode: Wavelengths
Number of Pixels in Spectrum: 2048
>>>>>Begin Spectral Data<<<<<
189.047	39.54
189.435	39.54
189.823	39.54
190.211	-11.65
190.599	141.58
190.987	61.75
191.375	157.76
191.763	-31.03
192.151	72.83
192.538	27.72
192.926	-38.95
193.314	-35.48
193.702	-55.24
194.089	-263.97
194.477	-2609.2
194.864	158.92
195.252	423.03
195.639	68.78
196.027	-89.13
196.414	406.56
196.801	141.69
197.189	152.72
197.576	60.05
197.963	36.44
198.351	88.57
198.738	36.77
199.125	-15.66
199.512	71.3
199.899	4.76
200.286	9.48
200.673	86.79
201.06	33.4
201.447	33.08
201.833	78.99
202.22	36.66
202.607	-5.07
202.994	35
203.38	52.93
203.767	40.09
204.154	32.96
204.54	52.49
204.927	52.56
205.313	41.86
205.699	26.42
206.086	52.4
206.472	51.6
206.858	47.72
207.245	27.58
207.631	2.6
208.017	45.09
208.403	10.32
208.789	54.68
209.175	65.56
209.561	27.07
209.947	11.93
210.333	29.48
210.719	25.79
211.105	44.35
211.491	32.6
211.876	21.54
212.262	55.93
212.648	36.36
213.034	-0.27
213.419	38.72
213.805	35.91
214.19	31.14
214.576	11.59
214.961	37.23
215.346	33.95
215.732	24.86
216.117	24.68
216.502	37.66
216.888	42.16
217.273	25.25
217.658	8.13
218.043	5.58
218.428	28.8
218.813	24.74
219.198	-25.48
219.583	18.13
219.968	24.69
220.353	3.47
220.738	5.57
221.122	18.7
221.507	11.42
221.892	-1.12
222.276	1.9
222.661	15.96
223.046	4.19
223.43	26.17
223.815	19.02
224.199	10.33
224.583	8.4
224.968	6.61
225.352	8.02
225.736	10.9
226.121	4.17
226.505	10.7
226.889	8.56
227.273	4.21
227.657	9.11
228.041	5.05
228.425	6.14
228.809	4.13
229.193	5.23
229.577	2.66
229.961	2.95
230.344	3.57
230.728	3.76
231.112	3.07
231.495	2.09
231.879	3.37
232.263	4.15
232.646	3.57
233.03	5.29
233.413	4.76
233.797	3.48
234.18	3.78
234.563	5.06
234.946	2.75
235.33	4.01
235.713	3.89
236.096	4.49
236.479	4.96
236.862	2.51
237.245	3.15
237.628	4.98
238.011	3.89
238.394	2.54
238.777	4.63
239.16	6.57
239.543	4.61
239.925	3.89
240.308	3.04
240.691	4.9
241.073	3.84
241.456	4.04
241.838	3.58
242.221	3.49
242.603	3.46
242.986	3.35
243.368	3.37
243.75	3.38
244.133	3.47
244.515	3.37
244.897	3.39
245.279	3.08
245.661	3.48
246.043	3.86
246.425	3.81
246.807	4.15
247.189	3.18
247.571	2.93
247.953	3.16
248.335	3.23
248.717	3.33
249.098	3.23
249.48	3.23
249.862	3.6
250.243	3.41
250.625	3.67
251.006	3.94
251.388	3.63
251.769	3.44
252.151	4.09
252.532	4.3
252.913	4.01
253.295	3.72
253.676	3.36
254.057	3.72
254.438	3.75
254.819	3.59
255.2	4.14
255.581	5.23
255.962	5.02
256.343	5.15
256.724	4.13
257.105	4.51
257.486	2.5
257.867	5.1
258.247	3.75
258.628	4.03
259.009	3.74
259.389	3.28
259.77	3.31
260.15	4.28
260.531	3.78
260.911	3.29
261.292	3.3
261.672	3.26
262.052	3.36
262.432	3.02
262.813	3.44
263.193	3.74
263.573	3.35
263.953	3.62
264.333	3.67
264.713	3.6
265.093	3.37
265.473	3.82
265.853	3.74
266.233	3.56
266.612	2.97
266.992	4.27
267.372	4.11
267.752	3.89
268.131	3.45
268.511	3.56
268.89	3.97
269.27	3.02
269.649	3.19
270.029	3.26
270.408	3.3
270.787	3.64
271.167	3.44
271.546	3.77
271.925	3.06
272.304	3.49
272.683	3.15
273.062	3.09
273.441	3.03
273.82	3.35
274.199	3.37
274.578	3.31
274.957	3.26
275.336	3.44
275.715	3.66
276.093	3.16
276.472	3.27
276.851	2.95
277.229	3.09
277.608	3.17
277.986	3.33
278.365	3.93
278.743	3.36
279.122	3.09
279.5	3.25
279.878	3.57
280.257	3.24
280.635	3.1
281.013	3.27
281.391	3.22
281.769	3.78
282.147	3.2
282.525	3.19
282.903	3.21
283.281	3.7
283.659	3.21
284.037	3.14
284.415	3.06
284.792	3.15
285.17	3.21
285.548	3.22
285.925	3.1
286.303	3.69
286.68	3.47
287.058	3.19
287.435	3.09
287.813	3.41
288.19	3.13
288.567	3.21
288.945	3.58
289.322	3.83
289.699	3.36
290.076	3.12
290.453	3.27
290.83	3.62
291.207	3.63
291.584	3.71
291.961	3.52
292.338	3.18
292.715	3.18
293.092	4.08
293.469	3.91
293.845	3.83
294.222	4.02
294.599	3.75
294.975	3.21
295.352	4.09
295.728	4.05
296.105	3.89
296.481	4.12
296.858	3.79
297.234	3.67
297.61	3.71
297.986	4.27
298.363	3.83
298.739	3.87
299.115	3.77
299.491	3.76
299.867	3.86
300.243	3.97
300.619	3.91
300.995	4.31
301.371	3.85
301.746	4.26
302.122	4.05
302.498	4.51
302.874	4.19
303.249	4.56
303.625	3.73
304	4.69
304.376	4.89
304.751	4.34
305.127	4.15
305.502	4.72
305.878	4.49
306.253	4.23
306.628	4.86
307.003	4.9
307.378	4.78
307.754	4.85
308.129	4.77
308.504	5.07
308.879	4.84
309.254	5.43
309.629	5.26
310.003	5.19
310.378	5.44
310.753	5.48
311.128	5.07
311.502	5.59
311.877	5.34
312.252	5.59
312.626	5.84
313.001	5.76
313.375	5.88
313.75	5.83
314.124	6.16
314.498	6.1
314.873	5.76
315.247	6.09
315.621	5.96
315.995	6.07
316.369	5.69
316.743	6.12
317.117	6.59
317.491	6.65
317.865	6.33
318.239	6.96
318.613	6.85
318.987	6.05
319.361	6.88
319.734	7.07
320.108	6.65
320.482	7.01
320.855	7.07
321.229	6.85
321.602	6.97
321.976	6.99
322.349	8.2
322.723	7.79
323.096	7.66
323.469	8.06
323.843	7.2
324.216	7.38
324.589	7.74
324.962	7.55
325.335	7.48
325.708	7.91
326.081	7.9
326.454	8.68
326.827	7.97
327.2	7.37
327.573	8.75
327.945	8.07
328.318	8.14
328.691	8.3
329.063	7.99
329.436	7.84
329.809	9.09
330.181	9.4
330.553	8.57
330.926	8.74
331.298	8.59
331.671	9.29
332.043	8.77
332.415	9.2
332.787	9.38
333.159	9
333.532	8.83
333.904	9.45
334.276	9.22
334.648	9.66
335.02	9.5
335.391	9.58
335.763	9.48
336.135	9.72
336.507	9.36
336.879	9.48
337.25	9.54
337.622	9.62
337.993	9.58
338.365	9.77
338.736	9.47
339.108	9.69
339.479	9.79
339.851	9.69
340.222	10.12
340.593	9.7
340.964	9.86
341.336	10.17
341.707	9.87
342.078	9.7
342.449	9.65
342.82	10.28
343.191	10.05
343.562	10.21
343.933	10.04
344.303	10.63
344.674	10.54
345.045	10.49
345.416	10.67
345.786	10.35
346.157	10.4
346.527	10.61
346.898	10.2
347.268	10.55
347.639	10.86
348.009	10.83
348.38	10.87
348.75	11.05
349.12	11.51
349.49	10.7
349.861	10.91
350.231	11.52
350.601	11.07
350.971	10.99
351.341	10.96
351.711	11.26
352.081	10.96
352.45	11.01
352.82	10.82
353.19	11.32
353.56	11.12
353.929	11.51
354.299	11.16
354.669	11.54
355.038	11.93
355.408	11.58
355.777	12.07
356.147	11.41
356.516	11.63
356.885	11.65
357.254	11.45
357.624	11.49
357.993	11.9
358.362	11.91
358.731	12.02
359.1	12.03
359.469	11.93
359.838	11.92
360.207	12.1
360.576	12.47
360.945	12.12
361.314	11.94
361.682	11.97
362.051	12.23
362.42	12.54
362.788	12.31
363.157	12.19
363.525	12.2
363.894	12.22
364.262	12.53
364.631	12.65
364.999	12.47
365.367	12.44
365.735	12.68
366.104	12.57
366.472	12.47
366.84	12.76
367.208	12.8
367.576	12.92
367.944	12.67
368.312	13.01
368.68	13.45
369.048	12.87
369.416	12.72
369.783	13.04
370.151	13.28
370.519	13.27
370.886	13.41
371.254	13.41
371.621	13.26
371.989	13.56
372.356	13.3
372.724	13.18
373.091	13.28
373.458	13.43
373.826	13.64
374.193	13.74
374.56	13.63
374.927	13.35
375.294	13.96
375.661	13.64
376.028	13.45
376.395	13.87
376.762	13.6
377.129	14.04
377.496	13.81
377.863	13.78
378.229	14.2
378.596	13.97
378.963	14.05
379.329	14
379.696	13.95
380.062	13.99
380.429	13.85
380.795	14.24
381.161	13.7
381.528	14.06
381.894	14.1
382.26	14.17
382.626	14.26
382.993	14.5
383.359	14.18
383.725	14.02
384.091	14.63
384.457	14.27
384.823	14.45
385.188	14.49
385.554	14.35
385.92	14.66
386.286	14.46
386.651	14.44
387.017	14.73
387.383	14.45
387.748	14.75
388.114	14.71
388.479	14.51
388.845	14.37
389.21	14.66
389.575	14.84
389.94	14.87
390.306	15.06
390.671	14.77
391.036	14.8
391.401	14.81
391.766	14.88
392.131	15.16
392.496	14.66
392.861	14.69
393.226	14.73
393.591	14.84
393.956	15.07
394.32	15.08
394.685	14.82
395.05	14.93
395.414	14.82
395.779	14.98
396.143	14.92
396.508	15.06
396.872	15.01
397.236	15.47
397.601	15.07
397.965	15.04
398.329	15.36
398.694	14.92
399.058	15.2
399.422	15.05
399.786	15.1
400.15	15.05
400.514	15.23
400.878	14.93
401.242	15.3
401.605	15.15
401.969	15.08
402.333	15.1
402.697	15.47
403.06	15.1
403.424	15.29
403.787	15.22
404.151	15.2
404.514	15.37
404.878	14.89
405.241	15.14
405.604	15.22
405.968	15.2
406.331	15.01
406.694	15.03
407.057	15.21
407.42	15.19
407.783	15.24
408.146	15.19
408.509	15.43
408.872	15.35
409.235	15.22
409.598	15.38
409.961	15.36
410.323	15.2
410.686	15.15
411.049	15.37
411.411	15.52
411.774	15.27
412.136	15.35
412.499	15.5
412.861	15.27
413.223	15.43
413.586	15.79
413.948	15.66
414.31	15.45
414.672	15.34
415.035	15.93
415.397	15.34
415.759	15.38
416.121	16.14
416.483	16.01
416.845	15.68
417.206	15.63
417.568	15.8
417.93	16.05
418.292	15.79
418.653	15.87
419.015	15.92
419.377	15.92
419.738	16.11
420.1	16.13
420.461	16.17
420.822	16.21
421.184	16.29
421.545	16.32
421.906	16.27
422.267	16.32
422.629	16.3
422.99	16.43
423.351	16.53
423.712	16.62
424.073	16.81
424.434	16.88
424.795	16.98
425.155	16.91
425.516	16.97
425.877	17.17
426.238	17.23
426.598	17.16
426.959	17.27
427.32	17.56
427.68	17.66
428.041	17.93
428.401	17.89
428.761	18.13
429.122	18.11
429.482	18.3
429.842	18.26
430.202	18.39
430.563	18.5
430.923	18.58
431.283	18.92
431.643	18.85
432.003	18.97
432.363	19.1
432.722	19.11
433.082	19.11
433.442	19.36
433.802	19.37
434.161	19.39
434.521	19.35
434.881	19.44
435.24	19.51
435.6	19.69
435.959	19.69
436.319	19.69
436.678	19.81
437.037	19.95
437.396	20.24
437.756	20.05
438.115	20.28
438.474	20.18
438.833	20.23
439.192	20.37
439.551	20.31
439.91	20.45
440.269	20.56
440.628	20.71
440.987	20.68
441.345	20.49
441.704	20.63
442.063	20.74
442.421	20.83
442.78	20.88
443.138	20.86
443.497	20.94
443.855	21.26
444.214	21.08
444.572	21.52
444.93	21.55
445.288	21.67
445.647	21.44
446.005	21.66
446.363	21.67
446.721	21.63
447.079	21.55
447.437	21.73
447.795	21.67
448.153	21.65
448.51	21.81
448.868	21.77
449.226	21.97
449.584	22.06
449.941	22.05
450.299	22.23
450.656	22.45
451.014	22.58
451.371	22.57
451.729	22.71
452.086	22.75
452.443	22.95
452.801	22.94
453.158	23.07
453.515	22.95
453.872	23.17
454.229	22.89
454.586	23.06
454.943	23.35
455.3	23.46
455.657	23.44
456.014	23.32
456.371	23.65
456.727	23.84
457.084	23.86
457.441	23.95
457.797	23.94
458.154	23.77
458.51	23.83
458.867	23.79
459.223	24.09
459.58	24.16
459.936	24.23
460.292	24.09
460.648	23.99
461.005	23.89
461.361	24
461.717	23.94
462.073	24.1
462.429	24.27
462.785	24.48
463.141	24.67
463.496	24.74
463.852	24.9
464.208	24.82
464.564	25.09
464.919	24.96
465.275	24.99
465.631	25.37
465.986	25.23
466.342	25.12
466.697	25.34
467.052	25.59
467.408	25.4
467.763	25.59
468.118	25.55
468.473	25.59
468.829	25.72
469.184	25.74
469.539	25.61
469.894	25.79
470.249	26.1
470.603	25.91
470.958	26.22
471.313	26.21
471.668	26.15
472.023	26.24
472.377	26.35
472.732	26.3
473.086	26.25
473.441	26.29
473.795	26.58
474.15	26.45
474.504	26.39
474.859	26.52
475.213	26.67
475.567	26.74
475.921	26.61
476.275	26.9
476.63	26.8
476.984	26.82
477.338	27.08
477.692	26.88
478.045	27.11
478.399	27.08
478.753	26.84
479.107	27.11
479.461	27.08
479.814	27.12
480.168	27.18
480.521	27.26
480.875	27.24
481.228	27.3
481.582	27.16
481.935	27.55
482.289	27.41
482.642	27.45
482.995	27.22
483.348	27.26
483.701	27.16
484.055	27.06
484.408	26.98
484.761	26.65
485.114	26.63
485.466	26.75
485.819	26.87
486.172	26.89
486.525	26.93
486.878	27.07
487.23	27.12
487.583	27.34
487.936	27.32
488.288	27.41
488.641	27.36
488.993	27.2
489.345	27.27
489.698	27.38
490.05	27.41
490.402	27.63
490.754	27.7
491.107	27.92
491.459	27.92
491.811	27.97
492.163	28.05
492.515	27.96
492.866	27.89
493.218	27.93
493.57	28.01
493.922	28.12
494.274	28.22
494.625	28.48
494.977	28.56
495.328	28.85
495.68	28.98
496.031	29.07
496.383	29.13
496.734	29.22
497.086	29.43
497.437	29.29
497.788	29.25
498.139	29.13
498.49	29.43
498.842	29.31
499.193	29.32
499.544	29.37
499.894	29.28
500.245	29.63
500.596	29.65
500.947	29.87
501.298	29.86
501.648	29.95
501.999	29.92
502.35	29.87
502.7	30.18
503.051	30.08
503.401	30.18
503.752	30.13
504.102	30.06
504.452	30.34
504.803	30.23
505.153	30.22
505.503	30.32
505.853	30.33
506.203	30.39
506.553	30.36
506.903	30.54
507.253	30.61
507.603	30.44
507.953	30.58
508.303	30.79
508.652	30.69
509.002	30.95
509.352	30.68
509.701	30.61
510.051	30.65
510.4	30.73
510.75	30.64
511.099	30.7
511.449	31
511.798	30.72
512.147	30.84
512.496	30.93
512.846	30.89
513.195	30.89
513.544	31.03
513.893	30.89
514.242	30.97
514.591	31.19
514.939	31.34
515.288	31.4
515.637	31.29
515.986	31.37
516.334	31.47
516.683	31.4
517.032	31.53
517.38	31.4
517.729	31.42
518.077	31.65
518.426	31.72
518.774	31.5
519.122	31.46
519.47	31.42
519.819	31.27
520.167	31.24
520.515	31.49
520.863	31.38
521.211	31.4
521.559	31.52
521.907	31.64
522.255	31.72
522.602	31.88
522.95	31.93
523.298	32.02
523.645	32.05
523.993	32.03
524.341	32.08
524.688	32.15
525.036	32.33
525.383	32.02
525.73	32.03
526.078	32.1
526.425	32.05
526.772	31.89
527.119	31.81
527.466	31.88
527.814	31.92
528.161	31.98
528.508	31.94
528.854	31.87
529.201	31.72
529.548	31.57
529.895	31.54
530.242	31.74
530.588	31.8
530.935	31.78
531.282	31.77
531.628	31.84
531.975	32.05
532.321	32.36
532.667	32.34
533.014	32.48
533.36	32.4
533.706	32.5
534.052	32.61
534.399	32.36
534.745	32.23
535.091	32.25
535.437	32.43
535.783	32.56
536.129	32.49
536.474	32.78
536.82	32.8
537.166	32.99
537.512	33.01
537.857	32.89
538.203	32.84
538.549	32.97
538.894	33.15
539.239	33
539.585	33.3
539.93	33.57
540.276	33.44
540.621	33.65
540.966	33.6
541.311	33.64
541.656	33.4
542.001	33.35
542.346	33.08
542.691	33.01
543.036	33.04
543.381	33.22
543.726	33.3
544.071	33.2
544.415	33.46
544.76	33.49
545.105	33.6
545.449	33.76
545.794	33.81
546.138	33.85
546.483	33.96
546.827	34.01
547.171	34.18
547.516	34.18
547.86	34.31
548.204	34.24
548.548	34.3
548.892	34.37
549.236	34.46
549.58	34.65
549.924	34.81
550.268	34.79
550.612	35.02
550.956	35.08
551.3	35.12
551.643	34.98
551.987	35.33
552.33	35.37
552.674	35.38
553.017	35.53
553.361	35.46
553.704	35.38
554.048	35.47
554.391	35.53
554.734	35.36
555.077	35.53
555.42	35.64
555.764	35.62
556.107	35.79
556.45	35.77
556.793	35.78
557.135	35.77
557.478	35.78
557.821	36.03
558.164	35.85
558.507	35.99
558.849	36.18
559.192	36.24
559.534	36.23
559.877	36.19
560.219	36.1
560.562	36.33
560.904	36.72
561.246	36.42
561.589	36.33
561.931	36.39
562.273	36.39
562.615	36.44
562.957	36.22
563.299	36.53
563.641	36.58
563.983	36.47
564.325	36.62
564.667	36.69
565.008	36.74
565.35	36.62
565.692	37.01
566.033	36.87
566.375	36.94
566.716	36.82
567.058	36.8
567.399	36.91
567.741	36.88
568.082	36.91
568.423	36.77
568.764	37.13
569.105	36.96
569.447	37.02
569.788	37.25
570.129	37.25
570.47	37.31
570.811	37.26
571.151	37.44
571.492	37.36
571.833	37.6
572.174	37.38
572.514	37.44
572.855	37.49
573.195	37.3
573.536	37.43
573.876	37.39
574.217	37.51
574.557	37.64
574.898	37.55
575.238	37.85
575.578	37.59
575.918	37.77
576.258	37.95
576.598	37.74
576.938	37.82
577.278	37.95
577.618	37.75
577.958	38.18
578.298	38.04
578.638	38.25
578.977	38.2
579.317	38.38
579.657	38.37
579.996	38.7
580.336	38.28
580.675	38.33
581.014	38.85
581.354	38.7
581.693	38.84
582.032	39.09
582.372	38.78
582.711	38.93
583.05	39.02
583.389	39.52
583.728	39.13
584.067	39.14
584.406	39.23
584.745	39.58
585.083	39.41
585.422	39.18
585.761	39.22
586.1	39.51
586.438	39.57
586.777	39.78
587.115	39.75
587.454	39.29
587.792	39.7
588.13	39.64
588.469	39.59
588.807	39.49
589.145	39.72
589.483	40.16
589.821	39.78
590.159	39.9
590.497	39.69
590.835	40.03
591.173	39.93
591.511	40.3
591.849	39.97
592.187	40.08
592.524	40.23
592.862	40.16
593.2	40.16
593.537	40.15
593.875	40.22
594.212	40.14
594.55	40.57
594.887	40.3
595.224	40.64
595.561	40.35
595.899	40.45
596.236	40.51
596.573	40.48
596.91	40.9
597.247	40.51
597.584	40.39
597.921	40.23
598.258	40.54
598.594	40.54
598.931	40.55
599.268	40.38
599.604	40.66
599.941	40.72
600.277	40.72
600.614	40.92
600.95	41.23
601.287	40.89
601.623	41.1
601.959	41.25
602.296	41.49
602.632	41.23
602.968	41.12
603.304	41.88
603.64	41.52
603.976	41.57
604.312	41.28
604.648	41.19
604.984	41.38
605.319	41.63
605.655	41.41
605.991	41.53
606.326	41.38
606.662	41.39
606.998	41.39
607.333	41.67
607.668	41.68
608.004	41.48
608.339	41.77
608.674	42.12
609.01	42.12
609.345	41.77
609.68	41.97
610.015	42.28
610.35	42.07
610.685	41.81
611.02	41.88
611.355	42.06
611.689	42.2
612.024	42.29
612.359	42.09
612.694	42.49
613.028	42.35
613.363	41.94
613.697	42.49
614.032	42.58
614.366	42.9
614.7	42.78
615.035	42.8
615.369	42.96
615.703	43.12
616.037	43.27
616.371	43.15
616.705	43.16
617.039	43.02
617.373	43.44
617.707	42.83
618.041	42.89
618.375	43.44
618.709	43.6
619.042	43.28
619.376	43.42
619.71	43.17
620.043	43.68
620.377	43.76
620.71	43.57
621.043	43.54
621.377	43.54
621.71	43.65
622.043	44.1
622.376	43.95
622.709	44.47
623.043	43.31
623.376	43.62
623.709	44.39
624.041	44.07
624.374	44.26
624.707	44.22
625.04	43.78
625.373	44.13
625.705	43.88
626.038	44.16
626.37	44.21
626.703	44.11
627.035	44.24
627.368	44.1
627.7	44.35
628.032	44.43
628.365	44.41
628.697	44.35
629.029	44.53
629.361	44.3
629.693	44.33
630.025	44.74
630.357	44.56
630.689	44.67
631.021	44.95
631.353	44.46
631.684	44.79
632.016	44.97
632.348	44.67
632.679	44.85
633.011	45.01
633.342	44.87
633.674	44.73
634.005	45.64
634.336	45.04
634.668	45.24
634.999	45.29
635.33	44.88
635.661	45.59
635.992	45.49
636.323	45.03
636.654	45.2
636.985	45.74
637.316	45.68
637.647	45.48
637.977	45.47
638.308	46.02
638.639	45.92
638.969	45.84
639.3	46.21
639.63	45.76
639.961	45.32
640.291	45.93
640.622	46.18
640.952	45.83
641.282	46.39
641.612	46.39
641.943	46.39
642.273	45.83
642.603	47.1
642.933	46.39
643.263	46.37
643.592	46.58
643.922	46.59
644.252	46.19
644.582	47.23
644.911	46.05
645.241	46.88
645.571	46.42
645.9	47.07
646.23	47.24
646.559	46.93
646.888	46.87
647.218	46.63
647.547	46.79
647.876	46.76
648.205	46.8
648.534	47.46
648.863	46.61
649.192	46.9
649.521	47.55
649.85	47.47
650.179	46.95
650.508	47.53
650.837	47.36
651.165	47.07
651.494	47.2
651.822	47.7
652.151	47.24
652.479	47.31
652.808	47.49
653.136	47.73
653.465	47.28
653.793	47.31
654.121	47.17
654.449	47.96
654.777	47.24
655.105	47.43
655.433	48.11
655.761	48.3
656.089	47.54
656.417	48.09
656.745	48.17
657.073	48.5
657.4	47.65
657.728	47.86
658.056	47.4
658.383	48.18
658.711	48.28
659.038	48.38
659.365	48.35
659.693	48.2
660.02	48.49
660.347	48.27
660.674	48.11
661.001	48.34
661.329	48.27
661.656	48.05
661.982	47.9
662.309	48.26
662.636	48.25
662.963	48.73
663.29	48.82
663.616	48.52
663.943	48.77
664.27	48.78
664.596	48.56
664.923	48.92
665.249	48.99
665.576	48.46
665.902	48.98
666.228	49.5
666.554	49.59
666.881	48.83
667.207	48.95
667.533	48.52
667.859	49.44
668.185	49.58
668.511	49.57
668.837	49.16
669.162	49.96
669.488	48.87
669.814	49.5
670.139	49.88
670.465	49.61
670.791	49.28
671.116	49.81
671.442	49.16
671.767	49.59
672.092	49.36
672.418	49.41
672.743	49.52
673.068	49.8
673.393	50.27
673.718	49.66
674.043	50.11
674.368	49.68
674.693	50.1
675.018	50.17
675.343	50.64
675.667	49.73
675.992	50.07
676.317	50.01
676.641	49.94
676.966	50.31
677.29	49.7
677.615	51.05
677.939	49.99
678.264	49.74
678.588	50.43
678.912	50.53
679.236	49.99
679.56	50.42
679.885	50.1
680.209	50.53
680.532	50.67
680.856	50.87
681.18	50.77
681.504	50.48
681.828	51.01
682.152	50.77
682.475	50.9
682.799	50.87
683.122	51.33
683.446	51.45
683.769	51.09
684.093	51.64
684.416	50.39
684.739	51.01
685.062	51.55
685.386	51.85
685.709	51.41
686.032	52
686.355	51.6
686.678	51.31
687.001	51.55
687.324	51.88
687.646	51.73
687.969	51.41
688.292	51.91
688.614	50.86
688.937	52.09
689.26	51.42
689.582	51.92
689.904	51.81
690.227	51.94
690.549	51.32
690.871	50.83
691.194	51.98
691.516	51.96
691.838	52.07
692.16	51.67
692.482	51.67
692.804	52.6
693.126	51.78
693.448	51.29
693.769	52.03
694.091	52.52
694.413	52.02
694.735	52.47
695.056	52.22
695.378	52.33
695.699	52.16
696.021	51.79
696.342	52.21
696.663	52.64
696.984	51.75
697.306	52.52
697.627	52.82
697.948	52.55
698.269	52.65
698.59	52.23
698.911	52.82
699.232	53.16
699.553	52.32
699.873	52.51
700.194	52.2
700.515	52.67
700.835	52.63
701.156	53.14
701.477	52.68
701.797	52.2
702.117	52.23
702.438	53.13
702.758	53.32
703.078	52.94
703.398	52.35
703.719	52.54
704.039	52.89
704.359	53.34
704.679	52.87
704.999	53.36
705.319	53.71
705.638	54.27
705.958	52.66
706.278	52.71
706.597	53.47
706.917	54.04
707.237	53.16
707.556	53.06
707.876	53.45
708.195	53.44
708.514	53.45
708.834	52.98
709.153	53.77
709.472	54.22
709.791	53.3
710.11	53.9
710.429	54.47
710.748	55.1
711.067	54.48
711.386	53.48
711.705	53.47
712.023	53.27
712.342	54.36
712.661	54.29
712.979	55.04
713.298	53.91
713.616	54.32
713.935	53.85
714.253	53.84
714.572	53.73
714.89	54.21
715.208	53.65
715.526	54.41
715.844	54.25
716.162	54.4
716.48	53.69
716.798	54.59
717.116	53.89
717.434	53.84
717.752	54.57
718.069	54.16
718.387	54.48
718.705	54.72
719.022	54.4
719.34	53.72
719.657	54.83
719.975	54.51
720.292	54.35
720.609	53.33
720.927	54.81
721.244	54.39
721.561	54.2
721.878	54
722.195	55.1
722.512	56.3
722.829	55.47
723.146	53.99
723.463	56.21
723.779	54.78
724.096	53.25
724.413	55.37
724.729	54.98
725.046	54.05
725.362	54.47
725.679	54.66
725.995	54.56
726.311	54.44
726.628	55.89
726.944	55.32
727.26	55.47
727.576	55.86
727.892	55.94
728.208	54.8
728.524	56.52
728.84	55.87
729.156	55.47
729.472	55.44
729.787	55.83
730.103	56.32
730.419	55.77
730.734	55.4
731.05	54.58
731.365	56.85
731.681	56.83
731.996	55.7
732.311	54.17
732.626	55.42
732.942	55.14
733.257	56.23
733.572	56.01
733.887	56.26
734.202	56.68
734.517	56.48
734.832	55.59
735.146	54.79
735.461	55.78
735.776	56.35
736.091	55.56
736.405	55.87
736.72	55.54
737.034	56.51
737.349	53.92
737.663	57.16
737.977	56.56
738.292	56.62
738.606	56.31
738.92	55.65
739.234	57.42
739.548	56.21
739.862	57.19
740.176	56.01
740.49	56.69
740.804	57.04
741.117	56.99
741.431	55.52
741.745	56.13
742.058	57.52
742.372	56.26
742.685	58.13
742.999	55.75
743.312	56.46
743.626	57.37
743.939	57.97
744.252	54.97
744.565	56.02
744.878	57.7
745.191	56.04
745.505	56.88
745.817	57.08
746.13	57.01
746.443	56.49
746.756	58.29
747.069	56.23
747.381	56.21
747.694	56.05
748.007	56.48
748.319	56.83
748.632	57.33
748.944	59.35
749.256	59.94
749.569	56.22
749.881	56.61
750.193	56.2
750.505	57.15
750.817	59.21
751.129	56.75
751.441	57.56
751.753	59.25
752.065	57
752.377	59.09
752.689	58.03
753	58.18
753.312	56.93
753.624	56.36
753.935	56.17
754.247	58.66
754.558	57.94
754.869	58.04
755.181	55.59
755.492	57.72
755.803	58.31
756.114	58.37
756.425	56.85
756.736	59.01
757.047	58.43
757.358	57.52
757.669	59.98
757.98	57.32
758.291	56.25
758.601	57.32
758.912	57.31
759.223	56.46
759.533	58.14
759.844	56.3
760.154	58.29
760.464	58.08
760.775	59.04
761.085	57.49
761.395	58.75
761.705	57.78
762.016	57.65
762.326	58.49
762.636	57.82
762.945	58.44
763.255	58.23
763.565	58.27
763.875	58.59
764.185	58.94
764.494	57.37
764.804	59.03
765.113	58.87
765.423	59.91
765.732	59.51
766.042	59.59
766.351	58.31
766.66	59.51
766.97	56.79
767.279	57.75
767.588	58.66
767.897	59.3
768.206	59.91
768.515	58.6
768.824	61.2
769.133	55.68
769.441	55.74
769.75	59.56
770.059	58.41
770.367	58.9
770.676	58.46
770.984	56.7
771.293	58.65
771.601	58.62
771.91	57.15
772.218	57.88
772.526	58.84
772.834	57.61
773.142	59.76
773.45	59.05
773.758	60.07
774.066	58.54
774.374	60.25
774.682	60.34
774.99	55.64
775.298	56.05
775.605	60.16
775.913	57.8
776.22	57.07
776.528	58.59
776.835	58.88
777.143	60.54
777.45	58.38
777.757	60.35
778.065	55.8
778.372	55.29
778.679	60.16
778.986	60.32
779.293	56.83
779.6	60.68
779.907	58.84
780.214	55.92
780.52	57.74
780.827	60.18
781.134	57.34
781.44	61.7
781.747	64.75
782.053	62.26
782.36	59.23
782.666	58.02
782.973	57.17
783.279	57.25
783.585	61.6
783.891	57.32
784.197	61.78
784.503	59.81
784.809	61.85
785.115	58.88
785.421	63.6
785.727	63.04
786.033	60.07
786.339	58.83
786.644	56.86
786.95	56.55
787.255	57.32
787.561	56.6
787.866	60.58
788.172	59
788.477	62.44
788.782	56.66
789.088	62.14
789.393	62.57
789.698	55.11
790.003	59.08
790.308	60.35
790.613	62.51
790.918	59.62
791.223	62.1
791.527	60.44
791.832	56.9
792.137	60.45
792.441	60.66
792.746	62.36
793.05	61.71
793.355	61.97
793.659	59.87
793.963	58.64
794.268	59.24
794.572	59.97
794.876	64.58
795.18	61.21
795.484	57.06
795.788	57.56
796.092	54.31
796.396	58.08
796.7	57.03
797.004	57.74
797.307	59.59
797.611	63
797.915	60.15
798.218	61.05
798.522	59.99
798.825	63.34
799.128	61.97
799.432	58.94
799.735	59.95
800.038	56.82
800.341	63.09
800.644	56.9
800.947	59.04
801.25	60.44
801.553	59.43
801.856	59.67
802.159	59.68
802.462	62.17
802.764	61
803.067	59.95
803.37	57.67
803.672	56.97
803.975	59.39
804.277	58.86
804.579	59.68
804.882	59.61
805.184	62.53
805.486	61.9
805.788	59
806.09	58.66
806.392	63.89
806.694	58.84
806.996	61.56
807.298	59.07
807.6	61.18
807.902	60.43
808.203	59.23
808.505	56.28
808.807	63.75
809.108	60.07
809.409	63.03
809.711	62.95
810.012	63.44
810.313	65.11
810.615	61.47
810.916	61.2
811.217	60.98
811.518	56.27
811.819	65.48
812.12	61.71
812.421	59.61
812.722	59.67
813.023	61.54
813.323	60.07
813.624	57.21
813.925	62.04
814.225	59.16
814.526	59.2
814.826	63.04
815.126	58.45
815.427	56.28
815.727	56.85
816.027	60.87
816.327	60.21
816.627	67.65
816.927	60.26
817.227	58.89
817.527	63.05
817.827	64.43
818.127	54.53
818.427	63.61
818.727	57.73
819.026	62.38
819.326	54.29
819.625	59.33
819.925	61.64
820.224	67.64
820.524	57.49
820.823	61.38
821.122	58.62
821.421	62.18
821.72	63.09
822.019	56.97
822.318	60.34
822.617	63.46
822.916	62.99
823.215	62.66
823.514	63.14
823.813	63.79
824.111	62.86
824.41	63.4
824.709	63.97
825.007	64.94
825.306	62.84
825.604	63.9
825.902	62.25
826.201	62.74
826.499	60.5
826.797	61.18
827.095	62.75
827.393	63.06
827.691	61.41
827.989	62.57
828.287	63.69
828.585	60.25
828.882	62.23
829.18	61.64
829.478	63.9
829.775	63.34
830.073	63.45
830.37	61.21
830.668	62.81
830.965	60.91
831.263	61.89
831.56	65.98
831.857	63.27
832.154	59.74
832.451	63.13
832.748	66.95
833.045	65.09
833.342	63.07
833.639	63.28
833.936	57.65
834.232	59.91
834.529	59.46
834.826	60.73
835.122	61.12
835.419	61.76
835.715	59.35
836.012	63.93
836.308	62.27
836.604	63.48
836.901	64.46
837.197	63.92
837.493	62.05
837.789	62.75
838.085	58.69
838.381	61.6
838.677	59.71
838.972	57.95
839.268	60.82
839.564	69.55
839.86	70.37
840.155	67.31
840.451	53.29
840.746	62.62
841.042	61.91
841.337	55.94
841.632	65.13
841.928	58.13
842.223	61.04
842.518	60.95
842.813	57.89
843.108	67.11
843.403	63.25
843.698	52.03
843.993	67.7
844.287	63.43
844.582	65.21
844.877	70.62
845.171	65.94
845.466	72.1
845.761	60.11
846.055	84.42
846.349	71.77
846.644	59.15
846.938	65.07
847.232	72.45
847.526	69.85
847.82	69.28
848.114	51.16
848.408	73.3
848.702	74.28
848.996	59.15
849.29	68.29
849.584	60.6
849.877	71.05
850.171	60.53
850.465	70.06
850.758	62.76
851.052	74.44
851.345	53.57
851.638	61.59
851.932	70.04
852.225	64.95
852.518	68.61
852.811	52.63
853.104	61.18
853.397	69.19
853.69	83.55
853.983	71.5
854.276	74.37
854.569	49.29
854.861	62.98
855.154	82.67
855.447	63.5
855.739	48.55
856.032	57.29
856.324	54.9
856.616	65.57
856.909	56.41
857.201	58.47
857.493	70.53
857.785	68.76
858.077	50.6
858.369	56.57
858.661	56.33
858.953	70.77
859.245	69.09
859.537	64.97
859.829	79.56
860.12	68.46
860.412	53.02
860.703	68.26
860.995	82.44
861.286	59.92
861.578	57.45
861.869	62.28
862.16	62.37
862.452	74.86
862.743	55.12
863.034	51.43
863.325	70.83
863.616	60.86
863.907	43.51
864.198	32.03
864.488	68.15
864.779	59.54
865.07	70.14
865.36	80.33
865.651	71.4
865.941	80.77
866.232	67.58
866.522	36.69
866.813	63.21
867.103	64.86
867.393	67.79
867.683	54.63
867.973	53.22
868.263	72.61
868.553	76.68
868.843	32.68
869.133	74.73
869.423	56.48
869.713	57.99
870.002	67.79
870.292	51.59
870.582	48.36
870.871	59.78
871.161	42.59
871.45	43.38
871.739	71.13
872.029	55.32
872.318	72.53
872.607	82.08
872.896	62.25
873.185	90.36
873.474	62.17
873.763	65.73
874.052	89.1
874.341	51.09
874.63	62.64
874.918	76.95
875.207	59.71
875.496	92.54
875.784	40.89
876.073	50
876.361	63.27
876.649	60.43
876.938	62.45
877.226	79.55
877.514	60.63
877.802	63.03
878.09	59.05
878.378	74.21
878.666	65.45
878.954	72.39
879.242	83.88
879.53	54.17
879.817	60.25
880.105	64.72
880.392	76.69
880.68	83.8
880.967	60.19
881.255	63.15
881.542	67.41
881.83	63.01
882.117	63.89
882.404	48.34
882.691	71.7
882.978	54.5
883.265	60.06
883.552	71.32
883.839	81.1
884.126	69.28
884.413	64.8
884.699	67.9
884.986	67.5
885.273	66.55
885.559	66.55
885.846	66.55
