Data from 0013_chest_Reflection__2__07.txt Node

Date: Mon Oct 17 14:28:26 CDT 2022
User: ToomeyLab
Spectrometer: FLMS14357
Trigger mode: 0
Integration Time (sec): 1.000000E-2
Scans to average: 100
Electric dark correction enabled: true
Nonlinearity correction enabled: false
Boxcar width: 0
XAxis mode: Wavelengths
Number of Pixels in Spectrum: 2048
>>>>>Begin Spectral Data<<<<<
189.047	1213.7
189.435	1213.7
189.823	1213.7
190.211	-17.16
190.599	807.54
190.987	-0.89
191.375	-10.53
191.763	698.69
192.151	46.21
192.538	104.07
192.926	-218.86
193.314	188.01
193.702	216.95
194.089	-75.07
194.477	112.96
194.864	-16.69
195.252	-277.85
195.639	101.53
196.027	235.35
196.414	22.41
196.801	-94.9
197.189	132.69
197.576	204.91
197.963	-156.3
198.351	-218.81
198.738	14.49
199.125	-23.43
199.512	-131.92
199.899	34.15
200.286	-2.92
200.673	-10.93
201.06	-29.81
201.447	27.31
201.833	42.92
202.22	-4.15
202.607	-37.17
202.994	18.75
203.38	13.14
203.767	11.82
204.154	33.66
204.54	-23.89
204.927	-6.36
205.313	-18.7
205.699	39.88
206.086	-42.31
206.472	-13.57
206.858	-3.53
207.245	14.38
207.631	-4.02
208.017	32.68
208.403	-3.15
208.789	10.69
209.175	-12.88
209.561	13.13
209.947	-18.77
210.333	21.7
210.719	32.27
211.105	25.11
211.491	5.28
211.876	-26.37
212.262	23.45
212.648	-1.95
213.034	2.14
213.419	15.17
213.805	-12.07
214.19	10.73
214.576	-3.69
214.961	-11.31
215.346	24.32
215.732	7.52
216.117	-0.28
216.502	-2.28
216.888	10.02
217.273	20.69
217.658	37.95
218.043	8.11
218.428	-11.05
218.813	9.04
219.198	21.8
219.583	-0.94
219.968	10.99
220.353	4.74
220.738	-1.63
221.122	-2.99
221.507	9.23
221.892	6.05
222.276	0.46
222.661	6.14
223.046	-5.13
223.43	1.16
223.815	3.84
224.199	5.29
224.583	0.69
224.968	-3.45
225.352	-9.41
225.736	7.55
226.121	-2.17
226.505	5.66
226.889	5.87
227.273	6.42
227.657	6.07
228.041	4.46
228.425	5.78
228.809	2.76
229.193	6.56
229.577	5.18
229.961	5.26
230.344	3.57
230.728	3.5
231.112	3.79
231.495	4.13
231.879	5.57
232.263	4.22
232.646	4.92
233.03	2.67
233.413	2.13
233.797	4.05
234.18	5.36
234.563	3.44
234.946	3.54
235.33	3.02
235.713	3.23
236.096	6.17
236.479	3.23
236.862	4.34
237.245	4.04
237.628	2.94
238.011	5.48
238.394	3.87
238.777	2.99
239.16	4.83
239.543	2.3
239.925	3.34
240.308	5.36
240.691	4.44
241.073	4.36
241.456	2.88
241.838	3.93
242.221	3.54
242.603	3.64
242.986	3.84
243.368	4.07
243.75	3.5
244.133	3.73
244.515	4.25
244.897	3.93
245.279	3.56
245.661	3.49
246.043	4.5
246.425	3.51
246.807	3.52
247.189	3.93
247.571	4.13
247.953	3.66
248.335	3.91
248.717	3.83
249.098	3.8
249.48	3.65
249.862	3.53
250.243	3.23
250.625	3.46
251.006	3.66
251.388	4.01
251.769	4.48
252.151	3.11
252.532	3.13
252.913	3.54
253.295	3.24
253.676	4.12
254.057	4.01
254.438	3.59
254.819	3.98
255.2	4.68
255.581	4.34
255.962	2.71
256.343	2.34
256.724	4.08
257.105	3.99
257.486	3.2
257.867	3.95
258.247	3.45
258.628	4.38
259.009	3.85
259.389	4
259.77	3.88
260.15	3.81
260.531	3.31
260.911	3.32
261.292	3.58
261.672	3.6
262.052	3.42
262.432	3.51
262.813	3.18
263.193	3.8
263.573	3.93
263.953	3.32
264.333	3.43
264.713	2.92
265.093	3.67
265.473	3.83
265.853	3.92
266.233	4.39
266.612	3.94
266.992	3.66
267.372	3.56
267.752	3.74
268.131	3.53
268.511	3.58
268.89	3.74
269.27	3.51
269.649	3.5
270.029	3.15
270.408	3.93
270.787	3.98
271.167	3.14
271.546	3.35
271.925	3.66
272.304	3.25
272.683	3.58
273.062	3.24
273.441	3.38
273.82	3.23
274.199	3.98
274.578	3.58
274.957	3.49
275.336	3.32
275.715	3.47
276.093	3.07
276.472	3.57
276.851	3.32
277.229	3.32
277.608	3.57
277.986	2.95
278.365	3.57
278.743	3.64
279.122	3.33
279.5	3.87
279.878	3.43
280.257	3.56
280.635	3.21
281.013	3.43
281.391	3.14
281.769	3.15
282.147	3.5
282.525	3.19
282.903	2.8
283.281	3.14
283.659	3.18
284.037	2.85
284.415	3.37
284.792	3.12
285.17	2.78
285.548	3.05
285.925	3.66
286.303	3.4
286.68	3.28
287.058	3.72
287.435	3.35
287.813	3.38
288.19	3.39
288.567	3.16
288.945	3.55
289.322	4.12
289.699	3.31
290.076	3.25
290.453	3.2
290.83	3.35
291.207	3.61
291.584	3.09
291.961	3.11
292.338	3.37
292.715	3.18
293.092	3.22
293.469	3.07
293.845	3.61
294.222	3.38
294.599	3.72
294.975	2.79
295.352	2.74
295.728	3.46
296.105	3.17
296.481	3.45
296.858	3.55
297.234	3.3
297.61	3.27
297.986	3.42
298.363	3.29
298.739	3.49
299.115	3.4
299.491	3.43
299.867	3.44
300.243	3.35
300.619	3.33
300.995	3.27
301.371	3.46
301.746	3.33
302.122	2.95
302.498	3.65
302.874	3.46
303.249	3.7
303.625	3.15
304	3.5
304.376	3.4
304.751	3.77
305.127	3.55
305.502	3.27
305.878	3.33
306.253	3.43
306.628	3.58
307.003	3.14
307.378	3.72
307.754	2.95
308.129	3.68
308.504	3.73
308.879	3.07
309.254	3.46
309.629	3.29
310.003	3.76
310.378	3.71
310.753	3.36
311.128	3.46
311.502	3.53
311.877	3.7
312.252	3.57
312.626	3.1
313.001	3.37
313.375	3.05
313.75	3.15
314.124	3.59
314.498	3.14
314.873	3.33
315.247	3.47
315.621	3.82
315.995	3.18
316.369	3.06
316.743	3.3
317.117	3.39
317.491	3.36
317.865	3.44
318.239	3.65
318.613	3.63
318.987	3.19
319.361	3.08
319.734	3.52
320.108	3.32
320.482	3.44
320.855	3.14
321.229	3.26
321.602	2.91
321.976	3.02
322.349	3.39
322.723	3.69
323.096	3.15
323.469	3.41
323.843	3.4
324.216	3.6
324.589	3.34
324.962	3.23
325.335	2.92
325.708	3.3
326.081	3.28
326.454	3.58
326.827	2.95
327.2	3
327.573	3.33
327.945	3.04
328.318	3.48
328.691	3.13
329.063	3.01
329.436	3.26
329.809	3.26
330.181	3.94
330.553	3.14
330.926	3.47
331.298	3.74
331.671	4.03
332.043	3.49
332.415	3.29
332.787	3.34
333.159	3.47
333.532	3.76
333.904	3.95
334.276	3.56
334.648	3.21
335.02	3.35
335.391	3.63
335.763	3.49
336.135	3.19
336.507	3.56
336.879	3.48
337.25	3.7
337.622	3.41
337.993	3.72
338.365	3.21
338.736	3.44
339.108	3.53
339.479	3.34
339.851	3.62
340.222	3.37
340.593	3.75
340.964	3.17
341.336	3.62
341.707	3.84
342.078	3.51
342.449	3.2
342.82	3.8
343.191	3.16
343.562	3.29
343.933	3.45
344.303	3.38
344.674	3.79
345.045	3.51
345.416	3.56
345.786	3.46
346.157	3.22
346.527	3.45
346.898	3.55
347.268	3.68
347.639	3.17
348.009	3.67
348.38	3.54
348.75	3.41
349.12	3.7
349.49	3.15
349.861	3.48
350.231	3.35
350.601	3.43
350.971	3.46
351.341	3.3
351.711	3.38
352.081	3.62
352.45	3.81
352.82	3.81
353.19	3.17
353.56	3.42
353.929	3.57
354.299	3.41
354.669	3.3
355.038	3.53
355.408	3.66
355.777	3.29
356.147	3.37
356.516	3.63
356.885	3.51
357.254	3.6
357.624	3.6
357.993	3.51
358.362	3.23
358.731	3.2
359.1	3.28
359.469	3.22
359.838	3.6
360.207	3.57
360.576	3.16
360.945	3.51
361.314	3.71
361.682	3.49
362.051	3.53
362.42	3.57
362.788	3.56
363.157	3.47
363.525	3.32
363.894	3.55
364.262	3.63
364.631	3.72
364.999	3.37
365.367	3.38
365.735	3.69
366.104	3.26
366.472	3.36
366.84	3.36
367.208	3.57
367.576	3.7
367.944	3.33
368.312	3.49
368.68	3.59
369.048	3.68
369.416	3.42
369.783	3.6
370.151	3.37
370.519	3.62
370.886	3.72
371.254	3.62
371.621	3.33
371.989	3.67
372.356	3.61
372.724	3.68
373.091	3.36
373.458	3.34
373.826	3.67
374.193	3.59
374.56	3.54
374.927	3.68
375.294	3.3
375.661	3.31
376.028	3.54
376.395	3.66
376.762	3.7
377.129	3.73
377.496	3.41
377.863	3.25
378.229	3.55
378.596	3.57
378.963	3.64
379.329	3.53
379.696	3.47
380.062	3.74
380.429	3.26
380.795	3.85
381.161	3.55
381.528	3.5
381.894	3.44
382.26	3.48
382.626	3.61
382.993	3.7
383.359	3.78
383.725	3.71
384.091	3.66
384.457	3.64
384.823	3.42
385.188	3.38
385.554	3.67
385.92	3.63
386.286	3.6
386.651	3.63
387.017	3.4
387.383	3.58
387.748	3.68
388.114	3.53
388.479	3.69
388.845	3.69
389.21	3.4
389.575	3.58
389.94	3.6
390.306	3.55
390.671	3.68
391.036	3.66
391.401	3.62
391.766	3.66
392.131	3.84
392.496	3.67
392.861	3.6
393.226	3.87
393.591	3.31
393.956	3.6
394.32	3.7
394.685	3.55
395.05	3.61
395.414	3.9
395.779	3.87
396.143	3.72
396.508	3.69
396.872	3.58
397.236	3.71
397.601	3.56
397.965	3.7
398.329	3.81
398.694	3.61
399.058	3.64
399.422	3.5
399.786	3.73
400.15	3.93
400.514	3.48
400.878	3.69
401.242	3.59
401.605	4.03
401.969	3.82
402.333	3.8
402.697	3.45
403.06	3.63
403.424	3.64
403.787	3.58
404.151	3.78
404.514	3.72
404.878	3.66
405.241	3.65
405.604	3.74
405.968	3.5
406.331	3.66
406.694	3.6
407.057	3.56
407.42	3.56
407.783	3.75
408.146	3.79
408.509	3.84
408.872	3.63
409.235	3.78
409.598	3.62
409.961	3.58
410.323	3.82
410.686	3.68
411.049	3.59
411.411	3.83
411.774	3.67
412.136	3.64
412.499	3.85
412.861	3.76
413.223	3.86
413.586	3.53
413.948	3.71
414.31	3.68
414.672	3.77
415.035	3.98
415.397	3.89
415.759	3.84
416.121	3.8
416.483	3.88
416.845	3.61
417.206	3.74
417.568	3.85
417.93	3.78
418.292	3.84
418.653	3.71
419.015	3.78
419.377	3.92
419.738	3.69
420.1	3.71
420.461	3.66
420.822	3.82
421.184	3.67
421.545	3.72
421.906	3.62
422.267	3.72
422.629	3.7
422.99	3.64
423.351	3.68
423.712	3.73
424.073	3.68
424.434	3.65
424.795	3.75
425.155	3.84
425.516	3.63
425.877	3.73
426.238	3.78
426.598	3.67
426.959	3.67
427.32	3.74
427.68	3.8
428.041	3.63
428.401	3.93
428.761	3.95
429.122	3.86
429.482	3.75
429.842	3.75
430.202	3.83
430.563	3.92
430.923	3.87
431.283	4
431.643	3.91
432.003	3.75
432.363	4.02
432.722	3.8
433.082	3.74
433.442	3.98
433.802	3.87
434.161	3.8
434.521	3.88
434.881	3.8
435.24	3.63
435.6	3.9
435.959	3.74
436.319	3.99
436.678	3.78
437.037	4.06
437.396	3.91
437.756	4.05
438.115	3.93
438.474	3.81
438.833	3.65
439.192	3.86
439.551	3.72
439.91	3.84
440.269	3.83
440.628	3.74
440.987	3.76
441.345	3.88
441.704	3.79
442.063	3.66
442.421	3.77
442.78	3.82
443.138	3.87
443.497	3.93
443.855	3.93
444.214	3.96
444.572	3.71
444.93	3.93
445.288	3.86
445.647	3.84
446.005	4.04
446.363	3.97
446.721	3.9
447.079	3.82
447.437	3.81
447.795	3.8
448.153	3.88
448.51	3.78
448.868	3.91
449.226	3.86
449.584	3.91
449.941	3.95
450.299	3.98
450.656	3.8
451.014	3.86
451.371	3.99
451.729	3.87
452.086	4
452.443	4.02
452.801	4
453.158	4.01
453.515	3.95
453.872	4
454.229	3.88
454.586	3.91
454.943	3.89
455.3	3.98
455.657	3.89
456.014	4.01
456.371	3.98
456.727	3.99
457.084	3.88
457.441	4.01
457.797	3.93
458.154	4.08
458.51	3.9
458.867	4.1
459.223	4.01
459.58	3.94
459.936	3.93
460.292	3.98
460.648	3.99
461.005	3.95
461.361	3.91
461.717	3.86
462.073	3.88
462.429	3.87
462.785	3.93
463.141	4.09
463.496	3.93
463.852	4.09
464.208	4.3
464.564	4.07
464.919	4.06
465.275	4.12
465.631	4.01
465.986	4.11
466.342	4.05
466.697	4.17
467.052	4.24
467.408	4
467.763	3.96
468.118	4.08
468.473	4.08
468.829	3.99
469.184	4.13
469.539	4.01
469.894	3.92
470.249	4.07
470.603	4.12
470.958	4.03
471.313	4.09
471.668	4.06
472.023	3.96
472.377	4.18
472.732	3.9
473.086	4.17
473.441	4.05
473.795	4.09
474.15	4.18
474.504	4.2
474.859	4.03
475.213	4.12
475.567	4.13
475.921	4.14
476.275	4.09
476.63	4.11
476.984	4.22
477.338	4.3
477.692	4.17
478.045	4.21
478.399	4.23
478.753	4.11
479.107	4.02
479.461	4.07
479.814	4.1
480.168	4.16
480.521	4.08
480.875	4.05
481.228	4.11
481.582	4.32
481.935	4.17
482.289	4.06
482.642	4.03
482.995	4.26
483.348	4.21
483.701	4.08
484.055	4.03
484.408	4.11
484.761	4.07
485.114	3.93
485.466	3.89
485.819	3.82
486.172	3.86
486.525	3.9
486.878	3.97
487.23	4.04
487.583	4.08
487.936	4.15
488.288	4.08
488.641	3.98
488.993	3.97
489.345	3.95
489.698	3.98
490.05	3.97
490.402	3.97
490.754	4.01
491.107	4.03
491.459	4.19
491.811	4.22
492.163	4.16
492.515	4.09
492.866	4.07
493.218	4.02
493.57	4.06
493.922	4.05
494.274	4.15
494.625	4.15
494.977	4.27
495.328	4.13
495.68	4.25
496.031	4.33
496.383	4.19
496.734	4.27
497.086	4.23
497.437	4.28
497.788	4.33
498.139	4.2
498.49	4.28
498.842	4.2
499.193	4.26
499.544	4.19
499.894	4.2
500.245	4.28
500.596	4.24
500.947	4.4
501.298	4.4
501.648	4.35
501.999	4.42
502.35	4.46
502.7	4.32
503.051	4.44
503.401	4.49
503.752	4.46
504.102	4.28
504.452	4.3
504.803	4.44
505.153	4.33
505.503	4.41
505.853	4.3
506.203	4.32
506.553	4.42
506.903	4.4
507.253	4.39
507.603	4.41
507.953	4.48
508.303	4.29
508.652	4.52
509.002	4.44
509.352	4.36
509.701	4.39
510.051	4.46
510.4	4.3
510.75	4.37
511.099	4.32
511.449	4.45
511.798	4.37
512.147	4.34
512.496	4.42
512.846	4.32
513.195	4.4
513.544	4.49
513.893	4.42
514.242	4.51
514.591	4.44
514.939	4.4
515.288	4.42
515.637	4.49
515.986	4.49
516.334	4.63
516.683	4.66
517.032	4.48
517.38	4.54
517.729	4.54
518.077	4.54
518.426	4.4
518.774	4.53
519.122	4.55
519.47	4.55
519.819	4.5
520.167	4.48
520.515	4.49
520.863	4.49
521.211	4.54
521.559	4.46
521.907	4.6
522.255	4.59
522.602	4.58
522.95	4.69
523.298	4.61
523.645	4.67
523.993	4.68
524.341	4.74
524.688	4.71
525.036	4.71
525.383	4.74
525.73	4.75
526.078	4.59
526.425	4.66
526.772	4.59
527.119	4.61
527.466	4.51
527.814	4.54
528.161	4.63
528.508	4.67
528.854	4.6
529.201	4.65
529.548	4.67
529.895	4.54
530.242	4.45
530.588	4.45
530.935	4.5
531.282	4.52
531.628	4.55
531.975	4.64
532.321	4.6
532.667	4.7
533.014	4.69
533.36	4.82
533.706	4.77
534.052	4.77
534.399	4.75
534.745	4.65
535.091	4.65
535.437	4.64
535.783	4.71
536.129	4.76
536.474	4.78
536.82	4.94
537.166	4.91
537.512	4.96
537.857	4.93
538.203	4.77
538.549	4.68
538.894	4.87
539.239	4.93
539.585	4.84
539.93	4.95
540.276	4.98
540.621	5
540.966	5.02
541.311	5.03
541.656	4.98
542.001	4.96
542.346	5.02
542.691	4.96
543.036	4.76
543.381	4.83
543.726	4.79
544.071	4.94
544.415	4.96
544.76	5.04
545.105	4.91
545.449	5.04
545.794	5.03
546.138	5.05
546.483	5.05
546.827	5.16
547.171	5.19
547.516	5.08
547.86	5.22
548.204	5.11
548.548	5.15
548.892	5.16
549.236	5.19
549.58	5.09
549.924	5.16
550.268	5.37
550.612	5.2
550.956	5.33
551.3	5.41
551.643	5.34
551.987	5.31
552.33	5.53
552.674	5.31
553.017	5.42
553.361	5.41
553.704	5.37
554.048	5.28
554.391	5.36
554.734	5.35
555.077	5.43
555.42	5.51
555.764	5.47
556.107	5.47
556.45	5.55
556.793	5.47
557.135	5.66
557.478	5.63
557.821	5.67
558.164	5.62
558.507	5.65
558.849	5.53
559.192	5.59
559.534	5.64
559.877	5.64
560.219	5.51
560.562	5.48
560.904	5.6
561.246	5.79
561.589	5.82
561.931	5.71
562.273	5.81
562.615	5.68
562.957	5.75
563.299	5.71
563.641	5.81
563.983	5.82
564.325	5.89
564.667	5.88
565.008	6.01
565.35	5.81
565.692	5.99
566.033	5.75
566.375	5.86
566.716	6.04
567.058	5.95
567.399	5.86
567.741	5.87
568.082	5.94
568.423	5.97
568.764	5.96
569.105	6.08
569.447	5.99
569.788	6.1
570.129	6.27
570.47	6.2
570.811	6.23
571.151	6.09
571.492	6.16
571.833	6.11
572.174	6.23
572.514	6.27
572.855	6.13
573.195	6.16
573.536	6.2
573.876	6.14
574.217	6.2
574.557	6.2
574.898	6.2
575.238	6.28
575.578	6.39
575.918	6.26
576.258	6.42
576.598	6.34
576.938	6.51
577.278	6.52
577.618	6.49
577.958	6.43
578.298	6.47
578.638	6.56
578.977	6.55
579.317	6.38
579.657	6.48
579.996	6.61
580.336	6.66
580.675	6.7
581.014	6.53
581.354	6.52
581.693	6.58
582.032	6.78
582.372	6.63
582.711	6.58
583.05	6.66
583.389	6.61
583.728	6.74
584.067	6.93
584.406	6.81
584.745	7.18
585.083	7.11
585.422	6.82
585.761	7.02
586.1	6.94
586.438	6.95
586.777	7.07
587.115	6.94
587.454	7.08
587.792	7.26
588.13	7.14
588.469	7.24
588.807	7.08
589.145	7.25
589.483	7.27
589.821	7.25
590.159	7.25
590.497	7.29
590.835	7.19
591.173	7.28
591.511	7.3
591.849	7.19
592.187	7.24
592.524	7.25
592.862	7.29
593.2	7.38
593.537	7.61
593.875	7.38
594.212	7.62
594.55	7.52
594.887	7.57
595.224	7.65
595.561	7.59
595.899	7.62
596.236	7.7
596.573	7.61
596.91	7.63
597.247	7.83
597.584	7.61
597.921	7.77
598.258	7.84
598.594	7.68
598.931	7.67
599.268	7.66
599.604	7.78
599.941	7.71
600.277	7.82
600.614	7.83
600.95	7.93
601.287	7.85
601.623	7.84
601.959	7.79
602.296	8.27
602.632	7.81
602.968	7.96
603.304	8.16
603.64	8.3
603.976	8.11
604.312	8.32
604.648	8.14
604.984	8.17
605.319	7.92
605.655	8.14
605.991	8.21
606.326	8.08
606.662	8.27
606.998	8.14
607.333	8.36
607.668	8.23
608.004	8.37
608.339	8.43
608.674	8.57
609.01	8.46
609.345	8.64
609.68	8.55
610.015	8.75
610.35	8.53
610.685	8.56
611.02	8.61
611.355	8.6
611.689	8.53
612.024	8.7
612.359	8.55
612.694	8.7
613.028	8.76
613.363	9.07
613.697	8.41
614.032	8.9
614.366	9
614.7	9.05
615.035	8.86
615.369	9.03
615.703	8.93
616.037	9.13
616.371	9.13
616.705	9.04
617.039	9.23
617.373	9.24
617.707	9
618.041	9.22
618.375	8.86
618.709	9.74
619.042	9.26
619.376	9.3
619.71	9.2
620.043	9.56
620.377	9.55
620.71	9.51
621.043	9.91
621.377	9.67
621.71	9.57
622.043	9.52
622.376	9.48
622.709	9.78
623.043	9.32
623.376	9.41
623.709	9.43
624.041	9.68
624.374	9.68
624.707	9.54
625.04	9.73
625.373	9.84
625.705	9.46
626.038	9.4
626.37	9.9
626.703	10.02
627.035	9.66
627.368	9.73
627.7	10.25
628.032	9.99
628.365	9.77
628.697	9.89
629.029	10.18
629.361	9.91
629.693	10.06
630.025	9.99
630.357	9.86
630.689	10.17
631.021	10.04
631.353	9.81
631.684	10.11
632.016	9.98
632.348	10.31
632.679	10.34
633.011	10.3
633.342	10.18
633.674	10.54
634.005	10.28
634.336	10.32
634.668	10.65
634.999	10.65
635.33	10.55
635.661	10.56
635.992	10.34
636.323	10.49
636.654	10.63
636.985	10.36
637.316	10.72
637.647	10.69
637.977	10.65
638.308	10.6
638.639	10.87
638.969	10.95
639.3	10.74
639.63	11.21
639.961	10.6
640.291	10.52
640.622	10.85
640.952	11.44
641.282	11.53
641.612	11.05
641.943	10.93
642.273	11.08
642.603	11.24
642.933	11.38
643.263	11.41
643.592	11.43
643.922	11.43
644.252	11.44
644.582	11.68
644.911	11.82
645.241	11.51
645.571	11.01
645.9	11.89
646.23	11.16
646.559	11.28
646.888	11.63
647.218	11.57
647.547	11.71
647.876	11.79
648.205	11.99
648.534	11.68
648.863	11.43
649.192	11.64
649.521	11.65
649.85	11.98
650.179	12.13
650.508	11.93
650.837	11.54
651.165	12.2
651.494	12.01
651.822	11.97
652.151	12.09
652.479	11.88
652.808	11.39
653.136	12.19
653.465	12.27
653.793	12.13
654.121	12.5
654.449	12.21
654.777	12.24
655.105	12.01
655.433	11.86
655.761	12.6
656.089	12.25
656.417	12.33
656.745	12.29
657.073	12.7
657.4	12.04
657.728	12.58
658.056	12.17
658.383	12.83
658.711	12.57
659.038	12.72
659.365	12.66
659.693	12.3
660.02	12.68
660.347	13.1
660.674	12.74
661.001	12.81
661.329	12.79
661.656	12.67
661.982	12.92
662.309	12.79
662.636	13.17
662.963	12.97
663.29	12.94
663.616	12.73
663.943	12.88
664.27	13.28
664.596	12.89
664.923	12.86
665.249	13.09
665.576	13.3
665.902	13.27
666.228	13.34
666.554	13.09
666.881	13.39
667.207	13.48
667.533	13.67
667.859	13.75
668.185	13.37
668.511	13.82
668.837	13.94
669.162	14.03
669.488	13.65
669.814	13.87
670.139	13.62
670.465	13.56
670.791	13.48
671.116	13.88
671.442	13.98
671.767	13.67
672.092	13.69
672.418	14.03
672.743	13.86
673.068	13.76
673.393	14.16
673.718	14
674.043	14.35
674.368	13.79
674.693	13.91
675.018	14.47
675.343	14.68
675.667	14.39
675.992	13.33
676.317	13.9
676.641	14.09
676.966	14.12
677.29	14.22
677.615	14.01
677.939	14.58
678.264	14.09
678.588	14.6
678.912	14.78
679.236	14.8
679.56	13.88
679.885	14.48
680.209	14.64
680.532	14.01
680.856	14.36
681.18	14.35
681.504	14.81
681.828	14.67
682.152	14.84
682.475	15.06
682.799	14.86
683.122	14.81
683.446	15
683.769	14.72
684.093	14.22
684.416	15.73
684.739	14.61
685.062	15.23
685.386	14.98
685.709	15.08
686.032	15.38
686.355	14.73
686.678	14.05
687.001	14.83
687.324	15.61
687.646	14.67
687.969	15.2
688.292	15.55
688.614	15.52
688.937	15.87
689.26	15.55
689.582	14.9
689.904	15.28
690.227	16.2
690.549	16.21
690.871	15.54
691.194	15.51
691.516	16.03
691.838	15.85
692.16	15.69
692.482	15.75
692.804	15.66
693.126	16.43
693.448	16.17
693.769	15.72
694.091	15.91
694.413	15.83
694.735	15.81
695.056	15.62
695.378	15.92
695.699	15.96
696.021	16.75
696.342	16.81
696.663	16.51
696.984	16.36
697.306	16.69
697.627	15.77
697.948	16.05
698.269	16.55
698.59	17.11
698.911	17.12
699.232	17.75
699.553	16.94
699.873	16.44
700.194	16.35
700.515	16.97
700.835	16.6
701.156	16.34
701.477	16.76
701.797	17.38
702.117	17.33
702.438	16.69
702.758	16.86
703.078	16.31
703.398	17.47
703.719	16.69
704.039	16.91
704.359	16.55
704.679	16.24
704.999	17.18
705.319	17.66
705.638	16.61
705.958	17.36
706.278	17.15
706.597	16.51
706.917	17.2
707.237	16.92
707.556	17.5
707.876	16.25
708.195	16.94
708.514	17.37
708.834	17.61
709.153	17.22
709.472	16.41
709.791	17.57
710.11	17.51
710.429	17.26
710.748	16.99
711.067	17.98
711.386	17.27
711.705	18.61
712.023	17.46
712.342	17.98
712.661	18.04
712.979	16.5
713.298	17.38
713.616	16.9
713.935	17.3
714.253	17.87
714.572	17.98
714.89	17.79
715.208	18.29
715.526	16.99
715.844	18.48
716.162	18.32
716.48	17.56
716.798	18.41
717.116	18.1
717.434	17.75
717.752	17.52
718.069	18.08
718.387	18.46
718.705	18.23
719.022	18.43
719.34	18.57
719.657	18.37
719.975	18.36
720.292	18.25
720.609	19.59
720.927	19.78
721.244	17.57
721.561	19.48
721.878	19.24
722.195	18.73
722.512	18.12
722.829	19.84
723.146	19.52
723.463	19.93
723.779	19.08
724.096	18.93
724.413	19.83
724.729	19.83
725.046	18.96
725.362	20.19
725.679	18.44
725.995	18.3
726.311	20.7
726.628	19.75
726.944	19
727.26	20.43
727.576	19.2
727.892	20.13
728.208	19.61
728.524	19.79
728.84	19.44
729.156	20.28
729.472	18.32
729.787	20.38
730.103	18.94
730.419	21.53
730.734	21.47
731.05	19.37
731.365	18.88
731.681	20.25
731.996	18.59
732.311	19.48
732.626	19.22
732.942	19.5
733.257	19.58
733.572	20.96
733.887	20.04
734.202	20.36
734.517	20.36
734.832	19.86
735.146	19.67
735.461	20.05
735.776	20.88
736.091	20.94
736.405	20.01
736.72	20.63
737.034	20.5
737.349	20.4
737.663	20.96
737.977	21.31
738.292	20.95
738.606	19.78
738.92	21.64
739.234	19.53
739.548	21.36
739.862	21.84
740.176	19.11
740.49	21.41
740.804	20.5
741.117	21.18
741.431	19.69
741.745	21.67
742.058	19.15
742.372	21.31
742.685	19.76
742.999	19.53
743.312	21.88
743.626	21.28
743.939	20.61
744.252	22.52
744.565	19.68
744.878	20.91
745.191	20.89
745.505	21.23
745.817	21.93
746.13	21.58
746.443	19.89
746.756	20.84
747.069	21.97
747.381	20.64
747.694	20.37
748.007	22.48
748.319	21.78
748.632	22.24
748.944	22.15
749.256	22.11
749.569	21.36
749.881	20.71
750.193	21.41
750.505	21.1
750.817	21.85
751.129	20.93
751.441	22.81
751.753	22.58
752.065	22.03
752.377	22.63
752.689	23.78
753	22.45
753.312	22.9
753.624	22.57
753.935	21.6
754.247	22.52
754.558	24.18
754.869	22.98
755.181	22.65
755.492	23.16
755.803	22.53
756.114	22.33
756.425	21.42
756.736	23.82
757.047	22.2
757.358	21.98
757.669	21.56
757.98	22.39
758.291	22.36
758.601	22.07
758.912	23.66
759.223	22.76
759.533	23.63
759.844	24.73
760.154	24.04
760.464	22.68
760.775	21.75
761.085	21.74
761.395	23.73
761.705	23.59
762.016	22.39
762.326	24.69
762.636	23.3
762.945	22.62
763.255	23.83
763.565	24.54
763.875	23.63
764.185	23.99
764.494	24.66
764.804	24.29
765.113	23.25
765.423	23.08
765.732	22.69
766.042	22.77
766.351	23.7
766.66	23.19
766.97	23.89
767.279	23.6
767.588	23.73
767.897	23.48
768.206	23.16
768.515	24.58
768.824	24.36
769.133	22.73
769.441	24.45
769.75	24.27
770.059	24.09
770.367	24.39
770.676	25.21
770.984	23.75
771.293	23.87
771.601	24.81
771.91	23.28
772.218	25.47
772.526	24.3
772.834	22.41
773.142	27.15
773.45	25.75
773.758	22.73
774.066	24.38
774.374	25.06
774.682	26.56
774.99	22.32
775.298	25.53
775.605	23.24
775.913	22.84
776.22	24.06
776.528	25.18
776.835	25.21
777.143	24.87
777.45	26.34
777.757	23.39
778.065	24.67
778.372	21.73
778.679	25.87
778.986	23.29
779.293	24.34
779.6	21.25
779.907	24.39
780.214	25.73
780.52	24.23
780.827	24.26
781.134	25.95
781.44	22.6
781.747	24.45
782.053	24.09
782.36	25.04
782.666	28.13
782.973	22.77
783.279	23.36
783.585	24.41
783.891	27.04
784.197	25.26
784.503	24.22
784.809	22.59
785.115	22.61
785.421	23.7
785.727	25.76
786.033	23.36
786.339	28.15
786.644	27.97
786.95	24.82
787.255	25.73
787.561	24.14
787.866	24.52
788.172	22.4
788.477	25.48
788.782	24.37
789.088	27.61
789.393	27.75
789.698	26.97
790.003	24.75
790.308	24.46
790.613	24.51
790.918	21.85
791.223	27.43
791.527	25.35
791.832	27.87
792.137	25.15
792.441	29.86
792.746	26.93
793.05	29.5
793.355	27.25
793.659	25.75
793.963	22.92
794.268	28.09
794.572	25.91
794.876	25.45
795.18	28.95
795.484	29.22
795.788	23.54
796.092	25.13
796.396	24.3
796.7	24.43
797.004	30.48
797.307	23.08
797.611	24.03
797.915	26.69
798.218	26.11
798.522	28.08
798.825	28.12
799.128	28.51
799.432	27.26
799.735	27.44
800.038	23.84
800.341	24.65
800.644	27.33
800.947	28.29
801.25	27.48
801.553	25.87
801.856	23.32
802.159	28.75
802.462	28.71
802.764	26.49
803.067	26.7
803.37	30.09
803.672	22.71
803.975	25.44
804.277	23.09
804.579	27.36
804.882	22.66
805.184	25.55
805.486	28.57
805.788	30.24
806.09	27.14
806.392	26.64
806.694	27.14
806.996	28.26
807.298	28.88
807.6	27.24
807.902	28.19
808.203	24.35
808.505	26.58
808.807	26.14
809.108	29.28
809.409	27.3
809.711	25.83
810.012	32.85
810.313	30.13
810.615	26.92
810.916	26.69
811.217	27.95
811.518	25.51
811.819	29.67
812.12	28
812.421	25.56
812.722	25.45
813.023	27.67
813.323	29.7
813.624	26.69
813.925	27.86
814.225	22.46
814.526	29.28
814.826	31.55
815.126	23.18
815.427	24.38
815.727	33.36
816.027	32.43
816.327	29.17
816.627	29.18
816.927	24.76
817.227	25.14
817.527	31.51
817.827	31.53
818.127	33.1
818.427	26.94
818.727	32.29
819.026	28.07
819.326	25.55
819.625	35.32
819.925	29.14
820.224	31.24
820.524	31.4
820.823	31.89
821.122	31.25
821.421	30.6
821.72	32.16
822.019	28.52
822.318	30.97
822.617	27.95
822.916	29.78
823.215	29.23
823.514	30.82
823.813	29.81
824.111	28.73
824.41	29.16
824.709	29.75
825.007	30.37
825.306	29
825.604	29.67
825.902	29.36
826.201	30.02
826.499	30.59
826.797	30.47
827.095	29.91
827.393	30.59
827.691	29.21
827.989	30.26
828.287	30.71
828.585	32.8
828.882	30.19
829.18	31.97
829.478	30.39
829.775	29.95
830.073	30.91
830.37	29.88
830.668	32.16
830.965	29.72
831.263	31.4
831.56	31.96
831.857	29.88
832.154	29.2
832.451	30.09
832.748	30.62
833.045	30.92
833.342	33.33
833.639	30.88
833.936	31.4
834.232	31.91
834.529	28.94
834.826	28.14
835.122	27.09
835.419	32.9
835.715	28.62
836.012	32.47
836.308	32.16
836.604	31.16
836.901	30.14
837.197	30.25
837.493	28.86
837.789	31.59
838.085	29.92
838.381	31.94
838.677	34.23
838.972	29.39
839.268	31.54
839.564	34.93
839.86	33.83
840.155	33.84
840.451	28.58
840.746	30.4
841.042	37.42
841.337	25.76
841.632	33.07
841.928	28.47
842.223	38.35
842.518	37.6
842.813	31.46
843.108	24.27
843.403	27.41
843.698	27.75
843.993	23.22
844.287	39.17
844.582	34.89
844.877	29.56
845.171	29.61
845.466	28.5
845.761	27.85
846.055	35.26
846.349	22.02
846.644	26.34
846.938	27.64
847.232	22.83
847.526	34.02
847.82	12.89
848.114	30.54
848.408	34.16
848.702	27.01
848.996	36.42
849.29	23.15
849.584	50.35
849.877	28.35
850.171	28.1
850.465	35.14
850.758	42.77
851.052	32.53
851.345	43.6
851.638	32.5
851.932	13.75
852.225	24.55
852.518	30.35
852.811	33.42
853.104	21.75
853.397	40.31
853.69	36.27
853.983	27.73
854.276	52.08
854.569	36.49
854.861	37.48
855.154	44.22
855.447	53.47
855.739	46.57
856.032	24.93
856.324	31.62
856.616	21.83
856.909	39.17
857.201	12.34
857.493	14.89
857.785	31.07
858.077	28.7
858.369	32.35
858.661	7
858.953	17.89
859.245	39.45
859.537	35.38
859.829	37.82
860.12	40.18
860.412	31.25
860.703	33.26
860.995	34.73
861.286	33.36
861.578	29.96
861.869	36.97
862.16	44.3
862.452	49.15
862.743	31.94
863.034	38.01
863.325	47.47
863.616	27.78
863.907	23.69
864.198	18.7
864.488	49.59
864.779	23.92
865.07	35.7
865.36	33.81
865.651	19.63
865.941	35.63
866.232	33.6
866.522	14.21
866.813	32.25
867.103	29.49
867.393	23.4
867.683	50.81
867.973	11.4
868.263	50.11
868.553	31.78
868.843	29.7
869.133	36.95
869.423	45.79
869.713	34.23
870.002	39.11
870.292	28.38
870.582	35.26
870.871	31.21
871.161	15.41
871.45	24.57
871.739	29.13
872.029	49.74
872.318	30.13
872.607	38.67
872.896	24.16
873.185	18.89
873.474	43.13
873.763	45.77
874.052	28.18
874.341	18.59
874.63	32.5
874.918	49.07
875.207	37.87
875.496	18.29
875.784	31.94
876.073	36.6
876.361	34.83
876.649	18.82
876.938	33.32
877.226	45.58
877.514	30.66
877.802	26.6
878.09	18.12
878.378	42.33
878.666	25
878.954	21.85
879.242	27.65
879.53	8.27
879.817	7.94
880.105	31.33
880.392	28.32
880.68	42.88
880.967	28.55
881.255	12.08
881.542	27.48
881.83	37.32
882.117	43.02
882.404	34.44
882.691	42.66
882.978	41.02
883.265	40.82
883.552	47.69
883.839	35.48
884.126	32.15
884.413	34.86
884.699	27.95
884.986	35.2
885.273	34.81
885.559	34.81
885.846	34.81
