Data from 0013_forehead_Reflection__2__17.txt Node

Date: Mon Oct 17 14:31:44 CDT 2022
User: ToomeyLab
Spectrometer: FLMS14357
Trigger mode: 0
Integration Time (sec): 1.000000E-2
Scans to average: 100
Electric dark correction enabled: true
Nonlinearity correction enabled: false
Boxcar width: 0
XAxis mode: Wavelengths
Number of Pixels in Spectrum: 2048
>>>>>Begin Spectral Data<<<<<
189.047	-863.01
189.435	-863.01
189.823	-863.01
190.211	-12.66
190.599	659.73
190.987	-50.87
191.375	158.22
191.763	306.17
192.151	53.5
192.538	-270.13
192.926	-300.96
193.314	30.87
193.702	197.25
194.089	19.54
194.477	138.21
194.864	107.86
195.252	-270.81
195.639	174.56
196.027	162.54
196.414	-218.73
196.801	287.79
197.189	91.44
197.576	83.06
197.963	-144.2
198.351	-224.94
198.738	37.94
199.125	-34.82
199.512	-80.23
199.899	11.08
200.286	-2.66
200.673	25.41
201.06	-25.17
201.447	27.92
201.833	38.69
202.22	37.99
202.607	43.47
202.994	5.78
203.38	27.23
203.767	11.13
204.154	34.87
204.54	15.59
204.927	45.41
205.313	2.93
205.699	50.12
206.086	0.47
206.472	36.58
206.858	15.45
207.245	28.39
207.631	12.08
208.017	33.66
208.403	22.8
208.789	16.81
209.175	26.86
209.561	-12.59
209.947	-25.13
210.333	25.95
210.719	17.86
211.105	23.47
211.491	13.46
211.876	-8.12
212.262	29.9
212.648	23.8
213.034	22.08
213.419	18.2
213.805	6.4
214.19	22.56
214.576	37.04
214.961	1.7
215.346	23.52
215.732	-5.03
216.117	24.13
216.502	21.48
216.888	8.6
217.273	-18
217.658	30.95
218.043	6.01
218.428	-3.87
218.813	13.95
219.198	12.13
219.583	-2.08
219.968	14.9
220.353	15.71
220.738	7.77
221.122	9.56
221.507	13.37
221.892	6.82
222.276	6.36
222.661	10.1
223.046	8.62
223.43	13.35
223.815	2.5
224.199	9.07
224.583	-2.09
224.968	-1.46
225.352	-7.3
225.736	7.08
226.121	-6.88
226.505	5.28
226.889	5.42
227.273	3.87
227.657	7.66
228.041	4.97
228.425	4.39
228.809	3.01
229.193	3.45
229.577	5.32
229.961	4.15
230.344	2.44
230.728	2.42
231.112	2.96
231.495	3.06
231.879	3.94
232.263	2.54
232.646	4.53
233.03	3.07
233.413	1.33
233.797	3.54
234.18	5.17
234.563	2.58
234.946	3.9
235.33	3.52
235.713	2.29
236.096	2.25
236.479	3.75
236.862	2.45
237.245	2.59
237.628	1.12
238.011	3.53
238.394	4.27
238.777	5.27
239.16	4.19
239.543	3.37
239.925	4.26
240.308	3.13
240.691	3.33
241.073	3.44
241.456	2.91
241.838	3.25
242.221	2.07
242.603	2.59
242.986	2.48
243.368	2.85
243.75	2.55
244.133	2.69
244.515	2.87
244.897	3.35
245.279	3.74
245.661	3.21
246.043	3.23
246.425	2.29
246.807	3.2
247.189	3.04
247.571	3.09
247.953	2.52
248.335	2.62
248.717	2.72
249.098	3.09
249.48	2.98
249.862	2.69
250.243	2.5
250.625	3.24
251.006	2.73
251.388	2.97
251.769	3.78
252.151	2.93
252.532	3.31
252.913	3.22
253.295	1.91
253.676	3.12
254.057	3.12
254.438	2.86
254.819	3.29
255.2	4.21
255.581	3.02
255.962	2.46
256.343	2.82
256.724	3.01
257.105	2.76
257.486	2.82
257.867	2.95
258.247	3.14
258.628	2.91
259.009	3.65
259.389	2.69
259.77	3.18
260.15	2.97
260.531	2.47
260.911	2.74
261.292	2.83
261.672	2.65
262.052	2.7
262.432	2.65
262.813	2.75
263.193	3.15
263.573	3.18
263.953	2.78
264.333	2.99
264.713	2.77
265.093	3.03
265.473	2.78
265.853	2.79
266.233	3.87
266.612	3.03
266.992	3.96
267.372	2.95
267.752	3.16
268.131	3.37
268.511	2.74
268.89	2.97
269.27	2.83
269.649	2.73
270.029	2.65
270.408	3.49
270.787	2.86
271.167	2.69
271.546	2.71
271.925	2.57
272.304	3.5
272.683	2.84
273.062	2.6
273.441	2.33
273.82	2.47
274.199	3.26
274.578	2.89
274.957	2.59
275.336	2.69
275.715	2.66
276.093	2.53
276.472	3
276.851	2.88
277.229	2.39
277.608	2.57
277.986	2.6
278.365	3.44
278.743	3.06
279.122	2.54
279.5	3.18
279.878	2.66
280.257	2.6
280.635	2.54
281.013	2.85
281.391	2.63
281.769	2.82
282.147	2.93
282.525	3
282.903	2.54
283.281	2.66
283.659	2.7
284.037	2.34
284.415	2.92
284.792	2.42
285.17	2.29
285.548	3
285.925	3.05
286.303	2.79
286.68	2.83
287.058	3.16
287.435	2.8
287.813	2.67
288.19	2.73
288.567	2.6
288.945	2.62
289.322	3.32
289.699	3.03
290.076	2.99
290.453	2.52
290.83	2.84
291.207	3.08
291.584	2.95
291.961	3.04
292.338	3.02
292.715	2.94
293.092	2.78
293.469	2.94
293.845	3.43
294.222	3.63
294.599	3.43
294.975	2.72
295.352	2.85
295.728	3.11
296.105	2.98
296.481	2.98
296.858	3.35
297.234	2.92
297.61	2.98
297.986	2.87
298.363	2.91
298.739	3.47
299.115	2.96
299.491	2.99
299.867	2.98
300.243	3.68
300.619	2.85
300.995	3.05
301.371	3.38
301.746	2.9
302.122	3.12
302.498	3.51
302.874	3.41
303.249	3.72
303.625	3.63
304	3.27
304.376	3.66
304.751	3.95
305.127	3.67
305.502	3.53
305.878	3.79
306.253	3.73
306.628	3.89
307.003	3.58
307.378	3.79
307.754	3.75
308.129	3.85
308.504	3.74
308.879	3.85
309.254	3.93
309.629	3.39
310.003	4.31
310.378	3.92
310.753	3.79
311.128	3.83
311.502	4.17
311.877	3.91
312.252	3.84
312.626	3.76
313.001	3.63
313.375	3.9
313.75	3.82
314.124	3.97
314.498	3.97
314.873	4.13
315.247	4.04
315.621	4.39
315.995	3.95
316.369	4.09
316.743	4.36
317.117	4.61
317.491	4.44
317.865	4.57
318.239	4.98
318.613	4.79
318.987	4.42
319.361	4.54
319.734	4.69
320.108	4.42
320.482	4.61
320.855	4.2
321.229	4.06
321.602	5.01
321.976	4.36
322.349	4.64
322.723	4.48
323.096	4.54
323.469	5.08
323.843	4.89
324.216	4.83
324.589	4.89
324.962	4.88
325.335	5
325.708	5.38
326.081	5.01
326.454	5.51
326.827	5.03
327.2	4.91
327.573	4.82
327.945	4.66
328.318	5.38
328.691	5.42
329.063	4.85
329.436	5.11
329.809	5.22
330.181	5.52
330.553	5.18
330.926	5.36
331.298	5.28
331.671	6.02
332.043	5.82
332.415	5.93
332.787	5.58
333.159	5.54
333.532	5.51
333.904	5.35
334.276	5.54
334.648	5.07
335.02	5.42
335.391	5.96
335.763	5.65
336.135	5.57
336.507	6.37
336.879	5.83
337.25	6
337.622	5.88
337.993	6.1
338.365	5.86
338.736	5.97
339.108	6.17
339.479	5.68
339.851	6.11
340.222	5.74
340.593	6.11
340.964	5.92
341.336	5.93
341.707	6.14
342.078	5.88
342.449	6.23
342.82	6.08
343.191	6.27
343.562	6.44
343.933	6.44
344.303	6.09
344.674	7.01
345.045	6.89
345.416	6.48
345.786	6.67
346.157	6.3
346.527	6.67
346.898	6.86
347.268	7.01
347.639	6.73
348.009	6.84
348.38	6.74
348.75	6.41
349.12	6.82
349.49	6.75
349.861	7.32
350.231	6.68
350.601	6.56
350.971	7.17
351.341	6.58
351.711	6.94
352.081	7.03
352.45	7.42
352.82	7.64
353.19	6.99
353.56	6.98
353.929	7.3
354.299	7.18
354.669	7.54
355.038	7.62
355.408	7.59
355.777	7.24
356.147	7.31
356.516	7.57
356.885	7.86
357.254	7.49
357.624	8.04
357.993	7.77
358.362	7.53
358.731	7.5
359.1	7.56
359.469	7.74
359.838	7.78
360.207	8.01
360.576	7.88
360.945	8.02
361.314	7.9
361.682	8.18
362.051	7.78
362.42	8.02
362.788	8.11
363.157	8.16
363.525	7.91
363.894	8.31
364.262	8.28
364.631	8.24
364.999	8.12
365.367	8.29
365.735	8.17
366.104	8.26
366.472	8.01
366.84	8.54
367.208	8.73
367.576	8.65
367.944	8.45
368.312	8.45
368.68	8.87
369.048	8.7
369.416	8.86
369.783	8.66
370.151	8.66
370.519	8.93
370.886	9.2
371.254	9.02
371.621	8.8
371.989	9.15
372.356	9.2
372.724	9
373.091	9.02
373.458	9.17
373.826	9.3
374.193	9.4
374.56	9.35
374.927	9.45
375.294	9.36
375.661	9.57
376.028	9.67
376.395	9.27
376.762	9.49
377.129	9.58
377.496	9.32
377.863	9.51
378.229	9.69
378.596	9.68
378.963	9.65
379.329	9.93
379.696	9.72
380.062	9.96
380.429	9.71
380.795	10.1
381.161	10.04
381.528	9.82
381.894	10.12
382.26	9.98
382.626	10.39
382.993	10.45
383.359	10.34
383.725	10.52
384.091	10.66
384.457	10.3
384.823	10.29
385.188	10.22
385.554	10.76
385.92	10.46
386.286	10.55
386.651	10.57
387.017	10.35
387.383	10.57
387.748	10.82
388.114	10.67
388.479	10.87
388.845	10.98
389.21	10.99
389.575	11.15
389.94	10.93
390.306	11.31
390.671	11.23
391.036	11.11
391.401	11.05
391.766	11.29
392.131	11.33
392.496	11.34
392.861	10.98
393.226	11.17
393.591	11.26
393.956	11.41
394.32	11.73
394.685	11.52
395.05	11.54
395.414	11.79
395.779	11.51
396.143	11.7
396.508	11.59
396.872	11.65
397.236	11.95
397.601	11.88
397.965	11.6
398.329	11.92
398.694	12.06
399.058	11.88
399.422	11.89
399.786	12.31
400.15	12.13
400.514	12.14
400.878	12.26
401.242	12.17
401.605	12.47
401.969	12.36
402.333	12.5
402.697	12.44
403.06	12.5
403.424	12.45
403.787	12.52
404.151	12.55
404.514	12.52
404.878	12.57
405.241	12.57
405.604	12.76
405.968	12.82
406.331	12.44
406.694	12.81
407.057	12.54
407.42	12.69
407.783	12.91
408.146	13.19
408.509	13.26
408.872	13.08
409.235	13.13
409.598	13.09
409.961	12.97
410.323	13.46
410.686	13.43
411.049	13.31
411.411	13.63
411.774	13.42
412.136	13.53
412.499	13.48
412.861	13.59
413.223	13.77
413.586	13.5
413.948	13.68
414.31	13.61
414.672	13.86
415.035	14.04
415.397	14.06
415.759	13.92
416.121	14.19
416.483	14.15
416.845	13.97
417.206	13.81
417.568	14.06
417.93	14
418.292	13.99
418.653	14.1
419.015	14.09
419.377	14.06
419.738	13.87
420.1	14.08
420.461	14.11
420.822	14.25
421.184	14.12
421.545	14.07
421.906	14.21
422.267	14.06
422.629	14.12
422.99	14.21
423.351	14.23
423.712	14.3
424.073	14.36
424.434	14.52
424.795	14.65
425.155	14.66
425.516	14.43
425.877	14.41
426.238	14.42
426.598	14.38
426.959	14.61
427.32	14.91
427.68	14.95
428.041	15.02
428.401	15.21
428.761	15.39
429.122	15.44
429.482	15.55
429.842	15.42
430.202	15.68
430.563	15.53
430.923	15.76
431.283	15.7
431.643	15.56
432.003	15.76
432.363	15.77
432.722	15.88
433.082	15.72
433.442	15.81
433.802	15.78
434.161	15.72
434.521	15.93
434.881	15.72
435.24	15.65
435.6	15.76
435.959	15.86
436.319	16.12
436.678	16.21
437.037	16.15
437.396	16.25
437.756	16.46
438.115	16.15
438.474	16.34
438.833	16.34
439.192	16.36
439.551	16.23
439.91	16.28
440.269	16.37
440.628	16.28
440.987	16.38
441.345	16.26
441.704	16.29
442.063	16.39
442.421	16.51
442.78	16.43
443.138	16.6
443.497	16.64
443.855	16.88
444.214	16.9
444.572	16.93
444.93	17.14
445.288	17.04
445.647	17.04
446.005	17
446.363	17.15
446.721	16.91
447.079	16.88
447.437	16.88
447.795	16.84
448.153	16.73
448.51	16.8
448.868	17.04
449.226	17.04
449.584	17.06
449.941	17.52
450.299	17.62
450.656	17.55
451.014	17.57
451.371	17.85
451.729	17.87
452.086	17.84
452.443	18.11
452.801	17.87
453.158	18.1
453.515	18.1
453.872	17.97
454.229	17.84
454.586	17.98
454.943	18.03
455.3	18.31
455.657	18.12
456.014	18.25
456.371	18.1
456.727	18.25
457.084	18.37
457.441	18.4
457.797	18.42
458.154	18.51
458.51	18.54
458.867	18.69
459.223	18.66
459.58	18.57
459.936	18.7
460.292	18.63
460.648	18.53
461.005	18.59
461.361	18.29
461.717	18.28
462.073	18.34
462.429	18.54
462.785	18.82
463.141	18.86
463.496	19.05
463.852	18.99
464.208	19.28
464.564	19.34
464.919	19.22
465.275	19.24
465.631	19.43
465.986	19.65
466.342	19.47
466.697	19.59
467.052	19.5
467.408	19.49
467.763	19.48
468.118	19.54
468.473	19.77
468.829	19.4
469.184	19.61
469.539	19.6
469.894	19.66
470.249	19.77
470.603	19.76
470.958	20
471.313	19.74
471.668	20.11
472.023	19.93
472.377	20.17
472.732	20.03
473.086	20.31
473.441	20.24
473.795	20.31
474.15	20.35
474.504	20.35
474.859	20.23
475.213	20.58
475.567	20.48
475.921	20.68
476.275	20.49
476.63	20.6
476.984	20.98
477.338	20.79
477.692	20.88
478.045	20.83
478.399	20.81
478.753	20.94
479.107	20.86
479.461	20.89
479.814	20.89
480.168	20.83
480.521	20.97
480.875	20.94
481.228	20.91
481.582	21.18
481.935	21.17
482.289	21.06
482.642	21.16
482.995	21.16
483.348	21.08
483.701	21.13
484.055	21.16
484.408	21.1
484.761	20.89
485.114	20.59
485.466	20.35
485.819	20.23
486.172	20.19
486.525	20.35
486.878	20.56
487.23	20.71
487.583	20.98
487.936	21.25
488.288	21.2
488.641	21
488.993	20.97
489.345	20.94
489.698	20.9
490.05	20.94
490.402	21
490.754	21.21
491.107	21.41
491.459	21.77
491.811	22.06
492.163	22.09
492.515	22.07
492.866	21.75
493.218	21.49
493.57	21.48
493.922	21.46
494.274	21.69
494.625	21.83
494.977	22.13
495.328	22.33
495.68	22.66
496.031	22.86
496.383	22.69
496.734	22.79
497.086	22.76
497.437	22.93
497.788	23.04
498.139	22.85
498.49	22.75
498.842	22.78
499.193	22.97
499.544	22.86
499.894	22.96
500.245	23.01
500.596	23.11
500.947	23.16
501.298	23.38
501.648	23.49
501.999	23.51
502.35	23.68
502.7	23.67
503.051	23.63
503.401	23.86
503.752	23.9
504.102	23.86
504.452	23.86
504.803	23.96
505.153	23.84
505.503	23.96
505.853	23.98
506.203	23.9
506.553	24.01
506.903	23.92
507.253	24.1
507.603	24.12
507.953	24.34
508.303	24.16
508.652	24.3
509.002	24.34
509.352	24.26
509.701	24.36
510.051	24.2
510.4	23.96
510.75	24.14
511.099	24.28
511.449	24.34
511.798	24.26
512.147	24.56
512.496	24.53
512.846	24.73
513.195	24.73
513.544	24.71
513.893	24.65
514.242	24.86
514.591	24.72
514.939	24.82
515.288	24.98
515.637	25.07
515.986	25.08
516.334	25.29
516.683	25.48
517.032	25.43
517.38	25.36
517.729	25.59
518.077	25.49
518.426	25.52
518.774	25.5
519.122	25.58
519.47	25.44
519.819	25.4
520.167	25.24
520.515	24.98
520.863	25.14
521.211	25.1
521.559	25.24
521.907	25.56
522.255	25.7
522.602	25.81
522.95	25.97
523.298	26.01
523.645	26.25
523.993	26.29
524.341	26.41
524.688	26.33
525.036	26.39
525.383	26.29
525.73	26.5
526.078	26.52
526.425	26.33
526.772	26.33
527.119	26.27
527.466	26.02
527.814	26.06
528.161	26.02
528.508	26.28
528.854	26.27
529.201	26.34
529.548	26.3
529.895	26.01
530.242	25.8
530.588	25.67
530.935	25.71
531.282	25.67
531.628	25.79
531.975	25.84
532.321	26.15
532.667	26.57
533.014	26.61
533.36	26.96
533.706	26.94
534.052	27.05
534.399	26.94
534.745	26.59
535.091	26.44
535.437	26.54
535.783	26.56
536.129	26.62
536.474	26.93
536.82	27.11
537.166	27.44
537.512	27.54
537.857	27.53
538.203	27.29
538.549	27.21
538.894	27.57
539.239	27.42
539.585	27.44
539.93	27.75
540.276	27.9
540.621	28.14
540.966	28.2
541.311	28.39
541.656	28.31
542.001	28.31
542.346	28.21
542.691	27.73
543.036	27.45
543.381	27.37
543.726	27.46
544.071	27.48
544.415	27.61
544.76	27.77
545.105	27.97
545.449	28.23
545.794	28.37
546.138	28.34
546.483	28.35
546.827	28.45
547.171	28.6
547.516	28.69
547.86	28.83
548.204	28.52
548.548	28.69
548.892	28.75
549.236	28.86
549.58	29
549.924	29.1
550.268	29.35
550.612	29.27
550.956	29.78
551.3	29.65
551.643	29.76
551.987	29.69
552.33	29.68
552.674	29.71
553.017	29.86
553.361	29.76
553.704	29.77
554.048	29.75
554.391	29.6
554.734	29.6
555.077	29.63
555.42	29.88
555.764	29.98
556.107	30.06
556.45	30.26
556.793	30.3
557.135	30.23
557.478	30.44
557.821	30.28
558.164	30.6
558.507	30.51
558.849	30.44
559.192	30.51
559.534	30.37
559.877	30.49
560.219	30.66
560.562	30.66
560.904	30.92
561.246	31
561.589	30.92
561.931	30.73
562.273	30.97
562.615	30.91
562.957	31.13
563.299	30.96
563.641	31.17
563.983	30.92
564.325	31.19
564.667	31.39
565.008	31.52
565.35	31.28
565.692	31.72
566.033	31.36
566.375	31.5
566.716	31.39
567.058	31.43
567.399	31.43
567.741	31.5
568.082	31.2
568.423	31.47
568.764	31.38
569.105	31.26
569.447	31.52
569.788	31.69
570.129	31.98
570.47	31.97
570.811	32.09
571.151	31.97
571.492	31.84
571.833	31.99
572.174	32.17
572.514	32.17
572.855	32.21
573.195	32.08
573.536	32.01
573.876	32.09
574.217	32
574.557	32.26
574.898	32.08
575.238	32.38
575.578	32.47
575.918	32.43
576.258	32.56
576.598	32.5
576.938	32.6
577.278	32.59
577.618	32.52
577.958	32.46
578.298	32.65
578.638	32.89
578.977	32.97
579.317	32.95
579.657	32.83
579.996	33.05
580.336	33.18
580.675	33.14
581.014	32.89
581.354	33.05
581.693	33.02
582.032	33.33
582.372	33.62
582.711	33.61
583.05	33.35
583.389	33.46
583.728	33.87
584.067	33.93
584.406	33.45
584.745	33.72
585.083	34.06
585.422	33.79
585.761	33.87
586.1	34.05
586.438	33.76
586.777	33.82
587.115	33.76
587.454	34.09
587.792	33.88
588.13	34.07
588.469	34.34
588.807	33.97
589.145	34.24
589.483	34.25
589.821	34.31
590.159	34.27
590.497	34.43
590.835	34.2
591.173	34.31
591.511	34.29
591.849	34.44
592.187	34.56
592.524	34.58
592.862	34.75
593.2	34.74
593.537	34.59
593.875	34.67
594.212	34.76
594.55	34.7
594.887	35.01
595.224	34.91
595.561	34.9
595.899	35.05
596.236	34.99
596.573	35.16
596.91	34.92
597.247	35.17
597.584	35.15
597.921	35.54
598.258	35.44
598.594	35.01
598.931	34.89
599.268	34.96
599.604	34.9
599.941	35.11
600.277	35.12
600.614	35.51
600.95	35.43
601.287	35.62
601.623	35.42
601.959	35.83
602.296	35.65
602.632	35.73
602.968	35.67
603.304	35.84
603.64	35.92
603.976	35.6
604.312	36.03
604.648	36.02
604.984	35.94
605.319	35.73
605.655	36.02
605.991	35.71
606.326	35.6
606.662	35.65
606.998	35.84
607.333	36.02
607.668	35.83
608.004	35.96
608.339	36.54
608.674	36.45
609.01	36.49
609.345	36.43
609.68	36.7
610.015	36.77
610.35	36.61
610.685	36.34
611.02	36.27
611.355	36.37
611.689	36.18
612.024	36.4
612.359	36.52
612.694	36.64
613.028	36.88
613.363	36.83
613.697	36.83
614.032	37.31
614.366	37.14
614.7	37.07
615.035	37.12
615.369	36.98
615.703	37.26
616.037	37.56
616.371	37
616.705	37.59
617.039	37.74
617.373	37.68
617.707	37.07
618.041	37.58
618.375	37.26
618.709	37.76
619.042	37.51
619.376	37.51
619.71	37.79
620.043	37.55
620.377	37.65
620.71	37.87
621.043	37.68
621.377	37.74
621.71	38.32
622.043	37.93
622.376	37.89
622.709	38.14
623.043	37.82
623.376	37.84
623.709	37.42
624.041	37.56
624.374	38.42
624.707	38.27
625.04	37.96
625.373	38.41
625.705	38.02
626.038	38.43
626.37	38.77
626.703	38.67
627.035	38.42
627.368	38.33
627.7	38.62
628.032	38.41
628.365	38.44
628.697	38.38
629.029	38.82
629.361	38.47
629.693	38.71
630.025	38.57
630.357	38.54
630.689	38.6
631.021	38.57
631.353	39
631.684	38.8
632.016	38.98
632.348	39.09
632.679	38.71
633.011	38.74
633.342	38.77
633.674	39.21
634.005	38.87
634.336	39.07
634.668	39.7
634.999	39.05
635.33	39.18
635.661	39.32
635.992	39.25
636.323	39.38
636.654	39.49
636.985	38.88
637.316	39.11
637.647	39.28
637.977	39.02
638.308	39.21
638.639	39.6
638.969	39.4
639.3	39.18
639.63	39.53
639.961	39.48
640.291	39.9
640.622	39.83
640.952	40
641.282	39.82
641.612	40.03
641.943	39.56
642.273	39.89
642.603	39.9
642.933	39.97
643.263	39.93
643.592	39.68
643.922	39.91
644.252	39.77
644.582	40.32
644.911	40.83
645.241	40.22
645.571	40.01
645.9	39.99
646.23	40.34
646.559	40.34
646.888	40.4
647.218	40.4
647.547	40.42
647.876	40.96
648.205	40.39
648.534	40.09
648.863	40.13
649.192	40.43
649.521	40.88
649.85	40.28
650.179	40.72
650.508	40.65
650.837	40.32
651.165	41.05
651.494	40.5
651.822	40.3
652.151	40.86
652.479	41.1
652.808	40.91
653.136	41.21
653.465	41.18
653.793	41.09
654.121	41.09
654.449	41.16
654.777	41.24
655.105	40.77
655.433	41.27
655.761	41.38
656.089	40.89
656.417	41.08
656.745	41.18
657.073	41.37
657.4	41.59
657.728	41.31
658.056	40.86
658.383	41.37
658.711	41.53
659.038	41.26
659.365	41.89
659.693	41.7
660.02	41.8
660.347	41.65
660.674	41.77
661.001	41.68
661.329	41.71
661.656	41.97
661.982	41.66
662.309	42.02
662.636	42.38
662.963	41.84
663.29	41.65
663.616	41.95
663.943	41.38
664.27	41.76
664.596	41.92
664.923	42.01
665.249	42.3
665.576	42.26
665.902	42.42
666.228	42.15
666.554	41.7
666.881	42.18
667.207	42.55
667.533	41.96
667.859	42.1
668.185	42.13
668.511	42.87
668.837	42.51
669.162	42.18
669.488	42.15
669.814	42.42
670.139	42.34
670.465	43.03
670.791	42.55
671.116	42.51
671.442	42.66
671.767	42.44
672.092	42.1
672.418	42.44
672.743	42.89
673.068	42.69
673.393	42.45
673.718	42.41
674.043	42.97
674.368	42.56
674.693	42.48
675.018	42.88
675.343	43.19
675.667	42.78
675.992	42.72
676.317	43.18
676.641	42.83
676.966	43.5
677.29	42.46
677.615	42.48
677.939	43.01
678.264	42.7
678.588	43.04
678.912	43.01
679.236	43.25
679.56	43.16
679.885	43.5
680.209	43.26
680.532	43.19
680.856	43.44
681.18	43.12
681.504	43.77
681.828	42.9
682.152	43.18
682.475	43.14
682.799	43.74
683.122	43.86
683.446	43.72
683.769	43.06
684.093	43.27
684.416	43.76
684.739	43.1
685.062	44.03
685.386	43.03
685.709	43.86
686.032	43.78
686.355	43.35
686.678	43.62
687.001	43.08
687.324	44
687.646	43.44
687.969	43.52
688.292	44.65
688.614	44.06
688.937	44.29
689.26	43.27
689.582	43.71
689.904	44.08
690.227	43.46
690.549	44.39
690.871	43.76
691.194	43.86
691.516	44.85
691.838	43.48
692.16	44.31
692.482	43.8
692.804	44.13
693.126	44.54
693.448	43.93
693.769	44.57
694.091	43.89
694.413	44.08
694.735	44.3
695.056	44.05
695.378	43.37
695.699	44.49
696.021	43.82
696.342	44.47
696.663	45.52
696.984	45.13
697.306	45.58
697.627	43.6
697.948	44.65
698.269	44.62
698.59	45.34
698.911	44.98
699.232	45.11
699.553	45.43
699.873	44.62
700.194	44.26
700.515	45.11
700.835	44.51
701.156	44.79
701.477	45.03
701.797	45.08
702.117	45.32
702.438	44.62
702.758	45.44
703.078	45.73
703.398	46.42
703.719	44.96
704.039	45.09
704.359	45.56
704.679	45.56
704.999	45.94
705.319	45.92
705.638	45.87
705.958	44.64
706.278	45.32
706.597	45.64
706.917	45.55
707.237	45.49
707.556	45.64
707.876	44.88
708.195	44.95
708.514	45.42
708.834	44.81
709.153	45.3
709.472	44.24
709.791	45.51
710.11	45.63
710.429	45.22
710.748	45.87
711.067	45.55
711.386	46.22
711.705	45.88
712.023	46.04
712.342	47.01
712.661	45.89
712.979	44.95
713.298	45.57
713.616	45.84
713.935	45.59
714.253	45.78
714.572	46.02
714.89	45.59
715.208	46.09
715.526	45.16
715.844	45.51
716.162	46.59
716.48	45.66
716.798	45.62
717.116	46.19
717.434	46.07
717.752	45.82
718.069	46.79
718.387	45.85
718.705	46.42
719.022	46.22
719.34	46.3
719.657	46.29
719.975	46.3
720.292	46.43
720.609	46.46
720.927	46.12
721.244	46.27
721.561	48.44
721.878	46.65
722.195	46.49
722.512	47.46
722.829	47.88
723.146	46.96
723.463	47.39
723.779	46.88
724.096	47
724.413	46.93
724.729	46.43
725.046	45.16
725.362	47.31
725.679	46.63
725.995	45.5
726.311	46.84
726.628	47.3
726.944	45.76
727.26	47.77
727.576	46.69
727.892	46.43
728.208	47.08
728.524	46.18
728.84	46.4
729.156	46.54
729.472	46.1
729.787	47.57
730.103	46.54
730.419	47.3
730.734	49.51
731.05	46.55
731.365	47.02
731.681	47.06
731.996	45.7
732.311	46.82
732.626	47.42
732.942	47.76
733.257	46.38
733.572	46.98
733.887	46.35
734.202	46.84
734.517	47.81
734.832	46.8
735.146	48.2
735.461	47.52
735.776	47.95
736.091	47.64
736.405	46.76
736.72	47.86
737.034	46.56
737.349	47.99
737.663	47.55
737.977	48.09
738.292	47.39
738.606	46.99
738.92	49.27
739.234	47.4
739.548	47.46
739.862	47.98
740.176	46.84
740.49	47.02
740.804	46.53
741.117	47.25
741.431	48.5
741.745	48.45
742.058	46.48
742.372	46.93
742.685	46.69
742.999	45.56
743.312	47.19
743.626	46.66
743.939	47.8
744.252	49.47
744.565	47.56
744.878	46.53
745.191	48.15
745.505	48.3
745.817	46.92
746.13	48.85
746.443	46.45
746.756	47.41
747.069	48.59
747.381	46.4
747.694	48.43
748.007	49.13
748.319	49.22
748.632	48.15
748.944	46.41
749.256	50.32
749.569	47.23
749.881	48.06
750.193	48.08
750.505	46.97
750.817	47.21
751.129	48.41
751.441	50.91
751.753	49.73
752.065	49.03
752.377	47.51
752.689	48.27
753	47.55
753.312	48
753.624	48.97
753.935	48.07
754.247	48.86
754.558	50.62
754.869	49.43
755.181	49.34
755.492	49.36
755.803	47.57
756.114	47.48
756.425	48.96
756.736	49.27
757.047	48.21
757.358	47.92
757.669	47.1
757.98	46.63
758.291	50.33
758.601	48.71
758.912	50.43
759.223	49.31
759.533	47.7
759.844	48.77
760.154	49.91
760.464	49.31
760.775	49.38
761.085	48.34
761.395	49.16
761.705	49.38
762.016	50.57
762.326	49.1
762.636	48.9
762.945	46.89
763.255	49.01
763.565	50.42
763.875	49.39
764.185	48.47
764.494	49.38
764.804	50.34
765.113	49.6
765.423	49.4
765.732	48.24
766.042	48.76
766.351	48.64
766.66	48.75
766.97	48.77
767.279	48.81
767.588	50.28
767.897	47.96
768.206	48.17
768.515	49.23
768.824	49.73
769.133	49.78
769.441	50.53
769.75	51.01
770.059	50.02
770.367	50.3
770.676	51.5
770.984	49.78
771.293	49.69
771.601	49.79
771.91	50.95
772.218	48.13
772.526	50.4
772.834	46.71
773.142	51.41
773.45	50.81
773.758	51.8
774.066	48.87
774.374	49.38
774.682	50.11
774.99	50.55
775.298	51.51
775.605	45.88
775.913	50.03
776.22	50.84
776.528	50.59
776.835	50.68
777.143	46.89
777.45	50.89
777.757	49.25
778.065	52.69
778.372	48.6
778.679	51.65
778.986	50.14
779.293	50.82
779.6	47.16
779.907	50.15
780.214	46.88
780.52	48.81
780.827	52.06
781.134	48.24
781.44	48.12
781.747	52.01
782.053	48.85
782.36	46.88
782.666	52.58
782.973	48.35
783.279	49.66
783.585	49.2
783.891	50.8
784.197	51.41
784.503	50.23
784.809	48.92
785.115	45.67
785.421	50.03
785.727	52.07
786.033	46.99
786.339	47.81
786.644	51.28
786.95	49.5
787.255	52.34
787.561	48.95
787.866	50.33
788.172	47.47
788.477	47.52
788.782	51.22
789.088	47.76
789.393	50.3
789.698	49.82
790.003	50.69
790.308	48.02
790.613	50.95
790.918	50.53
791.223	47.95
791.527	45.66
791.832	52.02
792.137	48.41
792.441	52.85
792.746	51.85
793.05	49.42
793.355	47.36
793.659	47.65
793.963	48.96
794.268	53.52
794.572	52.39
794.876	52.33
795.18	48.5
795.484	54.2
795.788	49.26
796.092	52.72
796.396	52.39
796.7	51.03
797.004	53.58
797.307	46.62
797.611	44.94
797.915	51.38
798.218	52.33
798.522	51.86
798.825	54.74
799.128	51.67
799.432	48.82
799.735	50.22
800.038	51.2
800.341	48
800.644	49.27
800.947	51.26
801.25	50.88
801.553	49.75
801.856	47.92
802.159	54.12
802.462	50.45
802.764	54.13
803.067	51.15
803.37	50.05
803.672	51.42
803.975	50.64
804.277	48
804.579	51.97
804.882	52.5
805.184	50.39
805.486	52.08
805.788	48.26
806.09	51.79
806.392	50.46
806.694	46.59
806.996	49.87
807.298	49.43
807.6	48.82
807.902	51.79
808.203	48.82
808.505	49.61
808.807	51.07
809.108	54.2
809.409	51.99
809.711	50.86
810.012	53.74
810.313	53.52
810.615	52.95
810.916	52.44
811.217	48.95
811.518	48.78
811.819	56.27
812.12	51.61
812.421	52.61
812.722	49.54
813.023	49.46
813.323	54.43
813.624	49.12
813.925	52.52
814.225	52.88
814.526	53
814.826	54.54
815.126	49.64
815.427	49.95
815.727	52.86
816.027	53.44
816.327	52.02
816.627	50.71
816.927	50.31
817.227	50.69
817.527	51.17
817.827	51.48
818.127	53.86
818.427	51.25
818.727	51.63
819.026	54.82
819.326	50.52
819.625	52.03
819.925	52.25
820.224	46.11
820.524	49.23
820.823	49.42
821.122	52.67
821.421	50.63
821.72	52.46
822.019	52.31
822.318	52.6
822.617	48.25
822.916	52.41
823.215	53.89
823.514	52.44
823.813	52.67
824.111	49.7
824.41	52.12
824.709	51.63
825.007	52.36
825.306	52.05
825.604	51.45
825.902	50.83
826.201	51.52
826.499	51.9
826.797	50.52
827.095	53.26
827.393	51.59
827.691	49.24
827.989	52.88
828.287	50.87
828.585	51.67
828.882	49.91
829.18	51.79
829.478	51.9
829.775	53.06
830.073	52.7
830.37	50.63
830.668	53.53
830.965	52.21
831.263	52.31
831.56	53.91
831.857	51.89
832.154	52.55
832.451	51.59
832.748	51.34
833.045	55.42
833.342	51.37
833.639	45.62
833.936	53.48
834.232	51.67
834.529	49.3
834.826	46.16
835.122	50.01
835.419	50.56
835.715	50.58
836.012	55.56
836.308	50.98
836.604	53.23
836.901	52.1
837.197	49.74
837.493	52.34
837.789	52.59
838.085	51.82
838.381	54.14
838.677	54.24
838.972	54.21
839.268	54.07
839.564	53.9
839.86	52.19
840.155	52.45
840.451	52.77
840.746	56.45
841.042	58.78
841.337	52.71
841.632	48.8
841.928	50.51
842.223	47.73
842.518	53.51
842.813	49.31
843.108	52.17
843.403	51.32
843.698	57.8
843.993	60.61
844.287	55.5
844.582	51.02
844.877	54.26
845.171	55.89
845.466	50.3
845.761	53.99
846.055	57.97
846.349	40.33
846.644	49.66
846.938	36.85
847.232	53.36
847.526	49.06
847.82	42.98
848.114	55.94
848.408	48.46
848.702	42.65
848.996	40.48
849.29	31.67
849.584	73.73
849.877	62
850.171	42.07
850.465	47.88
850.758	42.8
851.052	46.48
851.345	67
851.638	43.62
851.932	51.23
852.225	64.73
852.518	53.83
852.811	47.05
853.104	42.27
853.397	72.9
853.69	51.04
853.983	42.07
854.276	72.96
854.569	58.35
854.861	50.45
855.154	71.93
855.447	52.1
855.739	50.01
856.032	52.86
856.324	43.91
856.616	52.98
856.909	58.83
857.201	40.99
857.493	33.07
857.785	57.54
858.077	38.11
858.369	44.37
858.661	57.01
858.953	36.7
859.245	44.79
859.537	58.83
859.829	56.93
860.12	53.37
860.412	49.15
860.703	32.61
860.995	52.33
861.286	48.79
861.578	58.98
861.869	43.57
862.16	44.58
862.452	49.34
862.743	47.57
863.034	46.38
863.325	47.83
863.616	56.95
863.907	45.39
864.198	45.2
864.488	40.66
864.779	49.35
865.07	55.46
865.36	26.69
865.651	57.26
865.941	70.95
866.232	36.83
866.522	41.07
866.813	48.37
867.103	33.89
867.393	43.79
867.683	48.88
867.973	46.59
868.263	51.26
868.553	49.15
868.843	42.61
869.133	55.21
869.423	72.27
869.713	52.7
870.002	62.85
870.292	34.45
870.582	59.67
870.871	73.25
871.161	42.81
871.45	57.02
871.739	45.59
872.029	35.01
872.318	50.68
872.607	52.06
872.896	27.77
873.185	44.44
873.474	56.96
873.763	50.48
874.052	49.67
874.341	42.09
874.63	66.89
874.918	50.2
875.207	54.43
875.496	38.02
875.784	60.43
876.073	42.02
876.361	86.43
876.649	72.47
876.938	46.17
877.226	30.86
877.514	49.98
877.802	42.79
878.09	47.78
878.378	46.6
878.666	63.86
878.954	46.71
879.242	52.94
879.53	44.24
879.817	9.83
880.105	43.58
880.392	43.6
880.68	49.59
880.967	54.8
881.255	47.93
881.542	30.02
881.83	55.78
882.117	50.07
882.404	62.17
882.691	45
882.978	52.54
883.265	53
883.552	56.76
883.839	51.33
884.126	53.07
884.413	51.71
884.699	49.19
884.986	53.19
885.273	52.32
885.559	52.32
885.846	52.32
