Data from 0341_forehead_Reflection__0__274.txt Node

Date: Fri Oct 20 22:54:06 CDT 2023
User: ToomeyLab
Spectrometer: FLMS14357
Trigger mode: 0
Integration Time (sec): 1.000000E-2
Scans to average: 100
Electric dark correction enabled: true
Nonlinearity correction enabled: false
Boxcar width: 0
XAxis mode: Wavelengths
Number of Pixels in Spectrum: 2048
>>>>>Begin Spectral Data<<<<<
189.047	5.29
189.435	5.29
189.823	5.29
190.211	426.05
190.599	193.82
190.987	197.59
191.375	80.8
191.763	51.3
192.151	-54.53
192.538	4582.76
192.926	-11.86
193.314	49.53
193.702	86.47
194.089	158.71
194.477	76.55
194.864	-61.4
195.252	112.63
195.639	-1496.58
196.027	57.75
196.414	47.91
196.801	1.83
197.189	-40.69
197.576	123.87
197.963	921.41
198.351	83.11
198.738	37.47
199.125	20.03
199.512	60.47
199.899	36
200.286	-7.82
200.673	49.51
201.06	21.89
201.447	13.27
201.833	47.28
202.22	20.73
202.607	52.91
202.994	32.67
203.38	32.07
203.767	8.17
204.154	28.35
204.54	46.64
204.927	14.55
205.313	25.3
205.699	83.15
206.086	36.17
206.472	12.79
206.858	39.03
207.245	5.03
207.631	66.11
208.017	44.63
208.403	79.12
208.789	57.85
209.175	-26.38
209.561	19.51
209.947	-9.82
210.333	27.46
210.719	2.95
211.105	26.52
211.491	53.24
211.876	70.97
212.262	39.56
212.648	-4.8
213.034	-11.11
213.419	15.37
213.805	-24.56
214.19	-5.56
214.576	27.36
214.961	28.43
215.346	40.64
215.732	39.17
216.117	10.4
216.502	23.71
216.888	49.48
217.273	16.07
217.658	29.22
218.043	27.78
218.428	18.07
218.813	39.6
219.198	7.29
219.583	2.71
219.968	-18.5
220.353	53.54
220.738	29.08
221.122	11.72
221.507	25.92
221.892	17.31
222.276	13.69
222.661	28.13
223.046	-4.68
223.43	5.46
223.815	14.29
224.199	10.59
224.583	9.48
224.968	10.15
225.352	2.2
225.736	4.24
226.121	14.52
226.505	8.03
226.889	13.9
227.273	7.56
227.657	10.93
228.041	5.85
228.425	5.57
228.809	7.83
229.193	6.37
229.577	7.58
229.961	4.28
230.344	3.84
230.728	2.6
231.112	3.58
231.495	2.29
231.879	3.16
232.263	4.13
232.646	2.16
233.03	3.84
233.413	2.5
233.797	3.54
234.18	4.79
234.563	4.99
234.946	7.13
235.33	5.94
235.713	3.86
236.096	4.42
236.479	5
236.862	3.79
237.245	4.16
237.628	3.85
238.011	4.4
238.394	3.21
238.777	4.02
239.16	4.66
239.543	6.69
239.925	4.35
240.308	3.57
240.691	5.09
241.073	4.26
241.456	6.27
241.838	3.24
242.221	5.07
242.603	2.85
242.986	3.64
243.368	3.86
243.75	3.47
244.133	3.09
244.515	3.1
244.897	3.24
245.279	2.95
245.661	2.99
246.043	3.41
246.425	3.47
246.807	3.92
247.189	3.25
247.571	2.57
247.953	3.79
248.335	3.74
248.717	3.23
249.098	2.95
249.48	3.11
249.862	3.05
250.243	3.52
250.625	3.33
251.006	3.54
251.388	3.25
251.769	3.61
252.151	3.07
252.532	4.94
252.913	4.16
253.295	2.8
253.676	3.76
254.057	2.96
254.438	3.25
254.819	3.26
255.2	3.79
255.581	3.49
255.962	3.93
256.343	3.51
256.724	3.34
257.105	4.29
257.486	4.52
257.867	3.36
258.247	3.87
258.628	3.27
259.009	3.18
259.389	3.73
259.77	3.59
260.15	3.95
260.531	3.43
260.911	3.17
261.292	2.96
261.672	3.33
262.052	3.21
262.432	3.37
262.813	3.33
263.193	3.54
263.573	3.13
263.953	3.15
264.333	4.01
264.713	4.03
265.093	3.85
265.473	3.72
265.853	3.03
266.233	3.21
266.612	3.22
266.992	3.17
267.372	3.16
267.752	3.03
268.131	3.79
268.511	3.54
268.89	3.68
269.27	3.11
269.649	2.59
270.029	3.64
270.408	3.31
270.787	3.82
271.167	3.26
271.546	3.44
271.925	3.61
272.304	2.96
272.683	3.58
273.062	3.76
273.441	3.66
273.82	3.34
274.199	3.36
274.578	3.48
274.957	3.75
275.336	3.53
275.715	3.65
276.093	3.24
276.472	3.32
276.851	3.88
277.229	3.68
277.608	2.85
277.986	3.12
278.365	3.38
278.743	3.51
279.122	3.47
279.5	3.2
279.878	3.14
280.257	3.21
280.635	3.77
281.013	4.12
281.391	3.57
281.769	3.02
282.147	3
282.525	3.37
282.903	3.38
283.281	3.49
283.659	3.22
284.037	3.39
284.415	2.78
284.792	3.25
285.17	3.42
285.548	3.3
285.925	3.2
286.303	3.27
286.68	3.05
287.058	3.84
287.435	3.35
287.813	3.15
288.19	3.08
288.567	3.26
288.945	4
289.322	3.99
289.699	2.68
290.076	3.88
290.453	3.56
290.83	3.31
291.207	3.97
291.584	3.23
291.961	3.42
292.338	3.4
292.715	3.43
293.092	3.91
293.469	4.03
293.845	3.35
294.222	3.59
294.599	3.61
294.975	4.93
295.352	4.08
295.728	3.96
296.105	4.03
296.481	3.49
296.858	3.73
297.234	4.09
297.61	4.08
297.986	3.8
298.363	3.97
298.739	3.99
299.115	3.98
299.491	4.1
299.867	4.11
300.243	3.9
300.619	4.32
300.995	4.37
301.371	4.32
301.746	4.39
302.122	4.66
302.498	4.26
302.874	4.12
303.249	4.71
303.625	4.51
304	4.98
304.376	4.45
304.751	4.09
305.127	4.4
305.502	4.89
305.878	4.94
306.253	5.31
306.628	5.08
307.003	4.75
307.378	4.53
307.754	4.85
308.129	5.57
308.504	5.61
308.879	5.23
309.254	5.83
309.629	5.21
310.003	4.87
310.378	5.78
310.753	5.85
311.128	5.63
311.502	5.28
311.877	5.99
312.252	5.49
312.626	6.01
313.001	5.84
313.375	5.76
313.75	5.83
314.124	5.8
314.498	5.83
314.873	5.92
315.247	5.94
315.621	6.08
315.995	6.47
316.369	5.96
316.743	6.76
317.117	6.5
317.491	5.75
317.865	6.89
318.239	7.02
318.613	6.88
318.987	6.05
319.361	6.45
319.734	6.64
320.108	6.54
320.482	7.11
320.855	6.72
321.229	6.99
321.602	7.03
321.976	6.7
322.349	7.34
322.723	6.92
323.096	7.63
323.469	7.4
323.843	7.21
324.216	7.14
324.589	7.35
324.962	7.98
325.335	7.6
325.708	7.72
326.081	7.35
326.454	7.58
326.827	8.29
327.2	7.72
327.573	7.95
327.945	7.9
328.318	7.81
328.691	7.93
329.063	8.28
329.436	7.98
329.809	7.82
330.181	8.45
330.553	8.15
330.926	8.26
331.298	7.96
331.671	8.13
332.043	8.22
332.415	8.77
332.787	8.44
333.159	8.22
333.532	8.63
333.904	9.06
334.276	8.14
334.648	8.72
335.02	9.2
335.391	8.5
335.763	9.3
336.135	9.31
336.507	8.83
336.879	9.15
337.25	9.22
337.622	9.53
337.993	9.39
338.365	8.76
338.736	8.74
339.108	9.16
339.479	9.28
339.851	9.09
340.222	8.8
340.593	9.17
340.964	9.33
341.336	10.01
341.707	9.64
342.078	9.72
342.449	9.36
342.82	9.4
343.191	9.53
343.562	9.6
343.933	9.75
344.303	9.54
344.674	9.69
345.045	9.96
345.416	10.14
345.786	9.67
346.157	9.93
346.527	9.88
346.898	9.88
347.268	10
347.639	10.13
348.009	9.52
348.38	9.88
348.75	9.78
349.12	10.55
349.49	10.19
349.861	10.82
350.231	10.01
350.601	10.2
350.971	10.84
351.341	10.29
351.711	10.83
352.081	11.02
352.45	10.56
352.82	10.94
353.19	10.75
353.56	10.71
353.929	10.8
354.299	10.5
354.669	10.79
355.038	10.98
355.408	11.09
355.777	10.87
356.147	11.14
356.516	10.79
356.885	11
357.254	11.42
357.624	10.99
357.993	10.66
358.362	11.09
358.731	10.93
359.1	11.15
359.469	11.17
359.838	11.35
360.207	11.28
360.576	11.53
360.945	11.02
361.314	11.6
361.682	11.82
362.051	11.52
362.42	11.39
362.788	11.73
363.157	11.63
363.525	11.47
363.894	11.68
364.262	11.8
364.631	11.77
364.999	11.59
365.367	11.97
365.735	12.03
366.104	11.97
366.472	12.01
366.84	12.03
367.208	11.9
367.576	12.24
367.944	12.33
368.312	12.33
368.68	12.58
369.048	12.41
369.416	12.68
369.783	12.79
370.151	12.76
370.519	12.18
370.886	13.05
371.254	12.94
371.621	12.99
371.989	12.68
372.356	12.73
372.724	12.68
373.091	13.19
373.458	12.53
373.826	12.99
374.193	12.96
374.56	13.05
374.927	12.97
375.294	13.13
375.661	13.27
376.028	13.19
376.395	13.44
376.762	13.4
377.129	13.55
377.496	13.49
377.863	13.82
378.229	13.54
378.596	13.51
378.963	13.87
379.329	13.59
379.696	13.52
380.062	13.78
380.429	13.53
380.795	13.76
381.161	13.93
381.528	14.14
381.894	14.11
382.26	14.17
382.626	14.12
382.993	14.38
383.359	13.93
383.725	14.17
384.091	14.21
384.457	14.44
384.823	13.98
385.188	14.32
385.554	14.32
385.92	14.58
386.286	14.68
386.651	14.4
387.017	14.74
387.383	14.4
387.748	14.42
388.114	14.59
388.479	14.54
388.845	15.17
389.21	14.73
389.575	14.49
389.94	14.56
390.306	14.85
390.671	14.89
391.036	14.96
391.401	15.25
391.766	14.99
392.131	15.14
392.496	15.42
392.861	15.43
393.226	15.35
393.591	15.12
393.956	15.31
394.32	15.57
394.685	15.2
395.05	15.66
395.414	15.87
395.779	15.14
396.143	15.51
396.508	15.81
396.872	15.91
397.236	15.58
397.601	15.68
397.965	15.6
398.329	15.73
398.694	15.87
399.058	15.75
399.422	15.99
399.786	16.01
400.15	15.74
400.514	16.1
400.878	15.91
401.242	16.32
401.605	16.2
401.969	15.99
402.333	15.98
402.697	16.34
403.06	16.31
403.424	16.59
403.787	16.74
404.151	16.48
404.514	16.25
404.878	16.64
405.241	16.57
405.604	16.45
405.968	16.72
406.331	16.37
406.694	16.54
407.057	16.55
407.42	16.85
407.783	16.96
408.146	16.8
408.509	16.8
408.872	17.11
409.235	17
409.598	17.01
409.961	17.3
410.323	17.08
410.686	16.97
411.049	17.14
411.411	17.04
411.774	17.31
412.136	17.37
412.499	17.35
412.861	17.55
413.223	17.43
413.586	17.56
413.948	17.46
414.31	17.75
414.672	17.25
415.035	17.83
415.397	18.06
415.759	17.68
416.121	17.71
416.483	17.71
416.845	17.81
417.206	17.91
417.568	18.05
417.93	17.75
418.292	17.63
418.653	17.66
419.015	17.88
419.377	18.01
419.738	17.9
420.1	17.89
420.461	17.94
420.822	18.03
421.184	17.98
421.545	17.93
421.906	18.04
422.267	17.9
422.629	18.04
422.99	17.83
423.351	18.01
423.712	18.08
424.073	18.28
424.434	18.29
424.795	18.29
425.155	18.41
425.516	18.41
425.877	18.5
426.238	18.43
426.598	18.47
426.959	18.59
427.32	18.53
427.68	18.62
428.041	18.77
428.401	18.99
428.761	19
429.122	18.98
429.482	19.24
429.842	19.38
430.202	19.42
430.563	19.34
430.923	19.78
431.283	19.43
431.643	19.74
432.003	19.74
432.363	19.63
432.722	19.88
433.082	19.8
433.442	19.52
433.802	20.01
434.161	19.88
434.521	19.85
434.881	19.97
435.24	19.99
435.6	19.79
435.959	19.89
436.319	20.1
436.678	20.01
437.037	20.15
437.396	20.26
437.756	20.3
438.115	20.32
438.474	20.31
438.833	20.64
439.192	20.37
439.551	20.51
439.91	20.75
440.269	20.79
440.628	20.92
440.987	20.45
441.345	20.61
441.704	20.7
442.063	20.78
442.421	20.63
442.78	20.78
443.138	20.85
443.497	20.83
443.855	21.09
444.214	21.02
444.572	21.07
444.93	21.27
445.288	21.24
445.647	21.45
446.005	21.3
446.363	21.37
446.721	21.38
447.079	21.4
447.437	21.41
447.795	21.3
448.153	21.24
448.51	21.27
448.868	21.26
449.226	21.29
449.584	21.5
449.941	21.54
450.299	21.59
450.656	21.73
451.014	21.85
451.371	22.02
451.729	22.15
452.086	22.02
452.443	22.33
452.801	22.23
453.158	22.56
453.515	22.43
453.872	22.37
454.229	22.57
454.586	22.47
454.943	22.44
455.3	22.57
455.657	22.67
456.014	22.7
456.371	22.76
456.727	22.94
457.084	22.88
457.441	23.05
457.797	22.97
458.154	22.95
458.51	23.1
458.867	23.23
459.223	23.08
459.58	23.27
459.936	23.38
460.292	23.2
460.648	23.16
461.005	23.01
461.361	23.21
461.717	22.85
462.073	23.16
462.429	23.09
462.785	23.14
463.141	23.47
463.496	23.57
463.852	23.68
464.208	23.79
464.564	24
464.919	24
465.275	24.33
465.631	24.18
465.986	24.53
466.342	24.2
466.697	24.06
467.052	24.11
467.408	24.23
467.763	24.37
468.118	24.61
468.473	24.58
468.829	24.57
469.184	24.52
469.539	24.63
469.894	24.58
470.249	24.96
470.603	24.67
470.958	24.79
471.313	24.9
471.668	24.93
472.023	24.95
472.377	25.09
472.732	24.93
473.086	25.18
473.441	25.11
473.795	25.31
474.15	25.14
474.504	25.4
474.859	25.34
475.213	25.49
475.567	25.4
475.921	25.38
476.275	25.52
476.63	25.71
476.984	25.71
477.338	25.62
477.692	25.73
478.045	25.64
478.399	25.54
478.753	25.85
479.107	25.79
479.461	25.8
479.814	26.03
480.168	25.77
480.521	25.87
480.875	25.91
481.228	26.03
481.582	26.1
481.935	26.09
482.289	26.17
482.642	26.23
482.995	26
483.348	26.26
483.701	26.16
484.055	26.07
484.408	26.03
484.761	25.93
485.114	25.74
485.466	25.41
485.819	25.27
486.172	25.25
486.525	25.41
486.878	25.56
487.23	25.77
487.583	25.89
487.936	25.96
488.288	26.15
488.641	26.21
488.993	25.98
489.345	25.88
489.698	25.87
490.05	25.88
490.402	26.02
490.754	26.21
491.107	26.38
491.459	26.55
491.811	26.76
492.163	26.85
492.515	26.96
492.866	27.18
493.218	26.79
493.57	26.46
493.922	26.5
494.274	26.65
494.625	26.77
494.977	27.04
495.328	27.31
495.68	27.61
496.031	27.78
496.383	27.92
496.734	28.09
497.086	28
497.437	28.14
497.788	28.03
498.139	28.31
498.49	28.15
498.842	28.07
499.193	28.2
499.544	28.03
499.894	28.28
500.245	28.24
500.596	28.47
500.947	28.57
501.298	28.45
501.648	28.52
501.999	28.67
502.35	28.86
502.7	28.9
503.051	28.95
503.401	28.99
503.752	29.15
504.102	29.09
504.452	29.14
504.803	29.26
505.153	29.36
505.503	29.4
505.853	29.22
506.203	29.4
506.553	29.43
506.903	29.49
507.253	29.58
507.603	29.62
507.953	29.6
508.303	29.67
508.652	29.8
509.002	29.92
509.352	29.95
509.701	29.73
510.051	29.7
510.4	29.75
510.75	29.76
511.099	29.69
511.449	29.81
511.798	29.94
512.147	29.95
512.496	29.91
512.846	30.15
513.195	30.06
513.544	30.17
513.893	30.15
514.242	30.28
514.591	30.19
514.939	30.32
515.288	30.34
515.637	30.43
515.986	30.67
516.334	30.62
516.683	30.58
517.032	30.63
517.38	30.67
517.729	30.84
518.077	30.92
518.426	30.94
518.774	30.74
519.122	30.97
519.47	30.89
519.819	30.79
520.167	30.68
520.515	30.51
520.863	30.58
521.211	30.65
521.559	30.77
521.907	30.99
522.255	31.13
522.602	31.3
522.95	31.05
523.298	31.53
523.645	31.51
523.993	31.74
524.341	31.83
524.688	31.86
525.036	31.95
525.383	31.81
525.73	31.93
526.078	31.89
526.425	32.07
526.772	31.84
527.119	31.76
527.466	31.64
527.814	31.49
528.161	31.63
528.508	31.75
528.854	31.72
529.201	31.79
529.548	31.82
529.895	31.73
530.242	31.44
530.588	31.12
530.935	31.21
531.282	31.41
531.628	31.49
531.975	31.6
532.321	31.78
532.667	31.95
533.014	32.27
533.36	32.33
533.706	32.48
534.052	32.68
534.399	32.52
534.745	32.46
535.091	32.2
535.437	32.09
535.783	32.21
536.129	32.48
536.474	32.67
536.82	32.78
537.166	33.02
537.512	33.1
537.857	33.34
538.203	33.2
538.549	33.16
538.894	33.14
539.239	33.08
539.585	33.21
539.93	33.52
540.276	33.71
540.621	33.81
540.966	34.04
541.311	34.16
541.656	34.13
542.001	34.11
542.346	33.98
542.691	33.64
543.036	33.52
543.381	33.27
543.726	33.18
544.071	33.4
544.415	33.52
544.76	33.59
545.105	33.84
545.449	33.93
545.794	34.04
546.138	34.15
546.483	34.4
546.827	34.49
547.171	34.75
547.516	34.72
547.86	34.77
548.204	34.57
548.548	34.69
548.892	34.79
549.236	34.78
549.58	34.84
549.924	35.21
550.268	35.18
550.612	35.04
550.956	35.49
551.3	35.62
551.643	35.88
551.987	35.96
552.33	35.77
552.674	35.67
553.017	36
553.361	35.99
553.704	36.17
554.048	36
554.391	36.05
554.734	36.16
555.077	35.92
555.42	35.98
555.764	36.04
556.107	36.34
556.45	36.48
556.793	36.13
557.135	36.54
557.478	36.66
557.821	36.87
558.164	36.79
558.507	36.76
558.849	37.01
559.192	37.01
559.534	37.14
559.877	36.81
560.219	37.01
560.562	37.14
560.904	37.02
561.246	37.39
561.589	37.24
561.931	37.23
562.273	37.14
562.615	37.16
562.957	37.59
563.299	37.45
563.641	37.5
563.983	37.56
564.325	37.31
564.667	37.49
565.008	37.46
565.35	37.74
565.692	37.8
566.033	38.07
566.375	37.91
566.716	38.06
567.058	37.94
567.399	37.98
567.741	37.97
568.082	37.97
568.423	37.88
568.764	37.82
569.105	37.97
569.447	38.07
569.788	38.21
570.129	38.24
570.47	38.38
570.811	38.45
571.151	38.4
571.492	38.61
571.833	38.75
572.174	38.64
572.514	38.75
572.855	38.62
573.195	38.88
573.536	38.74
573.876	38.59
574.217	38.66
574.557	38.66
574.898	38.82
575.238	39
575.578	38.93
575.918	39.1
576.258	39.15
576.598	39.34
576.938	39.32
577.278	39
577.618	39.3
577.958	39.16
578.298	39.38
578.638	39.72
578.977	39.56
579.317	39.66
579.657	39.73
579.996	40.1
580.336	39.84
580.675	40.28
581.014	40.38
581.354	40.08
581.693	40.53
582.032	40.33
582.372	40.2
582.711	40.57
583.05	40.67
583.389	40.76
583.728	40.72
584.067	40.72
584.406	40.61
584.745	40.86
585.083	40.74
585.422	40.89
585.761	41.1
586.1	41.01
586.438	40.89
586.777	41.23
587.115	41.04
587.454	41.24
587.792	41.04
588.13	41.44
588.469	41.53
588.807	41.46
589.145	41.39
589.483	41.57
589.821	41.37
590.159	41.77
590.497	41.71
590.835	41.24
591.173	41.6
591.511	41.72
591.849	41.73
592.187	41.63
592.524	41.63
592.862	41.63
593.2	42.05
593.537	41.6
593.875	42.13
594.212	42.22
594.55	42.24
594.887	42.29
595.224	42.21
595.561	42.27
595.899	42.16
596.236	42.2
596.573	42.31
596.91	42.48
597.247	42.4
597.584	42.29
597.921	42.44
598.258	42.95
598.594	42.56
598.931	42.37
599.268	42.42
599.604	42.49
599.941	42.27
600.277	42.46
600.614	42.86
600.95	42.81
601.287	42.89
601.623	43.14
601.959	43
602.296	43.45
602.632	43.37
602.968	43.56
603.304	43.69
603.64	43.25
603.976	43.45
604.312	43.65
604.648	43.64
604.984	43.67
605.319	43.53
605.655	43.1
605.991	43.55
606.326	43.47
606.662	43.24
606.998	43.27
607.333	43.25
607.668	43.49
608.004	43.78
608.339	43.36
608.674	43.97
609.01	44.03
609.345	44.21
609.68	44.44
610.015	44.37
610.35	44.02
610.685	44.47
611.02	44.38
611.355	44.19
611.689	44.19
612.024	44.39
612.359	44.26
612.694	44.38
613.028	44.45
613.363	44.57
613.697	44.88
614.032	44.65
614.366	44.85
614.7	45.12
615.035	45.37
615.369	45.43
615.703	45.17
616.037	45.38
616.371	45.22
616.705	45.48
617.039	45.01
617.373	45.76
617.707	45.74
618.041	45.56
618.375	45.56
618.709	46
619.042	45.98
619.376	46.52
619.71	45.82
620.043	46.01
620.377	45.67
620.71	45.89
621.043	46.13
621.377	45.71
621.71	46.12
622.043	46.14
622.376	45.93
622.709	46.37
623.043	46.41
623.376	46.62
623.709	46.76
624.041	46.77
624.374	46.27
624.707	46.42
625.04	46.55
625.373	46.82
625.705	46.82
626.038	46.9
626.37	46.68
626.703	46.45
627.035	46.75
627.368	47.09
627.7	47.13
628.032	46.82
628.365	46.99
628.697	47.29
629.029	46.75
629.361	47.07
629.693	47.04
630.025	47.26
630.357	46.77
630.689	46.89
631.021	47.28
631.353	47.39
631.684	46.97
632.016	47.55
632.348	47.42
632.679	47.65
633.011	47.4
633.342	47.62
633.674	47.28
634.005	48.22
634.336	48.01
634.668	47.51
634.999	48.3
635.33	47.29
635.661	47.98
635.992	48.34
636.323	48.29
636.654	47.98
636.985	47.91
637.316	47.81
637.647	48.16
637.977	47.43
638.308	48.4
638.639	48.37
638.969	48.43
639.3	48.49
639.63	48.64
639.961	48.32
640.291	48.57
640.622	47.88
640.952	48.58
641.282	48.81
641.612	48.73
641.943	49.1
642.273	48.98
642.603	48.91
642.933	48.9
643.263	49.31
643.592	48.99
643.922	49.65
644.252	48.97
644.582	49.23
644.911	49.09
645.241	49.25
645.571	49.05
645.9	49.28
646.23	49.06
646.559	49.74
646.888	49.94
647.218	49.7
647.547	49.34
647.876	49.87
648.205	49.42
648.534	49.53
648.863	50.09
649.192	49.92
649.521	49.96
649.85	49.91
650.179	50.39
650.508	50.14
650.837	50.25
651.165	49.55
651.494	49.59
651.822	50.49
652.151	51.2
652.479	49.81
652.808	50.38
653.136	50.16
653.465	50.68
653.793	50.38
654.121	50.49
654.449	49.76
654.777	50.97
655.105	50.49
655.433	50.57
655.761	49.88
656.089	50.9
656.417	51.04
656.745	51.05
657.073	51.21
657.4	50.96
657.728	50.49
658.056	51.36
658.383	50.88
658.711	51.05
659.038	51.54
659.365	51.36
659.693	51.42
660.02	51.12
660.347	51.41
660.674	51.76
661.001	50.76
661.329	51.32
661.656	51.65
661.982	51.44
662.309	51.5
662.636	50.89
662.963	51.48
663.29	51.42
663.616	51.58
663.943	52.15
664.27	52.16
664.596	51.66
664.923	51.83
665.249	51.96
665.576	52.57
665.902	51.47
666.228	52.12
666.554	52.47
666.881	51.6
667.207	52.59
667.533	51.98
667.859	52.04
668.185	52.84
668.511	52.73
668.837	52.61
669.162	52.63
669.488	53.46
669.814	52.78
670.139	52.23
670.465	52.63
670.791	52.71
671.116	52.76
671.442	53.23
671.767	52.25
672.092	52.3
672.418	53.27
672.743	53.08
673.068	53.58
673.393	53.1
673.718	53.05
674.043	52.97
674.368	53.53
674.693	53.34
675.018	53.95
675.343	53.49
675.667	53.09
675.992	53.17
676.317	52.92
676.641	53.13
676.966	53.79
677.29	52.57
677.615	54.09
677.939	53.34
678.264	53.51
678.588	53.31
678.912	54.36
679.236	53.47
679.56	54.02
679.885	54.26
680.209	53.64
680.532	54.06
680.856	53.79
681.18	54.4
681.504	54.05
681.828	53.53
682.152	54.3
682.475	54.03
682.799	54.37
683.122	53.86
683.446	53.56
683.769	54.2
684.093	54.64
684.416	54.65
684.739	53.68
685.062	54.22
685.386	54.08
685.709	54.43
686.032	54.16
686.355	54.44
686.678	53.98
687.001	54.94
687.324	54.43
687.646	54.56
687.969	55.18
688.292	55.58
688.614	55.08
688.937	55.27
689.26	55.47
689.582	54.36
689.904	55.04
690.227	55.35
690.549	55.13
690.871	54.97
691.194	55.18
691.516	55.42
691.838	55.64
692.16	55.03
692.482	55.79
692.804	54.93
693.126	55.45
693.448	55.58
693.769	55.38
694.091	56.02
694.413	54.74
694.735	54.94
695.056	55.6
695.378	56.1
695.699	55.18
696.021	55.12
696.342	55.8
696.663	56.19
696.984	55.66
697.306	55.7
697.627	55.94
697.948	55.61
698.269	56.37
698.59	55.23
698.911	56.56
699.232	56.85
699.553	56.79
699.873	56.42
700.194	57.19
700.515	56.18
700.835	56.45
701.156	56.41
701.477	55.8
701.797	56.37
702.117	56.18
702.438	56.65
702.758	56.37
703.078	56.33
703.398	57.03
703.719	57.22
704.039	57.46
704.359	57.54
704.679	56.09
704.999	56.38
705.319	56.21
705.638	56.66
705.958	56.93
706.278	57.41
706.597	56.92
706.917	56.67
707.237	56.76
707.556	56.42
707.876	56.4
708.195	57.31
708.514	57.27
708.834	57.74
709.153	57
709.472	57.43
709.791	58.45
710.11	59.07
710.429	57.29
710.748	57.41
711.067	57.06
711.386	57.68
711.705	58.41
712.023	58.51
712.342	57.1
712.661	57.45
712.979	58.38
713.298	57.12
713.616	57.94
713.935	56.87
714.253	57.52
714.572	58.85
714.89	58.19
715.208	58.34
715.526	57.75
715.844	59.05
716.162	59.35
716.48	58.28
716.798	58.63
717.116	58.48
717.434	58.32
717.752	59.4
718.069	58.34
718.387	57.49
718.705	58.74
719.022	58.35
719.34	58.8
719.657	59.01
719.975	58.61
720.292	57.57
720.609	58.41
720.927	59.47
721.244	58.94
721.561	58.43
721.878	59.25
722.195	59.8
722.512	59.61
722.829	59.8
723.146	59.16
723.463	58.99
723.779	60.16
724.096	59.29
724.413	59.64
724.729	59.13
725.046	59.39
725.362	60.11
725.679	58.72
725.995	59.92
726.311	59.4
726.628	58.45
726.944	59.52
727.26	59.1
727.576	59.7
727.892	58.85
728.208	60.08
728.524	58.66
728.84	59.5
729.156	60.71
729.472	59.08
729.787	59.54
730.103	59.65
730.419	60.83
730.734	59.47
731.05	60.74
731.365	59.95
731.681	59.72
731.996	60.45
732.311	60.32
732.626	59.71
732.942	59.72
733.257	60.21
733.572	59.95
733.887	59.33
734.202	59.23
734.517	60.56
734.832	60.16
735.146	62.89
735.461	60.42
735.776	60.57
736.091	61.32
736.405	60.61
736.72	60.88
737.034	59.92
737.349	61.67
737.663	60.84
737.977	62.47
738.292	60.5
738.606	59.88
738.92	61.09
739.234	61.25
739.548	61.3
739.862	60.31
740.176	59.98
740.49	61.2
740.804	60.24
741.117	60.58
741.431	61.35
741.745	60.98
742.058	61.92
742.372	61.87
742.685	61.77
742.999	59.06
743.312	60.03
743.626	62.75
743.939	61.14
744.252	61.54
744.565	61.86
744.878	60.08
745.191	64.44
745.505	61.55
745.817	63
746.13	62.57
746.443	62.27
746.756	61.83
747.069	61.07
747.381	61.97
747.694	60.74
748.007	61.16
748.319	60.59
748.632	61.39
748.944	61.69
749.256	62.21
749.569	62.75
749.881	63.66
750.193	60.87
750.505	60.2
750.817	63.56
751.129	62.64
751.441	61.55
751.753	60.85
752.065	62.57
752.377	61.68
752.689	62.12
753	62.09
753.312	62.26
753.624	62.57
753.935	62.95
754.247	60.69
754.558	62.6
754.869	61.85
755.181	61.55
755.492	62.14
755.803	62.9
756.114	61.41
756.425	61.86
756.736	63.69
757.047	63.01
757.358	62.85
757.669	63.08
757.98	61.12
758.291	64.85
758.601	63.87
758.912	62.88
759.223	60.72
759.533	61.71
759.844	63.91
760.154	64.09
760.464	63.9
760.775	63.22
761.085	63.5
761.395	63.68
761.705	63.52
762.016	62.22
762.326	63.51
762.636	64.3
762.945	64.04
763.255	63.38
763.565	63.51
763.875	64.29
764.185	64.02
764.494	62.57
764.804	63.8
765.113	63.85
765.423	64.33
765.732	62.6
766.042	63.36
766.351	63.82
766.66	62.89
766.97	64.15
767.279	64.17
767.588	63.96
767.897	64
768.206	63.01
768.515	62.05
768.824	63.41
769.133	61.38
769.441	64.64
769.75	66.3
770.059	64.62
770.367	63.53
770.676	65.37
770.984	65.62
771.293	64.59
771.601	62.44
771.91	61.56
772.218	67.73
772.526	64.16
772.834	64.24
773.142	64.75
773.45	61.87
773.758	63.4
774.066	65.34
774.374	64.8
774.682	67.42
774.99	63.13
775.298	63.48
775.605	65.36
775.913	64.93
776.22	66.34
776.528	63.54
776.835	62.15
777.143	61.66
777.45	64.42
777.757	61.25
778.065	65.43
778.372	65.72
778.679	63.5
778.986	65.41
779.293	68.94
779.6	64.84
779.907	64.68
780.214	69.27
780.52	64.14
780.827	68.65
781.134	62.53
781.44	66.6
781.747	65.9
782.053	67.15
782.36	63.94
782.666	63.77
782.973	66.37
783.279	62.83
783.585	63.86
783.891	65.1
784.197	63.71
784.503	65.45
784.809	62.02
785.115	64.87
785.421	66.88
785.727	63.05
786.033	63.92
786.339	61.19
786.644	63.99
786.95	67.17
787.255	65.61
787.561	64.79
787.866	67.17
788.172	65.75
788.477	66.06
788.782	69.7
789.088	67.21
789.393	61.2
789.698	64.38
790.003	63.27
790.308	70.4
790.613	68.58
790.918	65.62
791.223	66.67
791.527	66.69
791.832	67.32
792.137	65.98
792.441	64.75
792.746	65.21
793.05	63.66
793.355	67.29
793.659	65.61
793.963	65
794.268	67.35
794.572	66.76
794.876	72.05
795.18	64.6
795.484	67.52
795.788	66.03
796.092	68.96
796.396	65.81
796.7	64.21
797.004	67.58
797.307	65.6
797.611	65.95
797.915	63.84
798.218	67.16
798.522	67.51
798.825	65.81
799.128	68.94
799.432	68.87
799.735	66.25
800.038	63.4
800.341	64.43
800.644	64.9
800.947	60.81
801.25	66.93
801.553	64.85
801.856	64.9
802.159	64.97
802.462	65.92
802.764	64.7
803.067	64.91
803.37	69.26
803.672	66.62
803.975	68.22
804.277	69.54
804.579	67.53
804.882	68.56
805.184	65.25
805.486	75.34
805.788	72.63
806.09	70.29
806.392	64.79
806.694	63.16
806.996	70.47
807.298	67.47
807.6	71.43
807.902	71.06
808.203	70.43
808.505	70.02
808.807	69.38
809.108	67.62
809.409	66.35
809.711	63.76
810.012	64.85
810.313	65.03
810.615	63.66
810.916	65.8
811.217	66.34
811.518	66.47
811.819	67.94
812.12	67.26
812.421	64.14
812.722	60.91
813.023	67.4
813.323	65.4
813.624	72.02
813.925	69.59
814.225	62.99
814.526	72.43
814.826	67.49
815.126	70.9
815.427	66.71
815.727	68.44
816.027	66.25
816.327	69.25
816.627	66.55
816.927	68.54
817.227	70.32
817.527	73.87
817.827	61.75
818.127	63.67
818.427	71.62
818.727	67.94
819.026	62.57
819.326	65.45
819.625	63.89
819.925	68.03
820.224	74.9
820.524	74.42
820.823	65.02
821.122	72.74
821.421	67.82
821.72	69.66
822.019	66.34
822.318	67.69
822.617	64.03
822.916	67.33
823.215	68.45
823.514	68.35
823.813	71.77
824.111	69.15
824.41	67.44
824.709	69.23
825.007	70.2
825.306	69.74
825.604	69.67
825.902	68.27
826.201	68.71
826.499	69.52
826.797	70.7
827.095	69.01
827.393	68.45
827.691	69.09
827.989	70.67
828.287	69.28
828.585	68.42
828.882	71.31
829.18	69.12
829.478	68.68
829.775	70.4
830.073	68.79
830.37	70.58
830.668	70.56
830.965	67.62
831.263	69.17
831.56	70.21
831.857	66.19
832.154	69.62
832.451	69.58
832.748	69.21
833.045	70.68
833.342	66.46
833.639	69.08
833.936	69.56
834.232	69.4
834.529	75.72
834.826	66.7
835.122	73.92
835.419	66.07
835.715	68.72
836.012	66.28
836.308	68.13
836.604	70.51
836.901	68.21
837.197	67.64
837.493	69.89
837.789	68.96
838.085	71.79
838.381	71.98
838.677	71.87
838.972	67.76
839.268	70.47
839.564	71.06
839.86	74.88
840.155	69.34
840.451	69.42
840.746	71.82
841.042	73.93
841.337	71.47
841.632	75.88
841.928	71.17
842.223	67.72
842.518	74.61
842.813	66.83
843.108	71.63
843.403	66.66
843.698	67.54
843.993	66.38
844.287	69.87
844.582	67.72
844.877	76.97
845.171	76
845.466	71.93
845.761	76.58
846.055	79.19
846.349	65.58
846.644	75.09
846.938	83.5
847.232	67.96
847.526	70.09
847.82	70.8
848.114	73.11
848.408	60.87
848.702	58.41
848.996	88.73
849.29	67.28
849.584	54.52
849.877	74.48
850.171	75.52
850.465	75.92
850.758	73.94
851.052	68.82
851.345	68.37
851.638	71.25
851.932	78.15
852.225	80.71
852.518	69.54
852.811	75.41
853.104	73.56
853.397	93.51
853.69	87.59
853.983	80.14
854.276	47.99
854.569	92.62
854.861	76.71
855.154	77.37
855.447	68.68
855.739	51.87
856.032	53.52
856.324	53.08
856.616	62.27
856.909	68.88
857.201	68.41
857.493	58.96
857.785	65.59
858.077	60.09
858.369	86.48
858.661	55.58
858.953	69.07
859.245	77.86
859.537	71.31
859.829	66.31
860.12	79.47
860.412	65.89
860.703	80.95
860.995	66.91
861.286	70.68
861.578	102.61
861.869	46.72
862.16	86.45
862.452	59.11
862.743	66.52
863.034	64.09
863.325	72.1
863.616	59.2
863.907	43.35
864.198	72.8
864.488	65.74
864.779	98.6
865.07	38.52
865.36	101.89
865.651	93.16
865.941	59.14
866.232	71.47
866.522	61.62
866.813	58.12
867.103	57.72
867.393	49.86
867.683	80.28
867.973	107.03
868.263	77.87
868.553	79.04
868.843	38.07
869.133	85.55
869.423	79.78
869.713	60.11
870.002	109.67
870.292	102.36
870.582	73.11
870.871	53.24
871.161	65.63
871.45	51.83
871.739	62.78
872.029	53.47
872.318	83.88
872.607	50.48
872.896	86.81
873.185	81.35
873.474	77.27
873.763	42.31
874.052	69.63
874.341	106.31
874.63	67.84
874.918	74.43
875.207	63.75
875.496	68.26
875.784	61.98
876.073	54.08
876.361	88
876.649	75.6
876.938	80.1
877.226	80.83
877.514	81.42
877.802	75.62
878.09	88.61
878.378	76.96
878.666	50.65
878.954	58.26
879.242	91.11
879.53	78.28
879.817	72.59
880.105	82.21
880.392	65.61
880.68	60.57
880.967	85.23
881.255	62.18
881.542	68.64
881.83	78.09
882.117	68.68
882.404	52.04
882.691	82.13
882.978	67.55
883.265	33.41
883.552	69.75
883.839	79.17
884.126	76.35
884.413	78.43
884.699	69.34
884.986	88.46
885.273	66.89
885.559	66.89
885.846	66.89
