Data from 0341_crown_Reflection__2__271.txt Node

Date: Fri Oct 20 22:53:16 CDT 2023
User: ToomeyLab
Spectrometer: FLMS14357
Trigger mode: 0
Integration Time (sec): 1.000000E-2
Scans to average: 100
Electric dark correction enabled: true
Nonlinearity correction enabled: false
Boxcar width: 0
XAxis mode: Wavelengths
Number of Pixels in Spectrum: 2048
>>>>>Begin Spectral Data<<<<<
189.047	4.91
189.435	4.91
189.823	4.91
190.211	363.31
190.599	-54.11
190.987	28.64
191.375	175.18
191.763	114.28
192.151	-150.49
192.538	6513.79
192.926	-339.82
193.314	37.3
193.702	3.95
194.089	94.06
194.477	116.34
194.864	-618.13
195.252	175.59
195.639	-81.2
196.027	90.49
196.414	73.11
196.801	78.69
197.189	-76.31
197.576	10.45
197.963	38.03
198.351	60.89
198.738	10.87
199.125	54.98
199.512	31.9
199.899	8.04
200.286	-76.52
200.673	24.53
201.06	-0.76
201.447	-14.62
201.833	21.81
202.22	25.56
202.607	22.91
202.994	24.32
203.38	9.5
203.767	74.87
204.154	58.97
204.54	32.08
204.927	44.15
205.313	-22.85
205.699	82.09
206.086	4.24
206.472	62.53
206.858	30.85
207.245	-4.98
207.631	25.49
208.017	30.85
208.403	-9.31
208.789	33.47
209.175	33.98
209.561	12.98
209.947	9.21
210.333	36.69
210.719	24.56
211.105	24.28
211.491	16.76
211.876	25.29
212.262	32.89
212.648	21.47
213.034	-26.94
213.419	15.82
213.805	8.69
214.19	-22.68
214.576	-13.29
214.961	12.72
215.346	31
215.732	27.05
216.117	-12.4
216.502	24.76
216.888	24.31
217.273	-2.26
217.658	22.3
218.043	-17.63
218.428	0.52
218.813	32.05
219.198	-7.44
219.583	-21.36
219.968	21.39
220.353	7.11
220.738	12.48
221.122	9.07
221.507	4.99
221.892	18.19
222.276	12.74
222.661	14.5
223.046	6.85
223.43	4.01
223.815	13.87
224.199	11.31
224.583	-14.04
224.968	7.63
225.352	1.37
225.736	9.19
226.121	15.13
226.505	1.5
226.889	6.82
227.273	4.75
227.657	12.12
228.041	16.82
228.425	9.15
228.809	6
229.193	6.55
229.577	6.73
229.961	6.98
230.344	6.19
230.728	6
231.112	7.98
231.495	6.65
231.879	6.98
232.263	7.99
232.646	7.45
233.03	5.65
233.413	5.81
233.797	6.18
234.18	5.32
234.563	5.94
234.946	10.24
235.33	7.72
235.713	7.41
236.096	7.12
236.479	7.27
236.862	6.06
237.245	6.59
237.628	6.27
238.011	7.77
238.394	8.23
238.777	8.49
239.16	6.47
239.543	6.91
239.925	8.48
240.308	6.8
240.691	6.12
241.073	8.09
241.456	7.48
241.838	6.84
242.221	7.36
242.603	6.75
242.986	6.47
243.368	6.71
243.75	6.38
244.133	6.14
244.515	6.18
244.897	6.43
245.279	6.59
245.661	6.03
246.043	6.83
246.425	5.62
246.807	5.4
247.189	6.75
247.571	5.96
247.953	6.01
248.335	6.06
248.717	5.69
249.098	5.84
249.48	6.07
249.862	6
250.243	6.32
250.625	6.47
251.006	6.25
251.388	6.51
251.769	6.66
252.151	6.18
252.532	5.78
252.913	5.71
253.295	5.93
253.676	5.93
254.057	5.56
254.438	5.67
254.819	6.61
255.2	5.84
255.581	5.63
255.962	5.57
256.343	6.14
256.724	5.12
257.105	6.22
257.486	5.61
257.867	5.48
258.247	5.79
258.628	5.73
259.009	6.01
259.389	5.42
259.77	5.61
260.15	4.88
260.531	5.81
260.911	6.25
261.292	5.06
261.672	5.63
262.052	5.67
262.432	5.56
262.813	5.49
263.193	5.63
263.573	5.11
263.953	5.44
264.333	5.9
264.713	6.38
265.093	5.49
265.473	6.24
265.853	5.63
266.233	5.42
266.612	5.68
266.992	5.56
267.372	5.31
267.752	5.46
268.131	5.89
268.511	5.49
268.89	5.22
269.27	5.46
269.649	5.05
270.029	5.63
270.408	5.37
270.787	5.06
271.167	5.48
271.546	5.26
271.925	5.98
272.304	5.71
272.683	5.86
273.062	5.56
273.441	5.47
273.82	5.57
274.199	5.67
274.578	5.24
274.957	5.57
275.336	5.36
275.715	5.64
276.093	5.12
276.472	5.43
276.851	5.84
277.229	5.17
277.608	5.2
277.986	4.51
278.365	5.42
278.743	5.27
279.122	5.26
279.5	5.08
279.878	4.35
280.257	5.18
280.635	5.2
281.013	5.92
281.391	6.32
281.769	5.39
282.147	5.07
282.525	5.05
282.903	5
283.281	4.93
283.659	5.02
284.037	5.31
284.415	4.96
284.792	4.74
285.17	5.45
285.548	4.68
285.925	4.73
286.303	5.09
286.68	5.2
287.058	5.49
287.435	5.23
287.813	4.79
288.19	5.04
288.567	4.89
288.945	5.32
289.322	5.64
289.699	4.57
290.076	5.76
290.453	4.9
290.83	4.67
291.207	5.2
291.584	4.6
291.961	4.99
292.338	5.22
292.715	5.1
293.092	5.15
293.469	4.99
293.845	5.11
294.222	4.71
294.599	5.09
294.975	5.31
295.352	5.18
295.728	5.06
296.105	4.75
296.481	4.9
296.858	4.92
297.234	4.95
297.61	4.3
297.986	4.77
298.363	4.93
298.739	4.6
299.115	4.92
299.491	4.76
299.867	4.97
300.243	5.06
300.619	4.87
300.995	4.96
301.371	5.43
301.746	4.84
302.122	4.94
302.498	4.58
302.874	4.86
303.249	5.34
303.625	4.99
304	5.31
304.376	4.76
304.751	4.76
305.127	4.73
305.502	5.07
305.878	5.32
306.253	5.26
306.628	5
307.003	4.9
307.378	5.38
307.754	4.97
308.129	5.61
308.504	4.97
308.879	4.78
309.254	5.49
309.629	5.32
310.003	4.88
310.378	5.22
310.753	5.22
311.128	5.23
311.502	4.93
311.877	5
312.252	4.87
312.626	4.81
313.001	4.94
313.375	5.25
313.75	5.04
314.124	4.7
314.498	5.08
314.873	4.76
315.247	5.18
315.621	4.96
315.995	5.61
316.369	5.13
316.743	5.53
317.117	4.86
317.491	4.34
317.865	4.99
318.239	5.85
318.613	5.03
318.987	4.75
319.361	4.08
319.734	4.97
320.108	4.98
320.482	5.28
320.855	4.77
321.229	5.27
321.602	5.38
321.976	4.6
322.349	4.95
322.723	5.29
323.096	5.32
323.469	4.69
323.843	4.82
324.216	4.96
324.589	4.95
324.962	5.31
325.335	5.33
325.708	5.04
326.081	5.26
326.454	4.94
326.827	5.04
327.2	5.1
327.573	5.43
327.945	5.03
328.318	4.99
328.691	5.05
329.063	5.55
329.436	4.74
329.809	5.37
330.181	5.15
330.553	5.27
330.926	5.07
331.298	5.13
331.671	5.15
332.043	5.22
332.415	4.95
332.787	5.39
333.159	4.91
333.532	5.07
333.904	5.08
334.276	4.78
334.648	5.42
335.02	5.52
335.391	4.7
335.763	5.13
336.135	5.28
336.507	5.44
336.879	5.04
337.25	5.2
337.622	5.27
337.993	5.43
338.365	5.14
338.736	4.79
339.108	5.03
339.479	4.72
339.851	5.05
340.222	4.88
340.593	4.68
340.964	4.97
341.336	5.14
341.707	5.02
342.078	5.06
342.449	4.9
342.82	5.13
343.191	4.84
343.562	5.11
343.933	4.99
344.303	5.15
344.674	5.25
345.045	5.57
345.416	5.5
345.786	4.77
346.157	5.22
346.527	5.11
346.898	4.96
347.268	5.16
347.639	5.3
348.009	4.97
348.38	5.07
348.75	5.13
349.12	5.25
349.49	5.08
349.861	5.09
350.231	4.64
350.601	5
350.971	5.43
351.341	5.24
351.711	5.84
352.081	5.42
352.45	5.27
352.82	5.29
353.19	5.4
353.56	5.25
353.929	5.35
354.299	5.38
354.669	5.2
355.038	5.38
355.408	5.44
355.777	5.04
356.147	5.04
356.516	5.1
356.885	5.15
357.254	5.37
357.624	5.2
357.993	5.05
358.362	5.59
358.731	5.12
359.1	4.72
359.469	5.42
359.838	5.2
360.207	5.27
360.576	5.29
360.945	5.13
361.314	5.48
361.682	5.07
362.051	5.2
362.42	5.12
362.788	5.1
363.157	5.25
363.525	4.9
363.894	5.36
364.262	5.04
364.631	5.43
364.999	5.3
365.367	5.41
365.735	5.32
366.104	5.25
366.472	5.37
366.84	5.46
367.208	5.17
367.576	5.17
367.944	5.55
368.312	5.28
368.68	5.51
369.048	5.41
369.416	5.64
369.783	5.56
370.151	5.5
370.519	5.11
370.886	5.37
371.254	6.03
371.621	5.69
371.989	5.36
372.356	5.6
372.724	5.76
373.091	5.64
373.458	5.16
373.826	5.13
374.193	5.55
374.56	5.23
374.927	5.62
375.294	5.37
375.661	5.88
376.028	5.83
376.395	5.8
376.762	5.38
377.129	5.5
377.496	5.55
377.863	5.69
378.229	5.64
378.596	5.6
378.963	5.38
379.329	5.54
379.696	5.39
380.062	5.64
380.429	5.49
380.795	5.35
381.161	5.63
381.528	5.67
381.894	5.38
382.26	5.59
382.626	5.6
382.993	5.44
383.359	5.37
383.725	5.5
384.091	5.75
384.457	5.55
384.823	5.47
385.188	5.81
385.554	5.59
385.92	5.36
386.286	5.66
386.651	5.31
387.017	5.77
387.383	5.65
387.748	5.31
388.114	5.53
388.479	5.44
388.845	5.41
389.21	5.44
389.575	5.24
389.94	5.41
390.306	5.48
390.671	5.33
391.036	5.52
391.401	5.74
391.766	5.67
392.131	5.6
392.496	5.56
392.861	5.72
393.226	5.42
393.591	5.62
393.956	5.6
394.32	5.9
394.685	5.54
395.05	5.73
395.414	5.74
395.779	5.43
396.143	5.27
396.508	5.43
396.872	5.75
397.236	5.69
397.601	5.41
397.965	5.56
398.329	5.47
398.694	5.62
399.058	5.21
399.422	5.41
399.786	5.51
400.15	5.56
400.514	5.53
400.878	5.82
401.242	5.82
401.605	5.76
401.969	5.34
402.333	5.46
402.697	5.61
403.06	5.63
403.424	5.64
403.787	5.61
404.151	5.57
404.514	5.7
404.878	5.74
405.241	5.8
405.604	5.55
405.968	5.79
406.331	5.69
406.694	5.41
407.057	5.36
407.42	5.76
407.783	5.54
408.146	5.51
408.509	5.49
408.872	5.9
409.235	5.88
409.598	5.67
409.961	5.62
410.323	5.59
410.686	5.47
411.049	5.58
411.411	5.56
411.774	5.54
412.136	5.57
412.499	5.37
412.861	5.85
413.223	5.66
413.586	5.63
413.948	5.75
414.31	5.78
414.672	5.47
415.035	5.71
415.397	5.66
415.759	5.69
416.121	5.58
416.483	5.75
416.845	5.85
417.206	5.68
417.568	5.86
417.93	5.58
418.292	5.51
418.653	5.54
419.015	5.58
419.377	5.49
419.738	5.63
420.1	5.31
420.461	5.6
420.822	5.58
421.184	5.43
421.545	5.56
421.906	5.47
422.267	5.43
422.629	5.6
422.99	5.37
423.351	5.48
423.712	5.43
424.073	5.41
424.434	5.35
424.795	5.47
425.155	5.48
425.516	5.48
425.877	5.46
426.238	5.3
426.598	5.46
426.959	5.4
427.32	5.51
427.68	5.52
428.041	5.53
428.401	5.62
428.761	5.59
429.122	5.69
429.482	5.65
429.842	5.59
430.202	5.79
430.563	5.57
430.923	5.62
431.283	5.54
431.643	5.8
432.003	5.81
432.363	5.54
432.722	5.82
433.082	5.71
433.442	5.52
433.802	5.77
434.161	5.55
434.521	5.7
434.881	5.61
435.24	5.67
435.6	5.61
435.959	5.63
436.319	5.66
436.678	5.66
437.037	5.59
437.396	5.67
437.756	5.9
438.115	5.51
438.474	5.77
438.833	5.78
439.192	5.51
439.551	5.59
439.91	5.66
440.269	5.61
440.628	5.7
440.987	5.63
441.345	5.59
441.704	5.6
442.063	5.62
442.421	5.51
442.78	5.62
443.138	5.63
443.497	5.69
443.855	5.59
444.214	5.61
444.572	5.57
444.93	5.81
445.288	5.75
445.647	5.91
446.005	5.49
446.363	5.69
446.721	5.57
447.079	5.68
447.437	5.59
447.795	5.55
448.153	5.64
448.51	5.61
448.868	5.56
449.226	5.66
449.584	5.53
449.941	5.53
450.299	5.76
450.656	5.42
451.014	5.61
451.371	5.85
451.729	5.67
452.086	5.73
452.443	5.88
452.801	5.65
453.158	5.84
453.515	5.81
453.872	5.67
454.229	5.85
454.586	5.79
454.943	5.7
455.3	5.66
455.657	5.75
456.014	5.75
456.371	5.55
456.727	5.86
457.084	5.74
457.441	5.78
457.797	5.72
458.154	5.73
458.51	5.73
458.867	5.63
459.223	5.81
459.58	5.72
459.936	5.84
460.292	5.7
460.648	5.56
461.005	5.49
461.361	5.69
461.717	5.56
462.073	5.59
462.429	5.61
462.785	5.65
463.141	5.71
463.496	5.7
463.852	5.74
464.208	5.92
464.564	5.87
464.919	5.75
465.275	5.81
465.631	5.88
465.986	5.89
466.342	5.64
466.697	5.78
467.052	5.68
467.408	5.88
467.763	5.81
468.118	5.95
468.473	5.78
468.829	5.76
469.184	5.82
469.539	5.84
469.894	5.89
470.249	5.69
470.603	5.79
470.958	5.83
471.313	5.95
471.668	5.78
472.023	5.89
472.377	5.81
472.732	5.81
473.086	5.83
473.441	5.98
473.795	6.12
474.15	5.93
474.504	5.76
474.859	5.66
475.213	5.82
475.567	5.72
475.921	5.88
476.275	5.91
476.63	5.94
476.984	6.03
477.338	5.77
477.692	5.71
478.045	5.81
478.399	5.79
478.753	5.76
479.107	5.77
479.461	5.76
479.814	5.98
480.168	5.89
480.521	5.87
480.875	5.8
481.228	5.81
481.582	5.9
481.935	5.83
482.289	5.81
482.642	5.82
482.995	5.84
483.348	5.79
483.701	5.83
484.055	5.69
484.408	5.65
484.761	5.6
485.114	5.58
485.466	5.53
485.819	5.41
486.172	5.33
486.525	5.39
486.878	5.46
487.23	5.55
487.583	5.61
487.936	5.62
488.288	5.6
488.641	5.64
488.993	5.48
489.345	5.52
489.698	5.51
490.05	5.4
490.402	5.5
490.754	5.5
491.107	5.53
491.459	5.67
491.811	5.69
492.163	5.67
492.515	5.76
492.866	5.74
493.218	5.63
493.57	5.55
493.922	5.5
494.274	5.53
494.625	5.6
494.977	5.64
495.328	5.76
495.68	5.8
496.031	5.7
496.383	5.88
496.734	5.81
497.086	5.76
497.437	5.81
497.788	5.86
498.139	5.97
498.49	5.77
498.842	5.84
499.193	5.87
499.544	5.8
499.894	5.75
500.245	5.68
500.596	5.79
500.947	5.82
501.298	5.83
501.648	5.76
501.999	5.9
502.35	5.87
502.7	5.99
503.051	5.75
503.401	5.93
503.752	6
504.102	5.8
504.452	5.89
504.803	5.83
505.153	5.95
505.503	5.94
505.853	5.93
506.203	5.82
506.553	5.73
506.903	5.79
507.253	5.87
507.603	5.81
507.953	5.94
508.303	5.8
508.652	6.04
509.002	5.97
509.352	5.89
509.701	5.95
510.051	5.7
510.4	5.86
510.75	5.85
511.099	5.74
511.449	5.9
511.798	5.82
512.147	5.84
512.496	5.8
512.846	5.81
513.195	5.8
513.544	5.78
513.893	5.69
514.242	5.86
514.591	5.88
514.939	5.82
515.288	5.73
515.637	5.87
515.986	6
516.334	5.86
516.683	5.87
517.032	5.79
517.38	5.81
517.729	5.86
518.077	5.82
518.426	5.86
518.774	5.8
519.122	5.97
519.47	5.79
519.819	5.8
520.167	5.73
520.515	5.72
520.863	5.74
521.211	5.7
521.559	5.71
521.907	5.83
522.255	5.83
522.602	5.89
522.95	5.81
523.298	5.7
523.645	5.86
523.993	5.81
524.341	5.84
524.688	5.91
525.036	5.98
525.383	5.74
525.73	6.07
526.078	5.92
526.425	6
526.772	5.81
527.119	5.87
527.466	5.67
527.814	5.84
528.161	5.78
528.508	5.75
528.854	5.73
529.201	5.77
529.548	5.81
529.895	5.78
530.242	5.64
530.588	5.53
530.935	5.5
531.282	5.56
531.628	5.62
531.975	5.61
532.321	5.64
532.667	5.72
533.014	5.71
533.36	5.78
533.706	5.82
534.052	5.73
534.399	5.73
534.745	5.64
535.091	5.7
535.437	5.68
535.783	5.68
536.129	5.63
536.474	5.7
536.82	5.82
537.166	5.8
537.512	5.9
537.857	5.85
538.203	5.83
538.549	5.91
538.894	5.79
539.239	5.66
539.585	5.77
539.93	5.84
540.276	5.89
540.621	5.98
540.966	5.92
541.311	5.94
541.656	5.91
542.001	5.9
542.346	5.96
542.691	5.77
543.036	5.68
543.381	5.64
543.726	5.62
544.071	5.61
544.415	5.66
544.76	5.66
545.105	5.8
545.449	5.72
545.794	5.85
546.138	5.82
546.483	5.8
546.827	5.86
547.171	5.88
547.516	5.87
547.86	5.92
548.204	5.74
548.548	5.82
548.892	5.79
549.236	5.89
549.58	5.71
549.924	5.75
550.268	5.9
550.612	5.89
550.956	6.06
551.3	5.96
551.643	6.01
551.987	5.95
552.33	6.02
552.674	6.07
553.017	5.99
553.361	5.95
553.704	6.19
554.048	5.91
554.391	5.97
554.734	6.02
555.077	6.02
555.42	6.01
555.764	5.92
556.107	6.13
556.45	6.05
556.793	6.01
557.135	6.02
557.478	5.99
557.821	5.98
558.164	6.04
558.507	6.24
558.849	6.04
559.192	6.09
559.534	6.24
559.877	5.85
560.219	5.93
560.562	6.08
560.904	5.74
561.246	6.05
561.589	5.93
561.931	6.06
562.273	6.14
562.615	6.12
562.957	6.13
563.299	5.98
563.641	6.05
563.983	5.72
564.325	5.87
564.667	5.97
565.008	5.91
565.35	5.93
565.692	5.96
566.033	6.05
566.375	6.1
566.716	6.02
567.058	5.99
567.399	6.1
567.741	6.01
568.082	5.93
568.423	6.02
568.764	5.91
569.105	6.03
569.447	5.95
569.788	6.02
570.129	5.94
570.47	6.09
570.811	6.03
571.151	5.93
571.492	6.21
571.833	6.13
572.174	6.08
572.514	6.1
572.855	6.1
573.195	6.06
573.536	5.88
573.876	6.07
574.217	5.92
574.557	5.92
574.898	5.84
575.238	5.93
575.578	5.99
575.918	5.71
576.258	6.1
576.598	6.12
576.938	5.95
577.278	5.89
577.618	5.81
577.958	5.9
578.298	5.9
578.638	5.97
578.977	5.88
579.317	6.01
579.657	6.13
579.996	6.12
580.336	6.15
580.675	6.01
581.014	5.79
581.354	5.97
581.693	5.93
582.032	6.06
582.372	6.13
582.711	6.39
583.05	6.32
583.389	5.94
583.728	6
584.067	6.09
584.406	6.04
584.745	6.34
585.083	6.08
585.422	6
585.761	6.09
586.1	6.15
586.438	5.82
586.777	6.26
587.115	6.42
587.454	6.02
587.792	6.1
588.13	6.31
588.469	6.13
588.807	5.89
589.145	6.02
589.483	5.88
589.821	6.1
590.159	6.22
590.497	6.24
590.835	6.04
591.173	6.09
591.511	6.11
591.849	5.82
592.187	5.93
592.524	5.8
592.862	6.15
593.2	6.34
593.537	5.91
593.875	5.95
594.212	6.13
594.55	6.19
594.887	6.26
595.224	6.1
595.561	5.82
595.899	5.93
596.236	5.98
596.573	6.02
596.91	6.14
597.247	6.16
597.584	6.05
597.921	6.09
598.258	6.13
598.594	6
598.931	5.87
599.268	5.87
599.604	5.89
599.941	5.86
600.277	5.83
600.614	6.18
600.95	5.99
601.287	5.9
601.623	6.18
601.959	6.05
602.296	6.13
602.632	6.16
602.968	5.69
603.304	6.21
603.64	5.83
603.976	6.11
604.312	6.15
604.648	6.29
604.984	6.29
605.319	6.08
605.655	6.05
605.991	6.13
606.326	5.97
606.662	5.95
606.998	5.76
607.333	5.8
607.668	5.72
608.004	6.05
608.339	5.81
608.674	6.13
609.01	6.1
609.345	6.16
609.68	6.15
610.015	6.09
610.35	6.13
610.685	6.2
611.02	5.8
611.355	5.88
611.689	5.89
612.024	6.17
612.359	6.07
612.694	5.94
613.028	6.06
613.363	6.04
613.697	5.99
614.032	6.07
614.366	6.21
614.7	6.18
615.035	6.12
615.369	6.33
615.703	5.97
616.037	6.3
616.371	6
616.705	6.07
617.039	6.01
617.373	6.24
617.707	6.28
618.041	5.85
618.375	6.18
618.709	6.26
619.042	6.07
619.376	6.61
619.71	6.19
620.043	6.23
620.377	5.9
620.71	6.17
621.043	6.42
621.377	6.11
621.71	6.33
622.043	6.18
622.376	6.48
622.709	6.14
623.043	6.33
623.376	6.27
623.709	5.73
624.041	6.02
624.374	6.07
624.707	6.22
625.04	6.22
625.373	6.55
625.705	6.08
626.038	6.18
626.37	5.76
626.703	6.08
627.035	5.89
627.368	5.95
627.7	6.09
628.032	6.25
628.365	6.18
628.697	6.02
629.029	5.93
629.361	6.01
629.693	5.63
630.025	6.19
630.357	5.78
630.689	5.9
631.021	6.35
631.353	6.11
631.684	5.87
632.016	6.24
632.348	5.79
632.679	5.51
633.011	6.07
633.342	5.85
633.674	6.33
634.005	6.38
634.336	6.36
634.668	5.88
634.999	6.21
635.33	5.57
635.661	6.25
635.992	6.56
636.323	6.31
636.654	6.13
636.985	6.17
637.316	6.32
637.647	6.04
637.977	5.68
638.308	6.24
638.639	6.14
638.969	6.2
639.3	6.23
639.63	6.34
639.961	6.19
640.291	5.99
640.622	6.38
640.952	6.13
641.282	5.81
641.612	6.21
641.943	5.96
642.273	6.15
642.603	6.46
642.933	6.5
643.263	6.4
643.592	6.22
643.922	6.5
644.252	5.63
644.582	6.12
644.911	6.6
645.241	6.76
645.571	6.68
645.9	6.14
646.23	6.22
646.559	6.22
646.888	6.43
647.218	6.28
647.547	6.08
647.876	5.59
648.205	6.4
648.534	6.15
648.863	6.5
649.192	6.16
649.521	5.97
649.85	5.87
650.179	5.64
650.508	5.97
650.837	6.22
651.165	6.25
651.494	5.73
651.822	6.11
652.151	6.4
652.479	6.37
652.808	6.38
653.136	6
653.465	6.62
653.793	6.42
654.121	6.65
654.449	6.18
654.777	6.26
655.105	6.31
655.433	6.65
655.761	6.23
656.089	6.11
656.417	6.4
656.745	6.54
657.073	6.13
657.4	6.96
657.728	6.92
658.056	6.83
658.383	6.48
658.711	5.97
659.038	6.91
659.365	6.73
659.693	6.28
660.02	6.49
660.347	6.18
660.674	6.16
661.001	6.08
661.329	6.64
661.656	6.2
661.982	6.17
662.309	6.59
662.636	6.2
662.963	6.27
663.29	6.51
663.616	6.35
663.943	6.05
664.27	6.65
664.596	6.09
664.923	6.2
665.249	6.54
665.576	6.47
665.902	6.31
666.228	6.74
666.554	7.07
666.881	6.31
667.207	6.53
667.533	6
667.859	7.31
668.185	6.71
668.511	6.48
668.837	7.02
669.162	6.81
669.488	6.3
669.814	6.56
670.139	6.7
670.465	6.44
670.791	7.09
671.116	6.67
671.442	6.49
671.767	6.22
672.092	6.63
672.418	6.65
672.743	6.24
673.068	6.79
673.393	6.43
673.718	6.31
674.043	6.65
674.368	6.34
674.693	6.69
675.018	6.82
675.343	6.7
675.667	6.58
675.992	7.09
676.317	7.23
676.641	6.54
676.966	6.86
677.29	6.68
677.615	6.68
677.939	5.99
678.264	5.88
678.588	6.22
678.912	6.65
679.236	6.29
679.56	6.59
679.885	7.18
680.209	6.4
680.532	6.42
680.856	6.35
681.18	6.92
681.504	6.84
681.828	7.07
682.152	6.84
682.475	6.4
682.799	6.64
683.122	6.72
683.446	6.63
683.769	6.69
684.093	7.47
684.416	7.09
684.739	6.06
685.062	5.58
685.386	6.57
685.709	6.31
686.032	7.03
686.355	7.43
686.678	6.34
687.001	6.92
687.324	6.29
687.646	6.84
687.969	6.74
688.292	7.07
688.614	6.28
688.937	6.55
689.26	6.77
689.582	6.05
689.904	6.14
690.227	6.93
690.549	6.82
690.871	6.93
691.194	6.82
691.516	6.59
691.838	7.84
692.16	6.27
692.482	6.55
692.804	6.17
693.126	6.42
693.448	6.89
693.769	6.2
694.091	6.75
694.413	6.58
694.735	6.54
695.056	6.34
695.378	7.01
695.699	7.37
696.021	6.37
696.342	6.36
696.663	6.8
696.984	6.69
697.306	7.08
697.627	7.59
697.948	6.98
698.269	6.54
698.59	7.1
698.911	6.27
699.232	5.86
699.553	6.69
699.873	6.8
700.194	7.19
700.515	6.28
700.835	7
701.156	7
701.477	6.37
701.797	6.41
702.117	6.68
702.438	6.9
702.758	6.54
703.078	7.01
703.398	6.37
703.719	6.9
704.039	7.48
704.359	6.98
704.679	6.91
704.999	5.49
705.319	6.64
705.638	6.82
705.958	6.57
706.278	6.53
706.597	7.18
706.917	6.11
707.237	6.93
707.556	6.37
707.876	6.57
708.195	7.54
708.514	6.97
708.834	7.06
709.153	6.44
709.472	7.27
709.791	8.42
710.11	7.85
710.429	6.86
710.748	7.47
711.067	6.75
711.386	6.98
711.705	7.59
712.023	7.09
712.342	6.63
712.661	6.97
712.979	6.77
713.298	6.55
713.616	6.9
713.935	7.53
714.253	6.98
714.572	6.39
714.89	6.89
715.208	6.38
715.526	7.29
715.844	7.73
716.162	7.37
716.48	7.9
716.798	6.82
717.116	6.63
717.434	6.24
717.752	7.73
718.069	6.91
718.387	6.63
718.705	6.49
719.022	7.04
719.34	6.83
719.657	7.33
719.975	6.92
720.292	8.01
720.609	7.42
720.927	6.62
721.244	7.16
721.561	8.19
721.878	7.16
722.195	7.4
722.512	8.25
722.829	7.22
723.146	7.82
723.463	7.51
723.779	8.96
724.096	7.45
724.413	6.89
724.729	7.24
725.046	6.8
725.362	8.61
725.679	6.35
725.995	8.64
726.311	7.87
726.628	6.63
726.944	6.74
727.26	6.02
727.576	7.54
727.892	8.42
728.208	8.14
728.524	7.64
728.84	8.38
729.156	8.38
729.472	7.79
729.787	6.85
730.103	5.6
730.419	7.25
730.734	7.02
731.05	6.52
731.365	6.12
731.681	7.8
731.996	8.98
732.311	8.36
732.626	6.81
732.942	7.15
733.257	7.55
733.572	8.54
733.887	7.5
734.202	7.08
734.517	6.88
734.832	8.75
735.146	8.21
735.461	7.56
735.776	6.69
736.091	7.89
736.405	6.66
736.72	7.24
737.034	8.29
737.349	8.08
737.663	8.16
737.977	7.67
738.292	5.86
738.606	7.24
738.92	7.52
739.234	7.79
739.548	6.34
739.862	6.22
740.176	7.69
740.49	7.02
740.804	9.51
741.117	8.89
741.431	7.27
741.745	8.07
742.058	7.94
742.372	8.81
742.685	8.06
742.999	7.07
743.312	7.32
743.626	6.54
743.939	7.9
744.252	6.23
744.565	8.85
744.878	5.5
745.191	7.47
745.505	6.12
745.817	10.32
746.13	6.69
746.443	7.83
746.756	7.6
747.069	9.18
747.381	9.36
747.694	6.9
748.007	7.42
748.319	7.84
748.632	7.28
748.944	8.61
749.256	10.23
749.569	8.01
749.881	9.62
750.193	6.77
750.505	7.22
750.817	7.51
751.129	7.14
751.441	7.59
751.753	7.74
752.065	9.21
752.377	9.18
752.689	8.87
753	8.12
753.312	6.68
753.624	5.77
753.935	9.65
754.247	8.09
754.558	8.66
754.869	9.52
755.181	8.47
755.492	7.58
755.803	7.11
756.114	6.94
756.425	8.18
756.736	8.98
757.047	6.61
757.358	9
757.669	7.08
757.98	6.87
758.291	9.27
758.601	8.47
758.912	9.25
759.223	6.59
759.533	9.76
759.844	10.02
760.154	9.75
760.464	9.96
760.775	9.72
761.085	6.02
761.395	8
761.705	6.92
762.016	8.41
762.326	9.3
762.636	7.52
762.945	7.03
763.255	9.56
763.565	8.01
763.875	9
764.185	7.82
764.494	7.66
764.804	8.43
765.113	8.26
765.423	7.03
765.732	7.74
766.042	8.66
766.351	7.76
766.66	7.45
766.97	8.03
767.279	7.34
767.588	7.85
767.897	7.56
768.206	8.94
768.515	8.01
768.824	8.77
769.133	9.11
769.441	6.47
769.75	11.14
770.059	10.2
770.367	9.33
770.676	11.48
770.984	8.05
771.293	9.07
771.601	5.09
771.91	6.89
772.218	12.37
772.526	11.01
772.834	9.66
773.142	10.32
773.45	6.87
773.758	7.13
774.066	10.29
774.374	8.43
774.682	9.12
774.99	5.12
775.298	2.47
775.605	11.17
775.913	7.78
776.22	3.98
776.528	6.72
776.835	11.06
777.143	5.98
777.45	10.74
777.757	6.2
778.065	7.35
778.372	12.23
778.679	8.22
778.986	8.18
779.293	8.38
779.6	7.94
779.907	6.92
780.214	5.14
780.52	8.77
780.827	9.84
781.134	8.55
781.44	9.82
781.747	10.8
782.053	10.19
782.36	8.84
782.666	10.59
782.973	6.54
783.279	6.39
783.585	8.02
783.891	5.94
784.197	8.13
784.503	8.96
784.809	5.46
785.115	6.91
785.421	7.21
785.727	10.65
786.033	10.7
786.339	8.81
786.644	7.91
786.95	13.23
787.255	11.84
787.561	8.44
787.866	5.99
788.172	12.25
788.477	8
788.782	4.81
789.088	7.86
789.393	6.4
789.698	7.19
790.003	6.73
790.308	9.05
790.613	6.26
790.918	13.4
791.223	7.69
791.527	9.97
791.832	14.2
792.137	11.86
792.441	5.02
792.746	10.59
793.05	10.93
793.355	6.66
793.659	13.09
793.963	13.28
794.268	9.17
794.572	9.88
794.876	8.88
795.18	5.8
795.484	12.25
795.788	9.61
796.092	9.47
796.396	9.38
796.7	6.49
797.004	9.49
797.307	9.53
797.611	6.78
797.915	6.4
798.218	7.39
798.522	5.48
798.825	11.49
799.128	9.67
799.432	5.43
799.735	9.94
800.038	9.24
800.341	-0.31
800.644	13.29
800.947	9.4
801.25	9.52
801.553	11.09
801.856	14
802.159	2.51
802.462	13.05
802.764	9.3
803.067	12.75
803.37	10.08
803.672	9.32
803.975	9.83
804.277	5.74
804.579	6.07
804.882	16.3
805.184	9.33
805.486	9.18
805.788	18.51
806.09	8.48
806.392	10.84
806.694	6.24
806.996	12.12
807.298	4.57
807.6	10
807.902	5.78
808.203	11.59
808.505	14.57
808.807	5.94
809.108	4.96
809.409	7.8
809.711	6.88
810.012	10.87
810.313	4.34
810.615	6.48
810.916	7.45
811.217	7.11
811.518	7.94
811.819	11.72
812.12	15.65
812.421	3.13
812.722	5.66
813.023	12.62
813.323	2.55
813.624	10.31
813.925	11.37
814.225	14.37
814.526	15.17
814.826	8
815.126	15.65
815.427	10.22
815.727	13.83
816.027	10.53
816.327	11.52
816.627	16.86
816.927	17.73
817.227	8.42
817.527	11.12
817.827	14.03
818.127	12.25
818.427	8.46
818.727	11.88
819.026	5.15
819.326	13.96
819.625	8.07
819.925	13.27
820.224	14.93
820.524	15.22
820.823	5.49
821.122	9.61
821.421	9.58
821.72	18.72
822.019	8.75
822.318	11.6
822.617	10.71
822.916	14.46
823.215	9.72
823.514	10.42
823.813	9.87
824.111	12.63
824.41	11.17
824.709	11.29
825.007	9.73
825.306	9.37
825.604	9.37
825.902	10.95
826.201	10.98
826.499	10.47
826.797	11.24
827.095	10.38
827.393	10.39
827.691	11.52
827.989	11.41
828.287	12.23
828.585	9.95
828.882	11.88
829.18	10.48
829.478	11.73
829.775	10
830.073	11.28
830.37	10.77
830.668	10.62
830.965	10.14
831.263	9.82
831.56	12.61
831.857	7.74
832.154	11.48
832.451	11.87
832.748	10.35
833.045	8.04
833.342	14.65
833.639	12.61
833.936	10.35
834.232	13.37
834.529	8.03
834.826	8.27
835.122	1.86
835.419	13.9
835.715	13.59
836.012	11.12
836.308	6.78
836.604	7.13
836.901	14.97
837.197	8.56
837.493	12.44
837.789	10.05
838.085	11.79
838.381	13.75
838.677	11.21
838.972	13.85
839.268	9.24
839.564	10.3
839.86	7.87
840.155	10.73
840.451	15.01
840.746	14.24
841.042	15.29
841.337	11.89
841.632	14.5
841.928	10.61
842.223	20.11
842.518	12.1
842.813	7.96
843.108	12.67
843.403	8.37
843.698	11.85
843.993	11.96
844.287	16.84
844.582	13.18
844.877	21.28
845.171	11.23
845.466	5.82
845.761	10.54
846.055	12.62
846.349	19.23
846.644	4.97
846.938	24.47
847.232	14.73
847.526	25.92
847.82	2.68
848.114	25.37
848.408	10.16
848.702	10.03
848.996	15.56
849.29	8.05
849.584	3.5
849.877	29.49
850.171	26.92
850.465	1.92
850.758	6.54
851.052	27.93
851.345	26.22
851.638	6.95
851.932	14.35
852.225	6.82
852.518	11.56
852.811	18.19
853.104	31.04
853.397	7
853.69	13.82
853.983	-0.41
854.276	13.87
854.569	8.37
854.861	10.27
855.154	39.96
855.447	25.66
855.739	44.41
856.032	-11.92
856.324	18
856.616	6.64
856.909	23.99
857.201	4
857.493	21.32
857.785	8.76
858.077	19.34
858.369	19.56
858.661	13.87
858.953	9.57
859.245	7.49
859.537	-5.01
859.829	19.35
860.12	22.73
860.412	29.07
860.703	18.15
860.995	26.96
861.286	17.25
861.578	21.42
861.869	3.55
862.16	18.66
862.452	6.16
862.743	13.45
863.034	22.22
863.325	20.09
863.616	-9.64
863.907	12.12
864.198	38.62
864.488	15.45
864.779	6.72
865.07	11.26
865.36	6.44
865.651	20.83
865.941	28.19
866.232	13.23
866.522	13.06
866.813	-5.79
867.103	-0.51
867.393	19.5
867.683	18.44
867.973	39.35
868.263	35.4
868.553	35.44
868.843	2.97
869.133	40.59
869.423	-14.24
869.713	11.85
870.002	33.08
870.292	26.6
870.582	9.22
870.871	2.54
871.161	11.7
871.45	21.73
871.739	40.03
872.029	-0.56
872.318	35.67
872.607	28.22
872.896	9.22
873.185	45.22
873.474	23.11
873.763	19.03
874.052	41.92
874.341	33.73
874.63	10.33
874.918	13.48
875.207	-1.09
875.496	-13.28
875.784	0.61
876.073	11.67
876.361	35.01
876.649	7.03
876.938	3.12
877.226	37.33
877.514	32.35
877.802	4.47
878.09	-9.56
878.378	23.57
878.666	7.31
878.954	5.34
879.242	38.34
879.53	22.52
879.817	32.12
880.105	24.47
880.392	24.3
880.68	18.65
880.967	19.05
881.255	33.06
881.542	-1.28
881.83	17.48
882.117	32.8
882.404	7.37
882.691	31.58
882.978	29.48
883.265	-17.84
883.552	32.05
883.839	4
884.126	4.92
884.413	15.16
884.699	21.64
884.986	18.56
885.273	10.55
885.559	10.55
885.846	10.55
