Data from 0341_crown_Reflection__1__270.txt Node

Date: Fri Oct 20 22:53:07 CDT 2023
User: ToomeyLab
Spectrometer: FLMS14357
Trigger mode: 0
Integration Time (sec): 1.000000E-2
Scans to average: 100
Electric dark correction enabled: true
Nonlinearity correction enabled: false
Boxcar width: 0
XAxis mode: Wavelengths
Number of Pixels in Spectrum: 2048
>>>>>Begin Spectral Data<<<<<
189.047	9.41
189.435	9.41
189.823	9.41
190.211	298.74
190.599	31.37
190.987	70.44
191.375	3.46
191.763	72.1
192.151	-65.48
192.538	560.34
192.926	218.67
193.314	91.57
193.702	55.87
194.089	104.98
194.477	5.24
194.864	-553.51
195.252	-0.13
195.639	1109.83
196.027	158.09
196.414	152.48
196.801	22.62
197.189	-69.32
197.576	128.21
197.963	661.83
198.351	64.2
198.738	7.32
199.125	17.52
199.512	18.17
199.899	9.94
200.286	-33.84
200.673	30.65
201.06	46.12
201.447	7.54
201.833	17.3
202.22	25.88
202.607	31.5
202.994	22.03
203.38	-17.41
203.767	-18.33
204.154	58.12
204.54	57.18
204.927	-2.65
205.313	24.72
205.699	85.52
206.086	36.64
206.472	49.69
206.858	45.66
207.245	14.11
207.631	39.31
208.017	32.46
208.403	14.95
208.789	1.86
209.175	-12.45
209.561	38.21
209.947	-9.06
210.333	5.33
210.719	12.98
211.105	19.95
211.491	15.54
211.876	5.91
212.262	27.65
212.648	44.19
213.034	8.2
213.419	4.43
213.805	4.46
214.19	18.32
214.576	-7.46
214.961	-10.32
215.346	39.67
215.732	4.94
216.117	-40.31
216.502	11.97
216.888	17.81
217.273	-18.15
217.658	2.07
218.043	11.28
218.428	11.92
218.813	11.3
219.198	1.41
219.583	-12.62
219.968	1.95
220.353	21.42
220.738	-2.24
221.122	7.64
221.507	23.58
221.892	-2.25
222.276	6.15
222.661	16.9
223.046	8.53
223.43	6.98
223.815	0.09
224.199	17.05
224.583	-5.48
224.968	1.08
225.352	-3.69
225.736	4.21
226.121	8.14
226.505	4.05
226.889	7.91
227.273	3.8
227.657	8.65
228.041	10.69
228.425	5.93
228.809	3.46
229.193	3.26
229.577	8.19
229.961	3.37
230.344	5.37
230.728	4.03
231.112	5.53
231.495	4.8
231.879	5.84
232.263	5.66
232.646	3.86
233.03	4.49
233.413	5.52
233.797	5.13
234.18	4.33
234.563	6.17
234.946	4.34
235.33	5.55
235.713	5.84
236.096	6.14
236.479	4.31
236.862	4.21
237.245	4.73
237.628	3.67
238.011	5.09
238.394	4.01
238.777	5.3
239.16	4.07
239.543	5.99
239.925	6.45
240.308	5.23
240.691	3.87
241.073	5.65
241.456	4.2
241.838	4.49
242.221	5.08
242.603	4.52
242.986	5.13
243.368	5.2
243.75	4.59
244.133	4.54
244.515	4.11
244.897	4.5
245.279	4.55
245.661	4.34
246.043	3.43
246.425	3.96
246.807	4.43
247.189	3.08
247.571	3.7
247.953	4.12
248.335	4.27
248.717	4.55
249.098	3.99
249.48	4.17
249.862	4.1
250.243	4.36
250.625	4.65
251.006	4.32
251.388	4.43
251.769	4.7
252.151	4.24
252.532	5.87
252.913	4.67
253.295	3.54
253.676	4.26
254.057	3.81
254.438	4.42
254.819	4.7
255.2	4.18
255.581	4.39
255.962	4.62
256.343	4.26
256.724	3.18
257.105	3.9
257.486	4.37
257.867	4.49
258.247	4.84
258.628	3.09
259.009	3.82
259.389	3.76
259.77	3.28
260.15	3.94
260.531	4.24
260.911	4.04
261.292	3.91
261.672	4.21
262.052	4.11
262.432	4.03
262.813	3.81
263.193	4.31
263.573	3.95
263.953	4.57
264.333	4.16
264.713	4.68
265.093	3.96
265.473	4.08
265.853	3.43
266.233	4.06
266.612	3.91
266.992	4.58
267.372	3.62
267.752	3.94
268.131	4.26
268.511	3.85
268.89	3.57
269.27	3.84
269.649	3.2
270.029	3.82
270.408	4.16
270.787	4.01
271.167	3.85
271.546	3.8
271.925	4.04
272.304	4.2
272.683	3.49
273.062	3.63
273.441	3.8
273.82	3.8
274.199	4.11
274.578	4.08
274.957	3.99
275.336	3.75
275.715	4.04
276.093	3.49
276.472	3.97
276.851	4.21
277.229	4.13
277.608	3.1
277.986	3.18
278.365	3.77
278.743	3.96
279.122	3.81
279.5	3.7
279.878	3.22
280.257	3.8
280.635	3.84
281.013	3.78
281.391	3.58
281.769	3.8
282.147	3.86
282.525	3.66
282.903	3.94
283.281	3.66
283.659	3.45
284.037	3.91
284.415	3.19
284.792	3.67
285.17	3.86
285.548	3.75
285.925	3.57
286.303	3.41
286.68	3.46
287.058	3.93
287.435	3.81
287.813	3.22
288.19	3.34
288.567	3.55
288.945	3.94
289.322	4.09
289.699	3.28
290.076	4.15
290.453	3.9
290.83	3.13
291.207	4.17
291.584	3.5
291.961	3.22
292.338	3.26
292.715	3.78
293.092	3.6
293.469	3.87
293.845	3.36
294.222	3.59
294.599	3.48
294.975	4.11
295.352	3.3
295.728	3.57
296.105	3.59
296.481	3.65
296.858	3.61
297.234	3.87
297.61	3.11
297.986	3.36
298.363	3.49
298.739	3.17
299.115	3.2
299.491	3.55
299.867	3.35
300.243	3.43
300.619	3.63
300.995	3.38
301.371	3.74
301.746	3.68
302.122	3.61
302.498	3.35
302.874	3.31
303.249	3.39
303.625	3.24
304	3.82
304.376	2.65
304.751	3.25
305.127	3.1
305.502	3.56
305.878	3.71
306.253	3.48
306.628	3.54
307.003	3.75
307.378	3.18
307.754	3.9
308.129	3.91
308.504	3.48
308.879	3.57
309.254	3.71
309.629	3.22
310.003	3.2
310.378	3.67
310.753	3.39
311.128	3.74
311.502	3.33
311.877	3.8
312.252	3.31
312.626	3.48
313.001	3.41
313.375	3.46
313.75	3.55
314.124	3.16
314.498	3.69
314.873	3.17
315.247	3.5
315.621	3.27
315.995	3.76
316.369	3.02
316.743	3.85
317.117	3.5
317.491	2.92
317.865	3.44
318.239	4.11
318.613	3.51
318.987	3.63
319.361	2.96
319.734	3.19
320.108	3.34
320.482	3.15
320.855	3.48
321.229	3.76
321.602	3.73
321.976	2.96
322.349	3.58
322.723	3.46
323.096	3.52
323.469	3.47
323.843	3.46
324.216	3.43
324.589	3.65
324.962	3.81
325.335	3.78
325.708	3.48
326.081	3.59
326.454	3.6
326.827	3.51
327.2	4.15
327.573	3.84
327.945	3.08
328.318	3.57
328.691	3.47
329.063	4.12
329.436	3.1
329.809	3.45
330.181	3.93
330.553	3.5
330.926	3.47
331.298	3.24
331.671	3.03
332.043	3.53
332.415	3.74
332.787	3.21
333.159	3.14
333.532	3.52
333.904	3.87
334.276	3.3
334.648	3.69
335.02	3.87
335.391	3.68
335.763	3.58
336.135	3.44
336.507	3.69
336.879	3.1
337.25	3.61
337.622	3.92
337.993	3.99
338.365	3.47
338.736	3.36
339.108	4.03
339.479	3.2
339.851	4.11
340.222	3.27
340.593	3.49
340.964	3.35
341.336	3.88
341.707	3.86
342.078	3.8
342.449	3.24
342.82	3.57
343.191	3.34
343.562	3.69
343.933	3.93
344.303	3.74
344.674	4.07
345.045	3.57
345.416	4.05
345.786	3.69
346.157	3.37
346.527	3.67
346.898	3.82
347.268	3.36
347.639	4.11
348.009	3.29
348.38	3.91
348.75	3.87
349.12	3.37
349.49	3.2
349.861	3.48
350.231	2.98
350.601	3.38
350.971	3.76
351.341	3.54
351.711	4.03
352.081	3.86
352.45	3.46
352.82	3.7
353.19	4.02
353.56	3.85
353.929	3.45
354.299	3.79
354.669	3.66
355.038	3.57
355.408	4.18
355.777	4.14
356.147	3.91
356.516	3.54
356.885	3.5
357.254	3.43
357.624	4.01
357.993	3.58
358.362	3.77
358.731	3.37
359.1	3.65
359.469	3.36
359.838	3.84
360.207	3.6
360.576	3.69
360.945	3.36
361.314	3.55
361.682	3.65
362.051	3.66
362.42	3.74
362.788	3.76
363.157	3.78
363.525	3.93
363.894	3.7
364.262	3.5
364.631	3.69
364.999	3.58
365.367	3.57
365.735	3.67
366.104	3.64
366.472	3.66
366.84	3.82
367.208	3.85
367.576	3.49
367.944	4.07
368.312	3.53
368.68	3.72
369.048	3.79
369.416	4.02
369.783	3.74
370.151	3.68
370.519	3.79
370.886	3.56
371.254	4.13
371.621	4.08
371.989	3.48
372.356	3.98
372.724	4.27
373.091	3.77
373.458	3.59
373.826	3.83
374.193	3.49
374.56	3.59
374.927	3.75
375.294	3.86
375.661	3.86
376.028	3.87
376.395	3.93
376.762	3.99
377.129	4.1
377.496	4.01
377.863	4.47
378.229	3.87
378.596	3.67
378.963	4.05
379.329	3.97
379.696	3.81
380.062	3.98
380.429	3.73
380.795	3.78
381.161	3.93
381.528	4.04
381.894	3.67
382.26	3.74
382.626	3.98
382.993	3.89
383.359	3.75
383.725	3.71
384.091	3.97
384.457	3.67
384.823	3.8
385.188	3.82
385.554	3.86
385.92	4.27
386.286	4.24
386.651	3.9
387.017	3.89
387.383	4.1
387.748	3.72
388.114	3.7
388.479	3.63
388.845	3.98
389.21	3.86
389.575	3.57
389.94	4
390.306	3.83
390.671	3.94
391.036	3.94
391.401	3.96
391.766	3.91
392.131	3.81
392.496	3.88
392.861	4.11
393.226	3.92
393.591	3.81
393.956	3.9
394.32	3.99
394.685	3.69
395.05	4.1
395.414	4.05
395.779	3.71
396.143	3.83
396.508	3.96
396.872	3.93
397.236	3.79
397.601	3.9
397.965	3.94
398.329	3.98
398.694	4.05
399.058	3.56
399.422	3.9
399.786	3.93
400.15	3.68
400.514	3.72
400.878	3.89
401.242	3.91
401.605	3.79
401.969	3.82
402.333	3.96
402.697	4.17
403.06	3.74
403.424	3.73
403.787	3.8
404.151	3.78
404.514	3.91
404.878	3.85
405.241	3.96
405.604	3.75
405.968	3.92
406.331	3.79
406.694	3.92
407.057	3.86
407.42	4.03
407.783	3.96
408.146	3.87
408.509	3.77
408.872	4.09
409.235	3.87
409.598	3.83
409.961	3.96
410.323	3.91
410.686	4
411.049	3.98
411.411	3.95
411.774	3.8
412.136	3.99
412.499	3.81
412.861	4.03
413.223	4.1
413.586	3.99
413.948	3.86
414.31	4.12
414.672	3.74
415.035	3.77
415.397	4.06
415.759	4.04
416.121	3.9
416.483	4.09
416.845	4.05
417.206	3.81
417.568	4.05
417.93	4.04
418.292	3.76
418.653	4.13
419.015	3.84
419.377	3.83
419.738	3.76
420.1	3.7
420.461	3.75
420.822	3.91
421.184	3.81
421.545	3.88
421.906	3.78
422.267	3.85
422.629	3.84
422.99	3.62
423.351	3.82
423.712	3.78
424.073	3.9
424.434	3.76
424.795	3.87
425.155	3.85
425.516	3.76
425.877	3.8
426.238	3.68
426.598	3.78
426.959	3.82
427.32	3.77
427.68	3.83
428.041	3.73
428.401	3.83
428.761	3.92
429.122	3.83
429.482	3.98
429.842	3.93
430.202	3.83
430.563	3.94
430.923	4.04
431.283	3.84
431.643	3.96
432.003	4.12
432.363	3.81
432.722	4.05
433.082	3.96
433.442	3.8
433.802	4.16
434.161	3.79
434.521	3.97
434.881	3.95
435.24	3.93
435.6	3.99
435.959	3.8
436.319	3.85
436.678	3.92
437.037	3.92
437.396	3.96
437.756	3.82
438.115	3.7
438.474	3.99
438.833	4.06
439.192	3.84
439.551	3.8
439.91	3.88
440.269	4.01
440.628	4.05
440.987	3.94
441.345	3.77
441.704	3.86
442.063	3.98
442.421	3.83
442.78	3.75
443.138	3.88
443.497	3.85
443.855	3.89
444.214	3.87
444.572	3.85
444.93	4.01
445.288	3.87
445.647	4.06
446.005	3.69
446.363	3.89
446.721	3.83
447.079	3.99
447.437	3.86
447.795	3.79
448.153	3.76
448.51	3.78
448.868	3.76
449.226	3.81
449.584	3.84
449.941	3.83
450.299	3.89
450.656	3.82
451.014	3.88
451.371	3.93
451.729	3.8
452.086	3.98
452.443	4.05
452.801	3.78
453.158	3.99
453.515	4.01
453.872	3.95
454.229	4
454.586	3.94
454.943	4.01
455.3	3.88
455.657	4.01
456.014	3.76
456.371	3.98
456.727	3.9
457.084	3.97
457.441	3.81
457.797	4.09
458.154	3.89
458.51	4.07
458.867	4.06
459.223	4.02
459.58	3.95
459.936	4
460.292	3.93
460.648	3.85
461.005	3.76
461.361	3.95
461.717	3.73
462.073	3.95
462.429	3.93
462.785	3.88
463.141	3.81
463.496	3.87
463.852	3.94
464.208	3.87
464.564	4.07
464.919	3.84
465.275	4.19
465.631	3.92
465.986	4.06
466.342	4
466.697	3.9
467.052	3.87
467.408	3.85
467.763	4.13
468.118	4.27
468.473	3.96
468.829	3.9
469.184	4.05
469.539	3.88
469.894	4.03
470.249	4.09
470.603	3.88
470.958	4.04
471.313	4.07
471.668	4.09
472.023	3.93
472.377	4.06
472.732	3.89
473.086	4.22
473.441	4.07
473.795	4.21
474.15	3.99
474.504	3.87
474.859	3.92
475.213	4.07
475.567	3.96
475.921	3.96
476.275	4.03
476.63	4.13
476.984	4.15
477.338	4.04
477.692	4.02
478.045	4
478.399	3.91
478.753	4.12
479.107	3.98
479.461	4.11
479.814	4.22
480.168	4.15
480.521	4.04
480.875	3.92
481.228	4.07
481.582	4.06
481.935	3.91
482.289	4.02
482.642	3.92
482.995	3.97
483.348	3.88
483.701	3.93
484.055	3.9
484.408	3.87
484.761	3.84
485.114	3.83
485.466	3.78
485.819	3.7
486.172	3.67
486.525	3.65
486.878	3.69
487.23	3.72
487.583	3.76
487.936	3.83
488.288	3.82
488.641	3.83
488.993	3.75
489.345	3.74
489.698	3.74
490.05	3.7
490.402	3.74
490.754	3.79
491.107	3.8
491.459	3.83
491.811	3.88
492.163	3.9
492.515	3.9
492.866	3.96
493.218	3.83
493.57	3.79
493.922	3.76
494.274	3.78
494.625	3.82
494.977	3.82
495.328	3.99
495.68	4
496.031	3.85
496.383	4.08
496.734	4.01
497.086	4.03
497.437	3.95
497.788	3.95
498.139	4.1
498.49	3.92
498.842	3.95
499.193	4.07
499.544	3.99
499.894	3.97
500.245	3.92
500.596	3.96
500.947	4.01
501.298	4.01
501.648	4
501.999	4.01
502.35	4.04
502.7	4.01
503.051	4.16
503.401	4
503.752	4
504.102	4.03
504.452	3.95
504.803	4.03
505.153	4
505.503	4.08
505.853	4.07
506.203	3.95
506.553	4.02
506.903	4.06
507.253	4.13
507.603	4.03
507.953	4.21
508.303	3.97
508.652	4.07
509.002	4.13
509.352	4.18
509.701	4.03
510.051	3.97
510.4	4.01
510.75	3.99
511.099	3.93
511.449	4.11
511.798	4.06
512.147	4.08
512.496	4.01
512.846	3.96
513.195	4.02
513.544	3.97
513.893	4.01
514.242	3.91
514.591	4.05
514.939	3.93
515.288	3.88
515.637	4
515.986	4.12
516.334	4.04
516.683	3.99
517.032	3.95
517.38	3.87
517.729	4.08
518.077	3.99
518.426	3.98
518.774	3.9
519.122	3.99
519.47	3.99
519.819	3.94
520.167	3.94
520.515	3.94
520.863	4.09
521.211	3.96
521.559	3.99
521.907	4
522.255	4.01
522.602	4.11
522.95	4.04
523.298	3.98
523.645	4.12
523.993	4
524.341	3.98
524.688	3.99
525.036	4.06
525.383	4.05
525.73	4.19
526.078	4.11
526.425	4.06
526.772	3.94
527.119	3.98
527.466	3.96
527.814	3.93
528.161	3.91
528.508	3.95
528.854	3.96
529.201	3.9
529.548	3.89
529.895	3.91
530.242	3.87
530.588	3.76
530.935	3.76
531.282	3.8
531.628	3.84
531.975	3.8
532.321	3.89
532.667	3.9
533.014	3.97
533.36	3.97
533.706	4.02
534.052	4.03
534.399	3.87
534.745	3.83
535.091	3.88
535.437	3.9
535.783	3.88
536.129	3.95
536.474	3.94
536.82	4.03
537.166	3.86
537.512	4.1
537.857	4.06
538.203	3.95
538.549	4.12
538.894	3.97
539.239	3.9
539.585	3.96
539.93	3.93
540.276	4.07
540.621	4.06
540.966	4.09
541.311	4
541.656	3.99
542.001	4.19
542.346	4.07
542.691	3.88
543.036	3.93
543.381	3.81
543.726	3.79
544.071	3.81
544.415	3.88
544.76	3.83
545.105	3.96
545.449	3.98
545.794	3.98
546.138	3.97
546.483	4.01
546.827	4.02
547.171	4.06
547.516	3.94
547.86	4.14
548.204	4.01
548.548	4.04
548.892	3.96
549.236	4
549.58	3.95
549.924	4.01
550.268	4.03
550.612	4.03
550.956	4.25
551.3	4.07
551.643	4.09
551.987	4.13
552.33	4.26
552.674	3.99
553.017	4.02
553.361	4.17
553.704	4.12
554.048	4.1
554.391	4.21
554.734	4.11
555.077	4.04
555.42	3.9
555.764	4.03
556.107	4.28
556.45	4.09
556.793	4.16
557.135	4.01
557.478	3.99
557.821	4.18
558.164	4.17
558.507	4.16
558.849	4.34
559.192	4.14
559.534	4.21
559.877	3.91
560.219	4.2
560.562	4.25
560.904	4.01
561.246	4.12
561.589	4.01
561.931	4.29
562.273	4.24
562.615	4.46
562.957	4.21
563.299	4.06
563.641	4.11
563.983	4.02
564.325	4.24
564.667	4.03
565.008	3.96
565.35	4.16
565.692	4.2
566.033	4.14
566.375	4.2
566.716	4.11
567.058	4.11
567.399	4.14
567.741	4.06
568.082	4.19
568.423	4.2
568.764	4.09
569.105	4.16
569.447	4.2
569.788	4.08
570.129	4.16
570.47	4.22
570.811	4.36
571.151	4.05
571.492	4.29
571.833	4.25
572.174	4.32
572.514	4.04
572.855	4.14
573.195	4.18
573.536	3.87
573.876	4.32
574.217	4.01
574.557	4.02
574.898	4.04
575.238	4.03
575.578	4.17
575.918	3.89
576.258	4.16
576.598	4.14
576.938	4.16
577.278	4.11
577.618	3.9
577.958	3.86
578.298	4.02
578.638	4.14
578.977	4.19
579.317	3.97
579.657	4.14
579.996	4.11
580.336	4.23
580.675	4.1
581.014	4.19
581.354	4.25
581.693	4.12
582.032	4.23
582.372	4.15
582.711	4.32
583.05	4.59
583.389	4.26
583.728	3.86
584.067	4.15
584.406	4.13
584.745	4.05
585.083	3.99
585.422	4.08
585.761	4.05
586.1	4.26
586.438	3.76
586.777	4.15
587.115	4.47
587.454	4.42
587.792	4.28
588.13	4.42
588.469	4.3
588.807	3.77
589.145	4.12
589.483	3.97
589.821	4.09
590.159	4.15
590.497	4.24
590.835	4.41
591.173	4.36
591.511	4.27
591.849	4.18
592.187	4.13
592.524	4.07
592.862	3.99
593.2	4.47
593.537	3.91
593.875	4.25
594.212	4.17
594.55	4.25
594.887	4.27
595.224	4.07
595.561	4.18
595.899	4.04
596.236	4.32
596.573	4.23
596.91	4.1
597.247	4.29
597.584	3.98
597.921	4.13
598.258	4.18
598.594	4.24
598.931	3.96
599.268	3.96
599.604	4.16
599.941	3.98
600.277	3.96
600.614	4.29
600.95	4.23
601.287	4.09
601.623	4.17
601.959	4.14
602.296	4.29
602.632	4.31
602.968	4.03
603.304	4.19
603.64	3.97
603.976	4.31
604.312	4.34
604.648	4.3
604.984	4.23
605.319	4.17
605.655	4.11
605.991	4.16
606.326	4.07
606.662	3.94
606.998	4.03
607.333	4
607.668	4.01
608.004	4.12
608.339	4.09
608.674	4.26
609.01	4.14
609.345	4.3
609.68	4.34
610.015	4.22
610.35	4.22
610.685	4.32
611.02	4.07
611.355	4.27
611.689	3.96
612.024	4.19
612.359	4.12
612.694	4.03
613.028	4.26
613.363	4.05
613.697	4.19
614.032	4.09
614.366	4.34
614.7	4.22
615.035	4.36
615.369	4.44
615.703	4.03
616.037	4.35
616.371	4.04
616.705	4.12
617.039	4.14
617.373	4.07
617.707	4.4
618.041	4.06
618.375	3.93
618.709	4.13
619.042	4.43
619.376	4.47
619.71	4.44
620.043	4.38
620.377	4.37
620.71	4.37
621.043	4.48
621.377	4.31
621.71	4.06
622.043	4.25
622.376	4.5
622.709	4.15
623.043	4.35
623.376	4.14
623.709	4
624.041	3.94
624.374	4.29
624.707	4.09
625.04	4.5
625.373	4.58
625.705	4.31
626.038	4.54
626.37	3.91
626.703	4.07
627.035	3.75
627.368	4.12
627.7	4.35
628.032	4.1
628.365	4.47
628.697	4.37
629.029	4.2
629.361	4.03
629.693	4.17
630.025	4.14
630.357	4.36
630.689	4
631.021	4.35
631.353	4.4
631.684	4.01
632.016	4.42
632.348	4.05
632.679	4.07
633.011	4.27
633.342	4.02
633.674	4.19
634.005	4.36
634.336	4.48
634.668	4.38
634.999	4.52
635.33	4.09
635.661	4.47
635.992	4.44
636.323	4.26
636.654	4.24
636.985	4.14
637.316	4.24
637.647	3.79
637.977	3.81
638.308	4.06
638.639	4.18
638.969	4.39
639.3	4.32
639.63	4.38
639.961	4.15
640.291	4.19
640.622	4.67
640.952	4.44
641.282	3.93
641.612	4.25
641.943	4.5
642.273	4.12
642.603	4.27
642.933	4.18
643.263	4.58
643.592	4.15
643.922	4.3
644.252	3.92
644.582	4.23
644.911	4.22
645.241	4.58
645.571	5.06
645.9	4.34
646.23	4.09
646.559	4.03
646.888	4.47
647.218	4.17
647.547	4.48
647.876	4.42
648.205	4.13
648.534	4.02
648.863	4.41
649.192	4.45
649.521	4.1
649.85	4.01
650.179	3.99
650.508	3.94
650.837	4.34
651.165	4.08
651.494	4.01
651.822	4.28
652.151	5.02
652.479	4.14
652.808	4.15
653.136	4.13
653.465	4.59
653.793	4.28
654.121	4.65
654.449	4.34
654.777	3.99
655.105	4.22
655.433	4.55
655.761	4.23
656.089	4.66
656.417	4.28
656.745	4.9
657.073	4.68
657.4	5.16
657.728	4.94
658.056	4.57
658.383	4.53
658.711	4.06
659.038	4.41
659.365	4.71
659.693	4.43
660.02	4.51
660.347	4.49
660.674	4.46
661.001	4.25
661.329	4.6
661.656	4.6
661.982	4.32
662.309	4.36
662.636	4.36
662.963	4.41
663.29	4.36
663.616	4.69
663.943	4.18
664.27	4.6
664.596	4.38
664.923	4.69
665.249	4.35
665.576	4.18
665.902	4.29
666.228	4.53
666.554	4.67
666.881	4.48
667.207	4.99
667.533	4.22
667.859	4.5
668.185	4.82
668.511	4.73
668.837	4.63
669.162	4.78
669.488	4.1
669.814	4.18
670.139	5.16
670.465	4.22
670.791	4.73
671.116	4.34
671.442	4.34
671.767	4.2
672.092	4.54
672.418	4.26
672.743	4.74
673.068	4.82
673.393	4.52
673.718	4.42
674.043	4.48
674.368	4.65
674.693	4.59
675.018	5.21
675.343	4.42
675.667	4.8
675.992	4.97
676.317	4.34
676.641	4.88
676.966	4.53
677.29	4.54
677.615	4.79
677.939	4.47
678.264	4.64
678.588	4.14
678.912	4.69
679.236	3.95
679.56	4.48
679.885	4.48
680.209	4.86
680.532	3.52
680.856	4.5
681.18	3.98
681.504	4.89
681.828	4.44
682.152	4.55
682.475	3.88
682.799	4.4
683.122	4.36
683.446	4.24
683.769	4.15
684.093	5.07
684.416	4.63
684.739	4.11
685.062	3.61
685.386	4.22
685.709	4.36
686.032	4.87
686.355	5
686.678	4.43
687.001	4.48
687.324	4.6
687.646	4.35
687.969	5.24
688.292	5
688.614	4.92
688.937	4.27
689.26	4.79
689.582	4.65
689.904	4.21
690.227	5.13
690.549	5.15
690.871	5.4
691.194	5.38
691.516	4.33
691.838	4.78
692.16	5.49
692.482	4.42
692.804	5.29
693.126	4.57
693.448	5.92
693.769	4.85
694.091	5.13
694.413	3.97
694.735	4.08
695.056	4.53
695.378	4.65
695.699	4.31
696.021	5.02
696.342	4.63
696.663	4.08
696.984	4.2
697.306	4.91
697.627	4.85
697.948	5.35
698.269	4.66
698.59	5.17
698.911	4.82
699.232	4.27
699.553	5.21
699.873	4.63
700.194	5.28
700.515	4.71
700.835	4.54
701.156	5.34
701.477	4.87
701.797	4.52
702.117	4.62
702.438	4.92
702.758	4.4
703.078	4.73
703.398	4.45
703.719	5.26
704.039	4.82
704.359	5.25
704.679	5.64
704.999	4.55
705.319	4.69
705.638	4.72
705.958	5.09
706.278	4.24
706.597	4.48
706.917	4.55
707.237	5.03
707.556	4.62
707.876	3.13
708.195	4.99
708.514	4.34
708.834	5.45
709.153	4.31
709.472	4.87
709.791	5.25
710.11	5.19
710.429	4.71
710.748	4.73
711.067	4.55
711.386	4.48
711.705	5.02
712.023	5.69
712.342	4.76
712.661	4.67
712.979	4.8
713.298	4.45
713.616	4.63
713.935	5.11
714.253	4.83
714.572	4.82
714.89	4.46
715.208	4.7
715.526	5.1
715.844	5.2
716.162	4.44
716.48	5.77
716.798	4.78
717.116	4.73
717.434	4.96
717.752	5.6
718.069	5.09
718.387	4.41
718.705	4.89
719.022	5.71
719.34	5.63
719.657	5.92
719.975	4.96
720.292	3.15
720.609	5.77
720.927	4.36
721.244	5.1
721.561	6.61
721.878	5.21
722.195	3.89
722.512	5.96
722.829	4.78
723.146	5.24
723.463	4.14
723.779	5.44
724.096	4.71
724.413	5.86
724.729	5.89
725.046	5.19
725.362	6.96
725.679	5.83
725.995	6.55
726.311	6.51
726.628	4.46
726.944	5.32
727.26	4.27
727.576	5.28
727.892	5.62
728.208	6.5
728.524	4.54
728.84	5.23
729.156	6.17
729.472	6.02
729.787	3.77
730.103	5.58
730.419	5.7
730.734	4.72
731.05	3.78
731.365	2.95
731.681	5.26
731.996	6.61
732.311	5.18
732.626	5.52
732.942	4.34
733.257	5.41
733.572	4.97
733.887	5.3
734.202	4.63
734.517	5.57
734.832	5.59
735.146	5.55
735.461	4.55
735.776	5.36
736.091	5.46
736.405	5.03
736.72	4.86
737.034	5.07
737.349	6.69
737.663	6.27
737.977	5.66
738.292	4.3
738.606	4.5
738.92	5.47
739.234	4.58
739.548	5.18
739.862	4.33
740.176	5.63
740.49	5.7
740.804	5.94
741.117	6.5
741.431	5.06
741.745	5.64
742.058	4.67
742.372	5.66
742.685	6.19
742.999	4.53
743.312	6.48
743.626	4.99
743.939	6.31
744.252	4.89
744.565	5.14
744.878	3.34
745.191	6.99
745.505	6.1
745.817	6.92
746.13	3.87
746.443	7.5
746.756	5.97
747.069	4.78
747.381	6.62
747.694	3.58
748.007	5.47
748.319	7.39
748.632	4.63
748.944	5.71
749.256	5.81
749.569	5.19
749.881	8.45
750.193	2.95
750.505	2.41
750.817	5.65
751.129	5.16
751.441	4.48
751.753	5.12
752.065	7.42
752.377	5.75
752.689	7.1
753	5.32
753.312	4.89
753.624	4.2
753.935	5.32
754.247	5.88
754.558	6.91
754.869	6.31
755.181	4.91
755.492	4.79
755.803	5.45
756.114	6.24
756.425	5.08
756.736	6.18
757.047	5.76
757.358	7.6
757.669	5.75
757.98	4.91
758.291	4.8
758.601	4.83
758.912	7.75
759.223	4.64
759.533	7.04
759.844	6.06
760.154	6.73
760.464	6.03
760.775	7.44
761.085	5.18
761.395	7.28
761.705	5.34
762.016	7.7
762.326	6.11
762.636	6.59
762.945	4.19
763.255	5.79
763.565	4.88
763.875	6.59
764.185	4.54
764.494	6.24
764.804	7.25
765.113	6.27
765.423	6.21
765.732	5.24
766.042	5.12
766.351	4.99
766.66	5.25
766.97	4.51
767.279	4.9
767.588	5.13
767.897	5.37
768.206	4.34
768.515	4.85
768.824	5.61
769.133	5.89
769.441	5.5
769.75	7.05
770.059	5.4
770.367	7.54
770.676	7.06
770.984	8.92
771.293	6.99
771.601	7.24
771.91	4.85
772.218	7.61
772.526	6.04
772.834	6.51
773.142	3.61
773.45	6.24
773.758	5.36
774.066	7.33
774.374	5.74
774.682	3.6
774.99	4.55
775.298	5.74
775.605	5.9
775.913	6.87
776.22	5.33
776.528	7.56
776.835	6.77
777.143	2.53
777.45	8.76
777.757	6.47
778.065	6.7
778.372	7.17
778.679	5.93
778.986	5.7
779.293	7.14
779.6	6.13
779.907	4.76
780.214	7.45
780.52	8.16
780.827	5.49
781.134	5.19
781.44	4.75
781.747	7.99
782.053	8.18
782.36	5.02
782.666	3.09
782.973	4.06
783.279	3.66
783.585	6.17
783.891	3.81
784.197	5.49
784.503	7.67
784.809	2.14
785.115	4.87
785.421	3.83
785.727	6.04
786.033	7.52
786.339	10.54
786.644	5.98
786.95	10.62
787.255	5.1
787.561	8.43
787.866	1.42
788.172	10.58
788.477	4.18
788.782	5.1
789.088	8.68
789.393	8.12
789.698	2.85
790.003	6.03
790.308	5.94
790.613	3.22
790.918	6.85
791.223	4.78
791.527	2.35
791.832	9.95
792.137	10.97
792.441	2.81
792.746	8.65
793.05	6.64
793.355	9.55
793.659	6.1
793.963	11.78
794.268	3.11
794.572	7.51
794.876	8.27
795.18	3.83
795.484	6.95
795.788	8.01
796.092	4.41
796.396	3.97
796.7	8.04
797.004	5.22
797.307	7.12
797.611	7.82
797.915	5.76
798.218	5.82
798.522	11.7
798.825	8.74
799.128	9.15
799.432	3.86
799.735	4.31
800.038	5.61
800.341	4.35
800.644	13.87
800.947	7.17
801.25	3.06
801.553	5.72
801.856	9.16
802.159	4.67
802.462	3.52
802.764	5.3
803.067	7.15
803.37	6.77
803.672	3.95
803.975	8.04
804.277	2.4
804.579	2.11
804.882	8.9
805.184	5.21
805.486	6.02
805.788	13.17
806.09	2.27
806.392	7.68
806.694	5.39
806.996	3.3
807.298	6.16
807.6	11.03
807.902	0.02
808.203	5.53
808.505	10.22
808.807	4.9
809.108	0.23
809.409	8.68
809.711	-2.48
810.012	5.83
810.313	4.85
810.615	-1.65
810.916	7.94
811.217	5.59
811.518	3.52
811.819	4.56
812.12	8.09
812.421	3.79
812.722	4.38
813.023	10.39
813.323	3.88
813.624	8.14
813.925	8
814.225	2.78
814.526	14.94
814.826	6.75
815.126	10.28
815.427	6.81
815.727	10.25
816.027	8.63
816.327	13.32
816.627	17.74
816.927	4.96
817.227	6.65
817.527	-0.47
817.827	7.94
818.127	7.64
818.427	3.75
818.727	8.87
819.026	-0.57
819.326	7.61
819.625	4.77
819.925	10.2
820.224	18.83
820.524	10.4
820.823	11.73
821.122	1.79
821.421	7.4
821.72	17.64
822.019	4.18
822.318	11.75
822.617	5.29
822.916	9.34
823.215	6.27
823.514	7.65
823.813	5.98
824.111	8.07
824.41	8.36
824.709	11.02
825.007	6.22
825.306	6.41
825.604	7.49
825.902	6.58
826.201	7.76
826.499	8.8
826.797	7.92
827.095	6.51
827.393	5.79
827.691	8.3
827.989	6.18
828.287	8.31
828.585	8.07
828.882	6.96
829.18	7.72
829.478	7.55
829.775	8.58
830.073	7.19
830.37	8.78
830.668	8.39
830.965	5.08
831.263	6.3
831.56	7.62
831.857	7.64
832.154	11.87
832.451	7.05
832.748	6.38
833.045	5.29
833.342	11.13
833.639	11.66
833.936	5.39
834.232	10.65
834.529	4.46
834.826	8.31
835.122	7
835.419	12.23
835.715	6.01
836.012	7.26
836.308	3.44
836.604	4.58
836.901	5.89
837.197	8.48
837.493	10.75
837.789	7.45
838.085	6.2
838.381	9.81
838.677	5.35
838.972	9.89
839.268	5.72
839.564	9.64
839.86	4.95
840.155	5.65
840.451	12.2
840.746	7.78
841.042	3.17
841.337	9.27
841.632	12.2
841.928	5.62
842.223	11.89
842.518	10.74
842.813	13.83
843.108	5.27
843.403	7.38
843.698	13.77
843.993	11.59
844.287	3.67
844.582	4.35
844.877	9.28
845.171	18.58
845.466	1.52
845.761	1.86
846.055	10.63
846.349	11.46
846.644	11.33
846.938	20.07
847.232	11.18
847.526	13.87
847.82	-9.59
848.114	13.99
848.408	9.12
848.702	-7.83
848.996	9.69
849.29	2.84
849.584	-2.44
849.877	18.49
850.171	21.3
850.465	1.61
850.758	-17.07
851.052	9.37
851.345	6.57
851.638	7.47
851.932	18.65
852.225	22.49
852.518	22.99
852.811	15.76
853.104	27.77
853.397	-5.78
853.69	-1.1
853.983	15.8
854.276	1.7
854.569	14.48
854.861	2.59
855.154	39.82
855.447	6.6
855.739	21.31
856.032	7.27
856.324	-7.8
856.616	-8.77
856.909	33.7
857.201	23.44
857.493	7.75
857.785	-0.29
858.077	6.6
858.369	23.48
858.661	0.89
858.953	1.76
859.245	-19.5
859.537	17.39
859.829	5.18
860.12	24.31
860.412	21.73
860.703	16.26
860.995	18.84
861.286	5.79
861.578	24.7
861.869	-4.32
862.16	8.81
862.452	-1.24
862.743	35.07
863.034	-19
863.325	39.23
863.616	-20.87
863.907	1.24
864.198	5.48
864.488	26.33
864.779	-3.12
865.07	9.8
865.36	-3.11
865.651	12.8
865.941	32.35
866.232	26.98
866.522	6.43
866.813	-0.46
867.103	-21.44
867.393	11.33
867.683	17.05
867.973	45.01
868.263	14.04
868.553	8.04
868.843	20.07
869.133	22.91
869.423	-1.45
869.713	28.87
870.002	27.92
870.292	-5.89
870.582	39.94
870.871	-21.34
871.161	-11.57
871.45	19.53
871.739	8.09
872.029	2.81
872.318	27.31
872.607	29.89
872.896	-1.55
873.185	14.19
873.474	16.16
873.763	14.92
874.052	19.2
874.341	37.55
874.63	27.06
874.918	15.93
875.207	33.95
875.496	-31.14
875.784	-19.18
876.073	-6.22
876.361	18.49
876.649	-29.1
876.938	11.87
877.226	-0.3
877.514	-6.81
877.802	2.26
878.09	-4.62
878.378	49.62
878.666	-13.55
878.954	6.95
879.242	34.06
879.53	28.8
879.817	0.82
880.105	-8.99
880.392	3.33
880.68	18.75
880.967	24.32
881.255	22.71
881.542	5.35
881.83	7.09
882.117	29.26
882.404	7.24
882.691	32.17
882.978	14.6
883.265	-12.3
883.552	2.73
883.839	4.1
884.126	4.48
884.413	25.14
884.699	16.42
884.986	20.92
885.273	15.67
885.559	15.67
885.846	15.67
