Data from 0341_crown_Reflection__3__272.txt Node

Date: Fri Oct 20 22:53:25 CDT 2023
User: ToomeyLab
Spectrometer: FLMS14357
Trigger mode: 0
Integration Time (sec): 1.000000E-2
Scans to average: 100
Electric dark correction enabled: true
Nonlinearity correction enabled: false
Boxcar width: 0
XAxis mode: Wavelengths
Number of Pixels in Spectrum: 2048
>>>>>Begin Spectral Data<<<<<
189.047	48.21
189.435	48.21
189.823	48.21
190.211	377.59
190.599	17.95
190.987	134.62
191.375	185.19
191.763	57.7
192.151	194.7
192.538	-813.79
192.926	-67.35
193.314	80.78
193.702	58.21
194.089	112.81
194.477	247.96
194.864	-49.12
195.252	120.5
195.639	51.28
196.027	-94.01
196.414	137.37
196.801	125.87
197.189	-279.61
197.576	76.01
197.963	-386.48
198.351	69.61
198.738	30.9
199.125	69.4
199.512	44.98
199.899	36.17
200.286	-56.78
200.673	4.75
201.06	54.94
201.447	-27.95
201.833	19.15
202.22	31.03
202.607	51.69
202.994	44.81
203.38	10.01
203.767	30.61
204.154	29.91
204.54	31.43
204.927	15.62
205.313	22.34
205.699	84.25
206.086	25.32
206.472	36.21
206.858	43.77
207.245	10.1
207.631	28.28
208.017	1.54
208.403	54.94
208.789	29.09
209.175	-21.54
209.561	10.26
209.947	14.33
210.333	29.35
210.719	-17.28
211.105	-9.64
211.491	17.58
211.876	30.54
212.262	3.57
212.648	45.36
213.034	-17.87
213.419	1.39
213.805	0.63
214.19	10.14
214.576	-0.67
214.961	21.94
215.346	33.1
215.732	9.16
216.117	-25.37
216.502	4.73
216.888	11.87
217.273	17.19
217.658	0.56
218.043	6.24
218.428	-11.42
218.813	12
219.198	12
219.583	-13.65
219.968	-30.56
220.353	-4.69
220.738	30.01
221.122	-1.5
221.507	-6.9
221.892	9.69
222.276	10.8
222.661	27.45
223.046	9.36
223.43	7.3
223.815	25.48
224.199	27.27
224.583	-2.03
224.968	-6.64
225.352	-2.58
225.736	5.2
226.121	7.05
226.505	3.67
226.889	9.21
227.273	6.59
227.657	8.5
228.041	10.63
228.425	3.8
228.809	6.58
229.193	2.74
229.577	7.8
229.961	4.01
230.344	5.22
230.728	5.67
231.112	6.25
231.495	5.33
231.879	6.47
232.263	7.05
232.646	4.64
233.03	5
233.413	4.41
233.797	5.13
234.18	6.57
234.563	7.99
234.946	7.22
235.33	5.92
235.713	5.59
236.096	6.25
236.479	5.99
236.862	6.39
237.245	5.67
237.628	5.95
238.011	5.39
238.394	5.61
238.777	7.87
239.16	7.29
239.543	6.67
239.925	7.95
240.308	5.38
240.691	6.34
241.073	6.34
241.456	6.77
241.838	5.82
242.221	5.82
242.603	6.84
242.986	5.57
243.368	6.28
243.75	5.35
244.133	5.11
244.515	5.32
244.897	5.6
245.279	5.56
245.661	4.57
246.043	5.09
246.425	5.22
246.807	5.05
247.189	4.36
247.571	5.17
247.953	5.2
248.335	5.15
248.717	5.3
249.098	5.06
249.48	4.97
249.862	5.17
250.243	5.2
250.625	5.38
251.006	5.32
251.388	4.55
251.769	4.78
252.151	4.74
252.532	6.19
252.913	5.16
253.295	4.75
253.676	5.31
254.057	4.8
254.438	5.04
254.819	5.15
255.2	4.82
255.581	5.33
255.962	5.89
256.343	6.08
256.724	4.21
257.105	5.4
257.486	5.11
257.867	5.42
258.247	5.26
258.628	4.46
259.009	4.52
259.389	4.47
259.77	4.69
260.15	5.42
260.531	5.32
260.911	5.02
261.292	4.67
261.672	4.81
262.052	4.66
262.432	4.72
262.813	4.89
263.193	4.66
263.573	4.72
263.953	4.14
264.333	5.19
264.713	5.35
265.093	5.58
265.473	4.7
265.853	4.53
266.233	5.78
266.612	4.49
266.992	4.46
267.372	4.9
267.752	4.69
268.131	4.16
268.511	4.37
268.89	4.4
269.27	4.68
269.649	4.12
270.029	4.6
270.408	5.21
270.787	5.08
271.167	5.1
271.546	4.89
271.925	5.7
272.304	5.33
272.683	4.55
273.062	4.43
273.441	4.71
273.82	4.48
274.199	4.92
274.578	4.54
274.957	4.52
275.336	4.95
275.715	4.56
276.093	4.16
276.472	4.77
276.851	5.02
277.229	5.33
277.608	4.09
277.986	4.38
278.365	4.77
278.743	4.03
279.122	4.55
279.5	4.75
279.878	4.44
280.257	4.55
280.635	4.06
281.013	5.39
281.391	4.63
281.769	3.76
282.147	4.23
282.525	4.47
282.903	4.17
283.281	4.5
283.659	4.3
284.037	4.48
284.415	4.01
284.792	4.56
285.17	4.12
285.548	4.55
285.925	4.55
286.303	4.39
286.68	4.15
287.058	5.1
287.435	4.54
287.813	3.74
288.19	4.32
288.567	4.11
288.945	4.43
289.322	4.75
289.699	3.89
290.076	4.96
290.453	4.55
290.83	3.94
291.207	4.4
291.584	4.22
291.961	4.64
292.338	4.29
292.715	4.18
293.092	4.29
293.469	4.74
293.845	4.35
294.222	4.38
294.599	4.19
294.975	4.92
295.352	3.99
295.728	4.11
296.105	4.07
296.481	4.1
296.858	4.48
297.234	4.54
297.61	4.11
297.986	3.94
298.363	4.28
298.739	4.08
299.115	4.12
299.491	4.1
299.867	4.32
300.243	4.33
300.619	4.34
300.995	4.27
301.371	4.16
301.746	3.94
302.122	4.42
302.498	3.75
302.874	4.07
303.249	4.14
303.625	4.23
304	4.65
304.376	4.09
304.751	3.82
305.127	3.53
305.502	4.16
305.878	3.95
306.253	4.37
306.628	4.38
307.003	4.17
307.378	4.19
307.754	4.25
308.129	4.51
308.504	4.53
308.879	4.53
309.254	4.66
309.629	3.81
310.003	3.42
310.378	4.48
310.753	4.14
311.128	4.32
311.502	4.03
311.877	4.38
312.252	4.29
312.626	4.37
313.001	4.09
313.375	4.16
313.75	4.37
314.124	4.04
314.498	4.45
314.873	4.18
315.247	3.55
315.621	4.29
315.995	4.79
316.369	3.83
316.743	4.18
317.117	4.09
317.491	4.1
317.865	4.14
318.239	4.49
318.613	4.39
318.987	4.09
319.361	3.61
319.734	3.74
320.108	3.67
320.482	4.1
320.855	3.92
321.229	4.08
321.602	4.04
321.976	3.94
322.349	4.39
322.723	3.96
323.096	4.5
323.469	4.2
323.843	3.83
324.216	4.32
324.589	4.08
324.962	4.32
325.335	4.1
325.708	4.4
326.081	4.17
326.454	4.25
326.827	4.53
327.2	4.03
327.573	4.32
327.945	3.79
328.318	3.72
328.691	4.49
329.063	4.65
329.436	3.94
329.809	4.44
330.181	4.46
330.553	4.03
330.926	4.26
331.298	4.09
331.671	4.22
332.043	4.14
332.415	4.38
332.787	4.66
333.159	4.14
333.532	4.55
333.904	4.11
334.276	4.5
334.648	4.41
335.02	4.29
335.391	3.79
335.763	4.54
336.135	3.95
336.507	4.61
336.879	4.24
337.25	4.06
337.622	4.75
337.993	4.49
338.365	4.21
338.736	4.17
339.108	4.53
339.479	3.87
339.851	4.26
340.222	3.87
340.593	3.63
340.964	4.49
341.336	4.9
341.707	4.06
342.078	4.17
342.449	4.19
342.82	3.98
343.191	4.19
343.562	4.4
343.933	4.13
344.303	4.03
344.674	4.58
345.045	4.56
345.416	4.37
345.786	4.03
346.157	4.63
346.527	4.25
346.898	4.17
347.268	4.57
347.639	4.68
348.009	4.1
348.38	4.34
348.75	4.06
349.12	4.63
349.49	4.43
349.861	4.74
350.231	4.02
350.601	4.45
350.971	4.48
351.341	4.44
351.711	5.03
352.081	4.56
352.45	4.47
352.82	4.59
353.19	4.55
353.56	4.8
353.929	4.44
354.299	4.1
354.669	4.27
355.038	4.93
355.408	4.35
355.777	4.42
356.147	4.43
356.516	3.94
356.885	4.38
357.254	4.54
357.624	4.46
357.993	4.19
358.362	4.25
358.731	4.23
359.1	4.12
359.469	4.1
359.838	4.28
360.207	4.42
360.576	4.78
360.945	4.42
361.314	4.37
361.682	4.5
362.051	4.38
362.42	4.51
362.788	4.48
363.157	4.44
363.525	4.18
363.894	4.32
364.262	4.16
364.631	4.48
364.999	4.34
365.367	4.52
365.735	4.25
366.104	4.05
366.472	4.28
366.84	4.69
367.208	4.36
367.576	4.55
367.944	4.57
368.312	4.21
368.68	4.33
369.048	4.16
369.416	4.65
369.783	4.57
370.151	4.76
370.519	4.29
370.886	4.62
371.254	4.58
371.621	4.61
371.989	4.22
372.356	4.5
372.724	4.43
373.091	4.45
373.458	4.3
373.826	4.28
374.193	4.5
374.56	4.68
374.927	4.34
375.294	4.82
375.661	4.59
376.028	5.05
376.395	4.72
376.762	4.24
377.129	4.27
377.496	4.5
377.863	4.77
378.229	4.76
378.596	4.56
378.963	4.53
379.329	4.59
379.696	4.56
380.062	4.64
380.429	4.41
380.795	4.38
381.161	4.49
381.528	4.91
381.894	4.51
382.26	4.66
382.626	4.51
382.993	4.52
383.359	4.45
383.725	4.38
384.091	4.59
384.457	4.55
384.823	4.37
385.188	4.54
385.554	4.46
385.92	4.38
386.286	4.78
386.651	4.53
387.017	4.84
387.383	4.75
387.748	4.36
388.114	4.44
388.479	4.38
388.845	4.96
389.21	4.32
389.575	4.53
389.94	4.59
390.306	4.55
390.671	4.59
391.036	4.56
391.401	4.79
391.766	4.75
392.131	4.67
392.496	4.52
392.861	4.59
393.226	4.67
393.591	4.57
393.956	4.57
394.32	4.81
394.685	4.54
395.05	4.72
395.414	4.67
395.779	4.61
396.143	4.47
396.508	4.54
396.872	4.62
397.236	4.53
397.601	4.47
397.965	4.58
398.329	4.52
398.694	4.72
399.058	4.5
399.422	4.75
399.786	4.5
400.15	4.51
400.514	4.42
400.878	4.77
401.242	4.87
401.605	4.92
401.969	4.57
402.333	4.57
402.697	4.83
403.06	4.89
403.424	4.81
403.787	4.53
404.151	4.49
404.514	4.57
404.878	4.58
405.241	4.66
405.604	4.44
405.968	4.74
406.331	4.7
406.694	4.85
407.057	4.3
407.42	4.82
407.783	4.74
408.146	4.66
408.509	4.67
408.872	4.81
409.235	4.37
409.598	4.8
409.961	4.85
410.323	4.48
410.686	4.53
411.049	4.9
411.411	4.69
411.774	4.54
412.136	4.68
412.499	4.56
412.861	4.75
413.223	4.88
413.586	4.86
413.948	4.83
414.31	4.89
414.672	4.42
415.035	4.53
415.397	4.78
415.759	4.83
416.121	4.63
416.483	5.05
416.845	4.57
417.206	4.75
417.568	5.01
417.93	4.71
418.292	4.47
418.653	4.76
419.015	4.72
419.377	4.75
419.738	4.52
420.1	4.67
420.461	4.71
420.822	4.54
421.184	4.69
421.545	4.76
421.906	4.63
422.267	4.51
422.629	4.66
422.99	4.49
423.351	4.58
423.712	4.6
424.073	4.58
424.434	4.47
424.795	4.56
425.155	4.59
425.516	4.5
425.877	4.63
426.238	4.48
426.598	4.55
426.959	4.53
427.32	4.61
427.68	4.58
428.041	4.58
428.401	4.68
428.761	4.7
429.122	4.68
429.482	4.63
429.842	4.59
430.202	4.71
430.563	4.67
430.923	4.87
431.283	4.66
431.643	4.67
432.003	5.03
432.363	4.63
432.722	4.68
433.082	4.65
433.442	4.57
433.802	4.75
434.161	4.7
434.521	4.86
434.881	4.74
435.24	4.63
435.6	4.62
435.959	4.61
436.319	4.77
436.678	4.7
437.037	4.61
437.396	4.79
437.756	4.83
438.115	4.63
438.474	4.79
438.833	4.66
439.192	4.46
439.551	4.54
439.91	4.63
440.269	4.73
440.628	4.7
440.987	4.63
441.345	4.61
441.704	4.63
442.063	4.72
442.421	4.56
442.78	4.76
443.138	4.72
443.497	4.64
443.855	4.64
444.214	4.67
444.572	4.71
444.93	4.71
445.288	4.71
445.647	5.01
446.005	4.66
446.363	4.66
446.721	4.68
447.079	4.81
447.437	4.72
447.795	4.52
448.153	4.56
448.51	4.51
448.868	4.62
449.226	4.64
449.584	4.61
449.941	4.55
450.299	4.58
450.656	4.63
451.014	4.73
451.371	4.75
451.729	4.64
452.086	4.6
452.443	4.8
452.801	4.63
453.158	4.88
453.515	4.69
453.872	4.65
454.229	4.78
454.586	4.84
454.943	4.7
455.3	4.79
455.657	4.82
456.014	4.62
456.371	4.74
456.727	4.77
457.084	4.67
457.441	4.7
457.797	4.73
458.154	4.66
458.51	4.78
458.867	4.71
459.223	4.78
459.58	4.74
459.936	4.82
460.292	4.68
460.648	4.61
461.005	4.56
461.361	4.7
461.717	4.49
462.073	4.7
462.429	4.65
462.785	4.67
463.141	4.72
463.496	4.68
463.852	4.7
464.208	4.76
464.564	4.82
464.919	4.65
465.275	4.9
465.631	4.87
465.986	4.88
466.342	4.85
466.697	4.71
467.052	4.65
467.408	4.84
467.763	4.99
468.118	4.98
468.473	4.73
468.829	4.7
469.184	4.83
469.539	4.82
469.894	4.8
470.249	4.69
470.603	4.71
470.958	4.97
471.313	5
471.668	4.83
472.023	4.92
472.377	4.78
472.732	4.79
473.086	4.85
473.441	4.93
473.795	5.09
474.15	4.81
474.504	4.65
474.859	4.92
475.213	4.72
475.567	4.89
475.921	4.91
476.275	4.82
476.63	5.06
476.984	5
477.338	4.7
477.692	4.76
478.045	4.94
478.399	4.76
478.753	4.88
479.107	4.91
479.461	4.84
479.814	4.94
480.168	4.8
480.521	4.87
480.875	4.8
481.228	4.86
481.582	4.94
481.935	4.81
482.289	4.85
482.642	4.85
482.995	4.78
483.348	4.9
483.701	4.78
484.055	4.82
484.408	4.72
484.761	4.62
485.114	4.54
485.466	4.51
485.819	4.42
486.172	4.42
486.525	4.46
486.878	4.51
487.23	4.6
487.583	4.62
487.936	4.63
488.288	4.7
488.641	4.72
488.993	4.6
489.345	4.6
489.698	4.5
490.05	4.56
490.402	4.55
490.754	4.58
491.107	4.62
491.459	4.71
491.811	4.73
492.163	4.63
492.515	4.68
492.866	4.81
493.218	4.69
493.57	4.58
493.922	4.55
494.274	4.59
494.625	4.67
494.977	4.75
495.328	4.82
495.68	4.83
496.031	4.65
496.383	4.82
496.734	4.79
497.086	4.96
497.437	4.85
497.788	4.88
498.139	4.95
498.49	4.81
498.842	4.7
499.193	4.88
499.544	4.88
499.894	4.82
500.245	4.77
500.596	4.81
500.947	4.82
501.298	4.82
501.648	4.81
501.999	4.89
502.35	4.9
502.7	5.02
503.051	4.89
503.401	4.93
503.752	4.88
504.102	4.87
504.452	4.86
504.803	4.92
505.153	4.92
505.503	4.97
505.853	4.89
506.203	4.87
506.553	4.81
506.903	4.95
507.253	4.95
507.603	4.66
507.953	4.96
508.303	4.82
508.652	5.02
509.002	4.92
509.352	4.95
509.701	4.85
510.051	4.9
510.4	4.82
510.75	4.84
511.099	4.95
511.449	4.79
511.798	4.94
512.147	4.9
512.496	4.9
512.846	4.84
513.195	4.92
513.544	5.06
513.893	4.88
514.242	4.9
514.591	4.92
514.939	4.87
515.288	4.71
515.637	4.84
515.986	4.97
516.334	4.87
516.683	4.97
517.032	4.9
517.38	4.79
517.729	4.97
518.077	4.96
518.426	4.83
518.774	4.81
519.122	4.84
519.47	4.88
519.819	4.75
520.167	4.75
520.515	4.82
520.863	4.86
521.211	4.78
521.559	4.87
521.907	4.8
522.255	4.85
522.602	4.98
522.95	4.72
523.298	4.85
523.645	4.85
523.993	4.97
524.341	4.82
524.688	5.01
525.036	5.05
525.383	4.88
525.73	5
526.078	4.86
526.425	4.95
526.772	4.9
527.119	4.85
527.466	4.85
527.814	4.78
528.161	4.79
528.508	4.8
528.854	4.78
529.201	4.77
529.548	4.77
529.895	4.72
530.242	4.66
530.588	4.62
530.935	4.58
531.282	4.61
531.628	4.68
531.975	4.66
532.321	4.7
532.667	4.7
533.014	4.81
533.36	4.89
533.706	4.88
534.052	4.89
534.399	4.73
534.745	4.71
535.091	4.65
535.437	4.73
535.783	4.69
536.129	4.74
536.474	4.81
536.82	4.82
537.166	4.83
537.512	4.85
537.857	4.93
538.203	4.77
538.549	4.84
538.894	4.71
539.239	4.76
539.585	4.79
539.93	4.92
540.276	4.91
540.621	4.85
540.966	4.91
541.311	4.91
541.656	4.96
542.001	4.88
542.346	4.88
542.691	4.79
543.036	4.68
543.381	4.68
543.726	4.62
544.071	4.68
544.415	4.76
544.76	4.73
545.105	4.77
545.449	4.74
545.794	4.85
546.138	4.68
546.483	4.82
546.827	4.89
547.171	4.97
547.516	4.88
547.86	4.9
548.204	4.75
548.548	4.91
548.892	4.85
549.236	4.99
549.58	4.83
549.924	4.76
550.268	4.94
550.612	4.97
550.956	5.13
551.3	4.93
551.643	4.89
551.987	5.11
552.33	5.02
552.674	4.99
553.017	4.96
553.361	5.13
553.704	4.94
554.048	5.06
554.391	4.99
554.734	4.96
555.077	4.93
555.42	4.78
555.764	4.83
556.107	5.15
556.45	5.07
556.793	5
557.135	5
557.478	4.86
557.821	5.13
558.164	4.98
558.507	5.27
558.849	5.14
559.192	4.99
559.534	5.12
559.877	4.87
560.219	5.08
560.562	5.16
560.904	4.9
561.246	5.11
561.589	4.99
561.931	5.08
562.273	5.02
562.615	5.02
562.957	5
563.299	5.04
563.641	5.09
563.983	4.83
564.325	4.91
564.667	4.93
565.008	4.89
565.35	5.01
565.692	4.87
566.033	4.96
566.375	4.91
566.716	4.91
567.058	5.05
567.399	5.07
567.741	4.85
568.082	4.94
568.423	4.95
568.764	4.74
569.105	5.05
569.447	4.99
569.788	5.04
570.129	5
570.47	5.09
570.811	5.14
571.151	4.97
571.492	5.06
571.833	5.2
572.174	5.11
572.514	4.95
572.855	4.85
573.195	4.93
573.536	4.97
573.876	5.05
574.217	4.82
574.557	4.82
574.898	4.91
575.238	4.85
575.578	5.01
575.918	4.97
576.258	5.01
576.598	5.07
576.938	5.02
577.278	5.05
577.618	4.95
577.958	4.98
578.298	5.08
578.638	4.94
578.977	5.11
579.317	4.99
579.657	4.76
579.996	5.14
580.336	5.17
580.675	4.98
581.014	4.98
581.354	5.01
581.693	5.15
582.032	5.15
582.372	4.87
582.711	5.07
583.05	5.16
583.389	5.02
583.728	5.12
584.067	5.14
584.406	5.01
584.745	5.06
585.083	4.97
585.422	4.88
585.761	5.12
586.1	5.16
586.438	4.64
586.777	4.99
587.115	5.06
587.454	5.09
587.792	4.88
588.13	5.08
588.469	4.97
588.807	4.7
589.145	4.9
589.483	5.11
589.821	4.88
590.159	5
590.497	5.18
590.835	5.04
591.173	5.02
591.511	5.29
591.849	4.85
592.187	5.04
592.524	4.87
592.862	4.91
593.2	5.19
593.537	4.8
593.875	4.87
594.212	5.27
594.55	5.08
594.887	5.13
595.224	5.14
595.561	4.85
595.899	5.07
596.236	5.03
596.573	5.11
596.91	5.27
597.247	5.09
597.584	4.92
597.921	4.9
598.258	4.95
598.594	5.15
598.931	4.86
599.268	4.79
599.604	5.05
599.941	4.91
600.277	5.05
600.614	4.98
600.95	5.12
601.287	4.92
601.623	5.09
601.959	5.38
602.296	5.26
602.632	4.94
602.968	5
603.304	5.12
603.64	5.01
603.976	5.04
604.312	5.15
604.648	5.33
604.984	5.13
605.319	5.05
605.655	4.91
605.991	5.03
606.326	4.85
606.662	4.8
606.998	4.84
607.333	4.81
607.668	4.83
608.004	5.04
608.339	4.84
608.674	5.15
609.01	5.01
609.345	5.29
609.68	5.26
610.015	4.99
610.35	5.12
610.685	5.28
611.02	5.01
611.355	5.06
611.689	4.93
612.024	4.99
612.359	4.95
612.694	4.9
613.028	4.92
613.363	5.08
613.697	5.08
614.032	5.31
614.366	5.32
614.7	5.21
615.035	5.45
615.369	5.07
615.703	4.93
616.037	4.96
616.371	4.98
616.705	5.1
617.039	5.03
617.373	4.91
617.707	5.39
618.041	5.21
618.375	4.95
618.709	5.12
619.042	5.29
619.376	5.43
619.71	5.37
620.043	5.42
620.377	4.96
620.71	5.06
621.043	5.09
621.377	4.93
621.71	4.71
622.043	5.13
622.376	5.37
622.709	5.37
623.043	4.9
623.376	4.81
623.709	4.93
624.041	5.04
624.374	5.35
624.707	4.86
625.04	5.09
625.373	5.27
625.705	4.8
626.038	5.21
626.37	4.61
626.703	4.91
627.035	5.01
627.368	5.03
627.7	5.14
628.032	5.2
628.365	5.14
628.697	5.31
629.029	5
629.361	5.04
629.693	5.01
630.025	5.02
630.357	5.06
630.689	5.06
631.021	5.27
631.353	5.01
631.684	5.03
632.016	5.18
632.348	5.21
632.679	5.31
633.011	4.92
633.342	4.82
633.674	5.31
634.005	5.26
634.336	5.59
634.668	4.81
634.999	4.92
635.33	4.82
635.661	5.5
635.992	5.28
636.323	5.24
636.654	5.15
636.985	5.06
637.316	5.14
637.647	5.1
637.977	4.86
638.308	5.33
638.639	5.09
638.969	5.44
639.3	4.89
639.63	5.19
639.961	5.07
640.291	5.13
640.622	4.95
640.952	4.94
641.282	4.79
641.612	5.14
641.943	5.61
642.273	4.53
642.603	5.79
642.933	5.55
643.263	5.59
643.592	5.25
643.922	5.35
644.252	5.13
644.582	4.86
644.911	5.07
645.241	5.6
645.571	5.43
645.9	5.24
646.23	5.52
646.559	4.91
646.888	5.44
647.218	5.32
647.547	5.31
647.876	5.02
648.205	5.57
648.534	5.33
648.863	5.54
649.192	4.9
649.521	5.15
649.85	5.56
650.179	5.07
650.508	4.38
650.837	5.88
651.165	5.27
651.494	4.99
651.822	5.41
652.151	5.39
652.479	5.18
652.808	5.42
653.136	4.96
653.465	5.29
653.793	5.46
654.121	5.54
654.449	5.17
654.777	4.89
655.105	4.99
655.433	5.4
655.761	5.63
656.089	5.22
656.417	5.21
656.745	5.29
657.073	4.94
657.4	5.93
657.728	5.36
658.056	5.39
658.383	5.15
658.711	5.44
659.038	5.66
659.365	5.75
659.693	5.43
660.02	5.34
660.347	4.96
660.674	4.92
661.001	5.08
661.329	5.7
661.656	5.42
661.982	4.98
662.309	5.43
662.636	5.29
662.963	5.77
663.29	5.41
663.616	5.82
663.943	5.15
664.27	5.47
664.596	5.67
664.923	5.21
665.249	4.66
665.576	5.27
665.902	5.34
666.228	5.4
666.554	5.81
666.881	4.54
667.207	5.76
667.533	5.28
667.859	5.56
668.185	5.72
668.511	5.17
668.837	6.01
669.162	5.66
669.488	5.36
669.814	4.91
670.139	5.39
670.465	5.66
670.791	5.59
671.116	5.36
671.442	5.53
671.767	5.5
672.092	5.41
672.418	4.92
672.743	5.35
673.068	5.32
673.393	5.42
673.718	5.37
674.043	5.31
674.368	5.46
674.693	6.06
675.018	5.84
675.343	5.96
675.667	5.3
675.992	5.51
676.317	5.14
676.641	5.4
676.966	5.83
677.29	5.54
677.615	5.68
677.939	5.16
678.264	5.49
678.588	5.29
678.912	5.6
679.236	5.66
679.56	5.06
679.885	5.39
680.209	5.32
680.532	4.74
680.856	5.37
681.18	4.93
681.504	5.72
681.828	5.73
682.152	5.19
682.475	5.15
682.799	5.64
683.122	5.72
683.446	5.28
683.769	5.74
684.093	5.53
684.416	5.76
684.739	5.49
685.062	4.93
685.386	5.01
685.709	5.45
686.032	5.08
686.355	6.24
686.678	5.58
687.001	5.16
687.324	5.06
687.646	5.35
687.969	5.43
688.292	5.98
688.614	4.85
688.937	5.62
689.26	5.6
689.582	5.13
689.904	4.83
690.227	5.52
690.549	5.58
690.871	5.32
691.194	5.75
691.516	5.5
691.838	5.8
692.16	5.52
692.482	5.73
692.804	5.8
693.126	4.8
693.448	6.07
693.769	6.03
694.091	5.01
694.413	5.32
694.735	5.01
695.056	5.58
695.378	5.37
695.699	5.69
696.021	6.36
696.342	5.97
696.663	5.79
696.984	5.13
697.306	5.62
697.627	5.72
697.948	5.51
698.269	5.5
698.59	6.2
698.911	5.15
699.232	5.36
699.553	6
699.873	5.75
700.194	6.29
700.515	5.47
700.835	6.35
701.156	5.7
701.477	5.42
701.797	5.17
702.117	5.48
702.438	5.46
702.758	5.81
703.078	5.45
703.398	6.14
703.719	5.73
704.039	6.01
704.359	5.93
704.679	5.9
704.999	5.19
705.319	5.77
705.638	4.99
705.958	5.55
706.278	5.22
706.597	6.47
706.917	5.4
707.237	6.16
707.556	4.01
707.876	5.99
708.195	6.54
708.514	5.36
708.834	6.32
709.153	6.91
709.472	6.15
709.791	6.62
710.11	6.37
710.429	5.88
710.748	6.11
711.067	5.24
711.386	5.45
711.705	6.61
712.023	6.21
712.342	5.82
712.661	5.97
712.979	5.73
713.298	5.71
713.616	5.41
713.935	5.61
714.253	5.5
714.572	5.87
714.89	6.19
715.208	5.78
715.526	6.34
715.844	5.44
716.162	6.69
716.48	6.22
716.798	5.57
717.116	5.53
717.434	6.21
717.752	5.88
718.069	6.19
718.387	5.15
718.705	5.1
719.022	5.32
719.34	5.35
719.657	6.18
719.975	5.36
720.292	5.95
720.609	5.91
720.927	6.16
721.244	5.97
721.561	6.45
721.878	5.09
722.195	6.27
722.512	6.11
722.829	5.95
723.146	6.19
723.463	5.58
723.779	6.65
724.096	6.21
724.413	4.97
724.729	7.2
725.046	6.05
725.362	7.47
725.679	4.6
725.995	7.91
726.311	6.93
726.628	7.01
726.944	6.06
727.26	5.74
727.576	5.44
727.892	7.02
728.208	6.59
728.524	6.17
728.84	5.95
729.156	8.5
729.472	5.87
729.787	6.24
730.103	6.31
730.419	6.43
730.734	5.61
731.05	5.31
731.365	4.38
731.681	6.78
731.996	7.15
732.311	7.83
732.626	6.21
732.942	5.98
733.257	6.55
733.572	6.63
733.887	6.57
734.202	6.46
734.517	6.27
734.832	6.45
735.146	7.39
735.461	6.58
735.776	5.66
736.091	6.92
736.405	5.76
736.72	7.44
737.034	6.9
737.349	6.64
737.663	5.55
737.977	6.56
738.292	6.02
738.606	5.24
738.92	6.11
739.234	6.15
739.548	5.91
739.862	6.16
740.176	5.99
740.49	5.1
740.804	7.34
741.117	7.08
741.431	8.47
741.745	6.6
742.058	6.57
742.372	6.47
742.685	5.95
742.999	5.11
743.312	6.27
743.626	5.17
743.939	7.66
744.252	4.63
744.565	8.29
744.878	6.05
745.191	7.38
745.505	4.74
745.817	6.82
746.13	6.26
746.443	7.49
746.756	6.62
747.069	6.23
747.381	8.44
747.694	5.94
748.007	6.62
748.319	6.62
748.632	5.51
748.944	5.12
749.256	8.99
749.569	6.83
749.881	7.3
750.193	6.05
750.505	5.37
750.817	7.96
751.129	6.33
751.441	5.32
751.753	4.46
752.065	7.62
752.377	6.48
752.689	8.77
753	7.93
753.312	3.95
753.624	3.71
753.935	8.23
754.247	5.62
754.558	7.11
754.869	7.91
755.181	7.15
755.492	4.84
755.803	6.19
756.114	5.28
756.425	6.48
756.736	7.2
757.047	5.03
757.358	9.16
757.669	8.41
757.98	4.77
758.291	6.2
758.601	5.7
758.912	6.57
759.223	5.25
759.533	6.63
759.844	8.36
760.154	8.15
760.464	7.82
760.775	5.26
761.085	7.35
761.395	7.99
761.705	5.73
762.016	7.2
762.326	8.98
762.636	7.77
762.945	6.96
763.255	6.47
763.565	5.85
763.875	7.88
764.185	7.05
764.494	8.76
764.804	6.06
765.113	6.29
765.423	6.78
765.732	6.04
766.042	6.55
766.351	6.06
766.66	6.4
766.97	7.56
767.279	5.85
767.588	5.38
767.897	6.58
768.206	6.06
768.515	6.63
768.824	6.14
769.133	5.18
769.441	5.92
769.75	6.88
770.059	8.16
770.367	7.73
770.676	9.55
770.984	8.49
771.293	5.65
771.601	6.44
771.91	7.3
772.218	11.15
772.526	7.28
772.834	6.76
773.142	6.73
773.45	5.95
773.758	7.03
774.066	7.71
774.374	4.54
774.682	8.04
774.99	7.17
775.298	2.64
775.605	7.35
775.913	6.38
776.22	6.01
776.528	8.79
776.835	10.04
777.143	4.74
777.45	9.28
777.757	5.13
778.065	10.9
778.372	9.25
778.679	10.86
778.986	6.17
779.293	9.95
779.6	5.62
779.907	4.15
780.214	8.47
780.52	8.48
780.827	7.4
781.134	4.05
781.44	11.13
781.747	7.91
782.053	6.83
782.36	5.68
782.666	5.5
782.973	6.47
783.279	3.24
783.585	9.56
783.891	7.18
784.197	6.34
784.503	7.94
784.809	4.84
785.115	6.9
785.421	8
785.727	7.46
786.033	10.54
786.339	5.33
786.644	4.59
786.95	11.29
787.255	6.93
787.561	6.88
787.866	8.54
788.172	9.03
788.477	10.22
788.782	8.05
789.088	9.76
789.393	6.26
789.698	7.22
790.003	9.64
790.308	8.73
790.613	1.76
790.918	12.16
791.223	8.57
791.527	3.83
791.832	12.21
792.137	7.48
792.441	5.04
792.746	8.69
793.05	9.08
793.355	8.08
793.659	7.65
793.963	8.71
794.268	8.02
794.572	10.24
794.876	4.96
795.18	2.04
795.484	6.55
795.788	7.78
796.092	1.72
796.396	7.43
796.7	11.41
797.004	6.43
797.307	6.63
797.611	7.23
797.915	8.22
798.218	5.35
798.522	8.04
798.825	5.21
799.128	7.11
799.432	5.78
799.735	6.95
800.038	9.68
800.341	2.47
800.644	13.72
800.947	9.97
801.25	7.17
801.553	11.35
801.856	8.85
802.159	7.4
802.462	6.75
802.764	13.06
803.067	11.59
803.37	5.28
803.672	7.25
803.975	8.3
804.277	3.88
804.579	1.52
804.882	7.55
805.184	8.88
805.486	10.23
805.788	12.6
806.09	10.84
806.392	10.64
806.694	10.94
806.996	10.09
807.298	10
807.6	10.13
807.902	8.36
808.203	13.22
808.505	12.16
808.807	3.8
809.108	4.48
809.409	10.18
809.711	3.75
810.012	10.05
810.313	4.49
810.615	7.85
810.916	10.3
811.217	11.8
811.518	2.19
811.819	8
812.12	8.4
812.421	3.81
812.722	1.72
813.023	11.95
813.323	1.63
813.624	10.76
813.925	4.09
814.225	8.68
814.526	11.74
814.826	8.04
815.126	4.48
815.427	11.27
815.727	15.08
816.027	10.47
816.327	9.74
816.627	17.27
816.927	6.4
817.227	8.73
817.527	4.45
817.827	15.22
818.127	1.24
818.427	10.5
818.727	1.91
819.026	-0.42
819.326	11.9
819.625	7.67
819.925	9.58
820.224	18.52
820.524	12.16
820.823	6.84
821.122	7.82
821.421	13.02
821.72	15.95
822.019	3.01
822.318	3.57
822.617	3.19
822.916	11.62
823.215	11.22
823.514	10.22
823.813	7.67
824.111	8.32
824.41	8.18
824.709	10.11
825.007	6.97
825.306	9.18
825.604	7.83
825.902	8.35
826.201	7.55
826.499	9.12
826.797	8.45
827.095	8.12
827.393	6.71
827.691	8.13
827.989	8.85
828.287	8.95
828.585	8.38
828.882	8.09
829.18	7.92
829.478	6.9
829.775	8.38
830.073	8.09
830.37	8.14
830.668	8.22
830.965	9.74
831.263	8.84
831.56	11.16
831.857	7.07
832.154	10.39
832.451	9.81
832.748	9.82
833.045	6.82
833.342	11.12
833.639	13.8
833.936	5.73
834.232	14.26
834.529	7.89
834.826	5.56
835.122	8.92
835.419	13.15
835.715	15.14
836.012	5.84
836.308	3.87
836.604	7.65
836.901	11.84
837.197	8.37
837.493	13.95
837.789	7.29
838.085	7.59
838.381	7.91
838.677	9.98
838.972	14.38
839.268	9.92
839.564	7.19
839.86	5.75
840.155	16.46
840.451	13.66
840.746	9.74
841.042	5.53
841.337	-2.07
841.632	9.73
841.928	0.93
842.223	17.62
842.518	9.28
842.813	-0.82
843.108	8.42
843.403	11.13
843.698	7.72
843.993	11.45
844.287	15.35
844.582	11.25
844.877	11.19
845.171	15.36
845.466	4.38
845.761	2.78
846.055	4.14
846.349	15.27
846.644	21.24
846.938	11.59
847.232	7.94
847.526	16.91
847.82	-11.59
848.114	19.81
848.408	7.76
848.702	-9.45
848.996	29.77
849.29	2.18
849.584	20.88
849.877	26.89
850.171	27.75
850.465	1.29
850.758	15.08
851.052	16.03
851.345	13.25
851.638	-2.73
851.932	22.14
852.225	7.5
852.518	11.54
852.811	10.82
853.104	20.25
853.397	9
853.69	4.7
853.983	-6.37
854.276	17.03
854.569	21.78
854.861	-3.19
855.154	30.62
855.447	17.68
855.739	12.82
856.032	-19.98
856.324	17.11
856.616	-4.08
856.909	28.66
857.201	8.23
857.493	5.02
857.785	16.1
858.077	20.98
858.369	8.05
858.661	13.37
858.953	-9.44
859.245	-14.91
859.537	5.16
859.829	11.5
860.12	38.95
860.412	22.77
860.703	18.51
860.995	17.83
861.286	-3.46
861.578	20.03
861.869	-30.25
862.16	17.28
862.452	4.63
862.743	34.86
863.034	-0.86
863.325	43.68
863.616	-7.64
863.907	7.44
864.198	14.64
864.488	4.93
864.779	10.5
865.07	10.86
865.36	-7.83
865.651	33.97
865.941	20.3
866.232	11.36
866.522	21.6
866.813	2.41
867.103	5.43
867.393	18.09
867.683	24.61
867.973	37.88
868.263	22.99
868.553	7.98
868.843	3
869.133	21.14
869.423	14.85
869.713	-5.89
870.002	23.4
870.292	-4.87
870.582	20.87
870.871	0.24
871.161	23.81
871.45	24.03
871.739	13.04
872.029	-24.72
872.318	22.89
872.607	31.25
872.896	19.59
873.185	32.54
873.474	14.87
873.763	-3.18
874.052	15.67
874.341	24.28
874.63	6.59
874.918	5.21
875.207	21.26
875.496	-23.19
875.784	-11.28
876.073	7.32
876.361	29.41
876.649	-6.43
876.938	38.79
877.226	61.09
877.514	27.56
877.802	-20.11
878.09	-23.47
878.378	32.27
878.666	8.03
878.954	22.48
879.242	25.25
879.53	12.47
879.817	9.9
880.105	11.68
880.392	30.7
880.68	22.81
880.967	9.21
881.255	20.49
881.542	-14.59
881.83	7.97
882.117	25.78
882.404	2.56
882.691	-0.25
882.978	8.72
883.265	-12.88
883.552	21.56
883.839	0.86
884.126	20.37
884.413	7.4
884.699	17.13
884.986	17.1
885.273	7.7
885.559	7.7
885.846	7.7
