Data from 97276_forehead_Reflection__1__112.txt Node

Date: Fri Sep 23 20:33:56 CDT 2022
User: ToomeyLab
Spectrometer: FLMS14357
Trigger mode: 0
Integration Time (sec): 1.000000E-2
Scans to average: 100
Electric dark correction enabled: true
Nonlinearity correction enabled: false
Boxcar width: 0
XAxis mode: Wavelengths
Number of Pixels in Spectrum: 2048
>>>>>Begin Spectral Data<<<<<
189.047	2.11
189.435	2.11
189.823	2.11
190.211	-124.62
190.599	-568.43
190.987	45.95
191.375	-52.54
191.763	61.69
192.151	123.32
192.538	73.15
192.926	78.92
193.314	27.65
193.702	40.71
194.089	95.16
194.477	137.84
194.864	-85.9
195.252	50.91
195.639	-57.5
196.027	-7.07
196.414	89.95
196.801	0.81
197.189	-127.5
197.576	114.73
197.963	-69.29
198.351	57.4
198.738	-14.53
199.125	10.8
199.512	-13.8
199.899	34.77
200.286	21.04
200.673	-9.96
201.06	68.73
201.447	57.4
201.833	60.88
202.22	-19.91
202.607	35.95
202.994	16.35
203.38	-2.07
203.767	-44.22
204.154	24.66
204.54	32.05
204.927	15.42
205.313	47.73
205.699	-29.89
206.086	-10.85
206.472	17.24
206.858	44.46
207.245	37.83
207.631	23.55
208.017	9.56
208.403	10.86
208.789	13.48
209.175	38.87
209.561	5.76
209.947	-2.38
210.333	-0.58
210.719	15.11
211.105	-9.14
211.491	33.78
211.876	3.69
212.262	10.62
212.648	2.25
213.034	-32.64
213.419	-10.78
213.805	35.02
214.19	-8.39
214.576	10.2
214.961	21.72
215.346	-31.78
215.732	26.32
216.117	-6.81
216.502	0.12
216.888	25.83
217.273	-3.39
217.658	3.69
218.043	32.87
218.428	15.87
218.813	13.39
219.198	-14.72
219.583	20.71
219.968	9.03
220.353	-0.66
220.738	2.46
221.122	7.49
221.507	11.65
221.892	13.21
222.276	5.19
222.661	-11.29
223.046	-0.56
223.43	-4.02
223.815	2.02
224.199	-2.67
224.583	3.24
224.968	0.71
225.352	7.82
225.736	-2.2
226.121	6.34
226.505	5.98
226.889	4.94
227.273	1.81
227.657	-5.05
228.041	-0.24
228.425	4.29
228.809	5.55
229.193	1.05
229.577	2.6
229.961	2.15
230.344	1.97
230.728	1.3
231.112	0.93
231.495	1.53
231.879	-0.22
232.263	2.52
232.646	1.8
233.03	0.88
233.413	2.41
233.797	1.88
234.18	2.39
234.563	2.09
234.946	2.25
235.33	0.49
235.713	3.57
236.096	-0.55
236.479	0.35
236.862	3.03
237.245	1.58
237.628	2.54
238.011	1.43
238.394	0.3
238.777	1.99
239.16	1.02
239.543	1.02
239.925	1.97
240.308	2.46
240.691	2.22
241.073	1.02
241.456	1.06
241.838	2.69
242.221	2.04
242.603	2.35
242.986	0.87
243.368	0.95
243.75	1.72
244.133	1.38
244.515	1.38
244.897	1.41
245.279	2.15
245.661	2.24
246.043	1.98
246.425	1.05
246.807	0.57
247.189	1.84
247.571	1.08
247.953	1.42
248.335	1.75
248.717	1.77
249.098	1.67
249.48	1.61
249.862	1.47
250.243	1.7
250.625	1.6
251.006	1.71
251.388	2.17
251.769	2.09
252.151	1.16
252.532	1.8
252.913	1.51
253.295	2.2
253.676	1.73
254.057	2.07
254.438	1.59
254.819	1.75
255.2	1.97
255.581	2.52
255.962	1.06
256.343	1.12
256.724	1.35
257.105	2.64
257.486	0.72
257.867	2.27
258.247	2.45
258.628	1.23
259.009	1.62
259.389	2.01
259.77	1.09
260.15	1.86
260.531	1.5
260.911	1.63
261.292	1.54
261.672	1.49
262.052	1.49
262.432	1.35
262.813	1.86
263.193	1.48
263.573	1.94
263.953	1.39
264.333	1.61
264.713	1.63
265.093	1.79
265.473	1.45
265.853	1.34
266.233	1.2
266.612	1.99
266.992	1.84
267.372	1.55
267.752	1.98
268.131	1.83
268.511	1.3
268.89	1.63
269.27	1.74
269.649	1.52
270.029	1.51
270.408	2.04
270.787	1.24
271.167	1.73
271.546	2.08
271.925	1.11
272.304	1.33
272.683	0.84
273.062	1.53
273.441	1.5
273.82	1.52
274.199	1.78
274.578	1.52
274.957	1.35
275.336	1.49
275.715	1.75
276.093	2.5
276.472	2.28
276.851	1.71
277.229	2.02
277.608	1.15
277.986	1.72
278.365	1.66
278.743	2.26
279.122	1.37
279.5	1.73
279.878	1.24
280.257	1.76
280.635	1
281.013	1.73
281.391	1.5
281.769	2.03
282.147	1.2
282.525	1.72
282.903	1.69
283.281	1.84
283.659	1.58
284.037	1.44
284.415	1.36
284.792	1.86
285.17	1.4
285.548	1.3
285.925	1.9
286.303	2.14
286.68	1.9
287.058	1.86
287.435	1.44
287.813	2.08
288.19	1.49
288.567	1.82
288.945	1.64
289.322	2.04
289.699	2.12
290.076	1.45
290.453	1.6
290.83	1.63
291.207	1.71
291.584	2.04
291.961	1.71
292.338	1.53
292.715	1.72
293.092	1.89
293.469	1.95
293.845	2.43
294.222	1.95
294.599	1.67
294.975	1.8
295.352	2.14
295.728	1.73
296.105	1.71
296.481	1.75
296.858	1.82
297.234	1.88
297.61	1.67
297.986	1.78
298.363	1.62
298.739	2.44
299.115	1.76
299.491	1.99
299.867	1.81
300.243	2.24
300.619	2.09
300.995	2.37
301.371	1.62
301.746	2.3
302.122	2.16
302.498	2.28
302.874	1.84
303.249	2.32
303.625	2.16
304	2.26
304.376	2.11
304.751	2.54
305.127	2.17
305.502	2.34
305.878	2.38
306.253	2.34
306.628	2.45
307.003	1.76
307.378	2.52
307.754	2.35
308.129	2.74
308.504	2.41
308.879	2.82
309.254	2.83
309.629	2.68
310.003	2.78
310.378	2.8
310.753	2.6
311.128	2.21
311.502	2.25
311.877	2.5
312.252	2.52
312.626	2.3
313.001	3.04
313.375	2.89
313.75	2.54
314.124	2.42
314.498	3.12
314.873	2.43
315.247	3.21
315.621	2.83
315.995	3.21
316.369	2.86
316.743	2.38
317.117	2.32
317.491	2.88
317.865	3.49
318.239	3.35
318.613	2.53
318.987	2.67
319.361	2.6
319.734	2.87
320.108	3.21
320.482	2.83
320.855	3.17
321.229	3.43
321.602	3.03
321.976	3.48
322.349	3.33
322.723	3.4
323.096	2.78
323.469	3.26
323.843	2.75
324.216	3.96
324.589	3.81
324.962	2.98
325.335	2.86
325.708	3.38
326.081	3.08
326.454	3.22
326.827	3.33
327.2	3.16
327.573	3.74
327.945	3.92
328.318	2.95
328.691	3.44
329.063	3.72
329.436	3.26
329.809	3.94
330.181	3.57
330.553	3.28
330.926	3.57
331.298	4.19
331.671	3.8
332.043	3.73
332.415	3.81
332.787	3.63
333.159	3.76
333.532	3.32
333.904	3.48
334.276	3.3
334.648	3.5
335.02	3.37
335.391	3.78
335.763	3.49
336.135	3.88
336.507	3.9
336.879	3.94
337.25	4.23
337.622	3.95
337.993	3.56
338.365	4
338.736	3.82
339.108	4.64
339.479	3.65
339.851	4.12
340.222	4.22
340.593	3.55
340.964	4.19
341.336	3.95
341.707	4.66
342.078	3.87
342.449	4.17
342.82	3.74
343.191	3.82
343.562	4.15
343.933	4.86
344.303	4.04
344.674	4.33
345.045	4.32
345.416	4.41
345.786	4.79
346.157	4.19
346.527	3.98
346.898	4.44
347.268	4.23
347.639	4.1
348.009	4.4
348.38	4.38
348.75	4.76
349.12	4.47
349.49	4.42
349.861	4.82
350.231	4.44
350.601	4.35
350.971	4.53
351.341	4.58
351.711	4.35
352.081	4.34
352.45	4.32
352.82	4.35
353.19	4.85
353.56	4.56
353.929	4.18
354.299	4.96
354.669	4.41
355.038	5.09
355.408	4.49
355.777	4.66
356.147	4.34
356.516	4.88
356.885	4.74
357.254	4.61
357.624	4.7
357.993	4.7
358.362	4.75
358.731	4.72
359.1	4.9
359.469	4.86
359.838	4.91
360.207	5.23
360.576	5.12
360.945	4.76
361.314	4.82
361.682	4.74
362.051	5.04
362.42	5.04
362.788	4.75
363.157	5.1
363.525	5.15
363.894	5.13
364.262	4.77
364.631	5.2
364.999	4.94
365.367	5.2
365.735	5.37
366.104	5.28
366.472	5.25
366.84	4.99
367.208	5.18
367.576	5.62
367.944	5.34
368.312	5.44
368.68	5.3
369.048	5.33
369.416	5.44
369.783	5.54
370.151	5.49
370.519	5.73
370.886	5.78
371.254	5.64
371.621	5.6
371.989	5.71
372.356	5.81
372.724	5.41
373.091	5.31
373.458	5.69
373.826	5.61
374.193	5.98
374.56	5.64
374.927	5.74
375.294	6.07
375.661	5.77
376.028	5.85
376.395	5.76
376.762	5.46
377.129	5.69
377.496	6.2
377.863	6.21
378.229	5.66
378.596	5.58
378.963	6.04
379.329	6.05
379.696	5.73
380.062	5.74
380.429	5.92
380.795	5.94
381.161	5.98
381.528	6.4
381.894	5.87
382.26	5.99
382.626	5.92
382.993	6.15
383.359	6.41
383.725	6.53
384.091	6.33
384.457	6.52
384.823	6.12
385.188	6.19
385.554	6.21
385.92	6.55
386.286	6.51
386.651	6.78
387.017	6.76
387.383	6.67
387.748	6.29
388.114	6.43
388.479	6.5
388.845	6.39
389.21	6.39
389.575	6.43
389.94	6.48
390.306	6.38
390.671	6.22
391.036	6.71
391.401	6.62
391.766	6.59
392.131	6.72
392.496	6.68
392.861	6.71
393.226	6.48
393.591	6.73
393.956	6.58
394.32	7.03
394.685	6.81
395.05	7.15
395.414	6.96
395.779	6.77
396.143	6.75
396.508	6.89
396.872	6.84
397.236	6.99
397.601	6.85
397.965	7.1
398.329	7.29
398.694	6.85
399.058	6.78
399.422	7.23
399.786	7.25
400.15	7.05
400.514	6.97
400.878	7.16
401.242	7.01
401.605	7.21
401.969	7.25
402.333	6.95
402.697	6.95
403.06	7.13
403.424	7.12
403.787	7.08
404.151	7.33
404.514	7.13
404.878	7.25
405.241	7.28
405.604	7.25
405.968	7.06
406.331	7.24
406.694	7.31
407.057	7.16
407.42	7.4
407.783	7.24
408.146	7.25
408.509	7.37
408.872	7.54
409.235	7.31
409.598	7.55
409.961	7.65
410.323	7.53
410.686	7.68
411.049	7.46
411.411	7.72
411.774	7.62
412.136	7.59
412.499	7.6
412.861	7.38
413.223	7.51
413.586	7.62
413.948	7.64
414.31	7.61
414.672	7.7
415.035	7.72
415.397	7.79
415.759	7.78
416.121	7.95
416.483	7.68
416.845	7.68
417.206	7.78
417.568	7.78
417.93	7.82
418.292	7.93
418.653	7.76
419.015	7.74
419.377	7.77
419.738	7.67
420.1	7.67
420.461	7.77
420.822	7.89
421.184	7.92
421.545	7.86
421.906	7.87
422.267	7.82
422.629	7.74
422.99	7.89
423.351	7.85
423.712	7.91
424.073	7.92
424.434	8.03
424.795	8.03
425.155	8.02
425.516	8.11
425.877	7.98
426.238	8.11
426.598	8.09
426.959	8.1
427.32	8.23
427.68	8.38
428.041	8.27
428.401	8.48
428.761	8.49
429.122	8.42
429.482	8.45
429.842	8.69
430.202	8.59
430.563	8.49
430.923	8.58
431.283	8.7
431.643	8.78
432.003	8.58
432.363	8.83
432.722	8.88
433.082	8.79
433.442	8.59
433.802	8.84
434.161	8.82
434.521	8.76
434.881	8.79
435.24	8.73
435.6	8.82
435.959	8.85
436.319	8.92
436.678	9
437.037	9.2
437.396	9.02
437.756	9.16
438.115	9.08
438.474	9.04
438.833	9.22
439.192	9.18
439.551	9.27
439.91	9.03
440.269	9.17
440.628	9.1
440.987	9.23
441.345	9.07
441.704	9.17
442.063	9.2
442.421	9.13
442.78	9.1
443.138	9.19
443.497	9.38
443.855	9.27
444.214	9.62
444.572	9.62
444.93	9.54
445.288	9.72
445.647	9.71
446.005	9.69
446.363	9.56
446.721	9.48
447.079	9.45
447.437	9.59
447.795	9.5
448.153	9.41
448.51	9.64
448.868	9.47
449.226	9.71
449.584	9.69
449.941	9.79
450.299	9.94
450.656	9.91
451.014	9.94
451.371	9.85
451.729	10.03
452.086	10.23
452.443	10.01
452.801	10.21
453.158	10.06
453.515	9.98
453.872	10.15
454.229	10.09
454.586	10.29
454.943	10.13
455.3	10.18
455.657	10.31
456.014	10.36
456.371	10.35
456.727	10.37
457.084	10.37
457.441	10.52
457.797	10.43
458.154	10.44
458.51	10.46
458.867	10.62
459.223	10.63
459.58	10.56
459.936	10.62
460.292	10.56
460.648	10.59
461.005	10.54
461.361	10.45
461.717	10.44
462.073	10.54
462.429	10.59
462.785	10.69
463.141	10.79
463.496	10.73
463.852	10.93
464.208	11.01
464.564	11.01
464.919	10.96
465.275	11.21
465.631	11.11
465.986	10.96
466.342	10.8
466.697	11.21
467.052	11.27
467.408	11.23
467.763	11.23
468.118	11.18
468.473	11.23
468.829	11.37
469.184	11.26
469.539	11.29
469.894	11.47
470.249	11.36
470.603	11.51
470.958	11.36
471.313	11.45
471.668	11.5
472.023	11.34
472.377	11.38
472.732	11.56
473.086	11.47
473.441	11.56
473.795	11.61
474.15	11.81
474.504	11.63
474.859	11.58
475.213	11.82
475.567	11.61
475.921	11.98
476.275	11.81
476.63	11.81
476.984	11.93
477.338	11.89
477.692	12.01
478.045	11.62
478.399	11.97
478.753	12.11
479.107	11.98
479.461	12
479.814	12.01
480.168	11.97
480.521	11.95
480.875	12.14
481.228	12.31
481.582	12.22
481.935	12.26
482.289	12.2
482.642	12.12
482.995	12.32
483.348	12.03
483.701	12.14
484.055	12.12
484.408	12.07
484.761	11.8
485.114	11.6
485.466	11.43
485.819	11.44
486.172	11.67
486.525	11.95
486.878	12.08
487.23	12.18
487.583	12.26
487.936	12.33
488.288	12.1
488.641	12.03
488.993	12.05
489.345	11.93
489.698	12.01
490.05	12.16
490.402	12.2
490.754	12.45
491.107	12.59
491.459	12.56
491.811	12.65
492.163	12.75
492.515	12.6
492.866	12.45
493.218	12.26
493.57	12.23
493.922	12.49
494.274	12.71
494.625	12.92
494.977	12.99
495.328	13.08
495.68	13.2
496.031	13.16
496.383	13.34
496.734	13.29
497.086	13.28
497.437	13.46
497.788	13.36
498.139	13.31
498.49	13.03
498.842	13.32
499.193	13.34
499.544	13.34
499.894	13.31
500.245	13.41
500.596	13.29
500.947	13.47
501.298	13.62
501.648	13.7
501.999	13.87
502.35	13.94
502.7	13.81
503.051	13.73
503.401	13.93
503.752	13.7
504.102	14.01
504.452	13.82
504.803	13.87
505.153	14.02
505.503	13.72
505.853	14.12
506.203	13.97
506.553	13.9
506.903	14.02
507.253	14.25
507.603	14.18
507.953	14.17
508.303	14.19
508.652	14.09
509.002	14.23
509.352	14.31
509.701	14.21
510.051	14.15
510.4	14.27
510.75	14.21
511.099	14.15
511.449	14.09
511.798	14.33
512.147	14.35
512.496	14.33
512.846	14.46
513.195	14.29
513.544	14.56
513.893	14.45
514.242	14.39
514.591	14.58
514.939	14.62
515.288	14.55
515.637	14.69
515.986	14.68
516.334	14.74
516.683	14.72
517.032	14.79
517.38	14.78
517.729	14.89
518.077	14.74
518.426	14.87
518.774	14.89
519.122	14.73
519.47	14.61
519.819	14.67
520.167	14.63
520.515	14.55
520.863	14.85
521.211	14.75
521.559	14.9
521.907	14.88
522.255	14.95
522.602	15.14
522.95	15.04
523.298	15.25
523.645	15.27
523.993	15.35
524.341	15.32
524.688	15.26
525.036	15.24
525.383	15.22
525.73	15.44
526.078	15.29
526.425	15.42
526.772	15.27
527.119	15.17
527.466	15.08
527.814	15.17
528.161	15.29
528.508	15.36
528.854	15.3
529.201	15.15
529.548	15.19
529.895	14.84
530.242	14.62
530.588	14.68
530.935	14.91
531.282	15.12
531.628	15.2
531.975	15.34
532.321	15.52
532.667	15.61
533.014	15.6
533.36	15.76
533.706	15.7
534.052	15.71
534.399	15.58
534.745	15.38
535.091	15.33
535.437	15.39
535.783	15.61
536.129	15.7
536.474	15.97
536.82	15.98
537.166	16.08
537.512	15.89
537.857	15.96
538.203	15.88
538.549	15.76
538.894	16.13
539.239	16.09
539.585	16.29
539.93	16.31
540.276	16.55
540.621	16.68
540.966	16.37
541.311	16.6
541.656	16.29
542.001	16.56
542.346	16.34
542.691	16.04
543.036	15.78
543.381	15.88
543.726	16.03
544.071	16.2
544.415	16.35
544.76	16.33
545.105	16.42
545.449	16.52
545.794	16.64
546.138	16.66
546.483	16.77
546.827	16.94
547.171	16.83
547.516	16.92
547.86	16.79
548.204	16.79
548.548	16.76
548.892	16.8
549.236	16.95
549.58	17.07
549.924	17.34
550.268	17.45
550.612	17.34
550.956	17.6
551.3	17.38
551.643	17.45
551.987	17.54
552.33	17.48
552.674	17.6
553.017	17.57
553.361	17.63
553.704	17.64
554.048	17.68
554.391	17.59
554.734	17.64
555.077	17.56
555.42	17.42
555.764	17.54
556.107	17.78
556.45	17.99
556.793	17.95
557.135	18.06
557.478	17.89
557.821	18.12
558.164	17.92
558.507	17.94
558.849	18.22
559.192	18.32
559.534	18.17
559.877	18.52
560.219	18.41
560.562	18.38
560.904	18.18
561.246	18.34
561.589	18.29
561.931	18.37
562.273	18.48
562.615	18.36
562.957	18.3
563.299	18.31
563.641	18.49
563.983	18.42
564.325	18.54
564.667	18.56
565.008	18.45
565.35	18.64
565.692	18.75
566.033	18.54
566.375	18.73
566.716	18.69
567.058	18.78
567.399	18.51
567.741	18.53
568.082	18.48
568.423	18.5
568.764	18.68
569.105	18.78
569.447	18.82
569.788	19.11
570.129	19.01
570.47	19.01
570.811	19.08
571.151	19.12
571.492	18.92
571.833	19.05
572.174	19.18
572.514	19.13
572.855	19.14
573.195	19.05
573.536	18.99
573.876	18.9
574.217	19.11
574.557	19.04
574.898	19.05
575.238	19.4
575.578	19.45
575.918	19.26
576.258	19.2
576.598	19.24
576.938	19.38
577.278	19.55
577.618	19.49
577.958	19.47
578.298	19.39
578.638	19.62
578.977	19.7
579.317	20.01
579.657	19.74
579.996	19.67
580.336	19.84
580.675	19.84
581.014	20.01
581.354	20.25
581.693	19.93
582.032	19.96
582.372	20.23
582.711	19.95
583.05	20.3
583.389	20.13
583.728	20.24
584.067	20.12
584.406	20.05
584.745	20.3
585.083	20.15
585.422	20.32
585.761	20.35
586.1	20.51
586.438	20.33
586.777	20.41
587.115	20.26
587.454	20.68
587.792	20.8
588.13	20.54
588.469	20.62
588.807	20.52
589.145	20.51
589.483	20.82
589.821	20.51
590.159	20.86
590.497	20.5
590.835	20.41
591.173	20.68
591.511	20.89
591.849	20.55
592.187	20.89
592.524	21.16
592.862	20.88
593.2	20.9
593.537	20.88
593.875	21.15
594.212	21.1
594.55	21.01
594.887	21.01
595.224	20.98
595.561	20.98
595.899	21.05
596.236	20.73
596.573	21.05
596.91	21.15
597.247	21.3
597.584	21
597.921	21.11
598.258	21.03
598.594	20.88
598.931	21.04
599.268	21.07
599.604	21.19
599.941	21.39
600.277	21.4
600.614	21.43
600.95	21.63
601.287	21.61
601.623	21.34
601.959	21.32
602.296	21.73
602.632	21.61
602.968	21.32
603.304	21.69
603.64	21.75
603.976	21.87
604.312	21.68
604.648	21.78
604.984	21.6
605.319	21.73
605.655	21.75
605.991	21.66
606.326	21.62
606.662	21.52
606.998	21.83
607.333	21.77
607.668	22.07
608.004	22.19
608.339	21.79
608.674	22.19
609.01	22.15
609.345	22.22
609.68	21.84
610.015	22.32
610.35	22.25
610.685	22.15
611.02	22.28
611.355	21.86
611.689	22.32
612.024	22.3
612.359	22.27
612.694	22.65
613.028	22.42
613.363	22.82
613.697	22.55
614.032	22.38
614.366	22.69
614.7	22.44
615.035	22.71
615.369	23.1
615.703	22.83
616.037	22.72
616.371	22.49
616.705	22.74
617.039	22.68
617.373	23
617.707	22.93
618.041	22.99
618.375	22.82
618.709	22.8
619.042	23.02
619.376	23.26
619.71	23.05
620.043	23.27
620.377	23
620.71	22.9
621.043	23.22
621.377	22.85
621.71	23.39
622.043	22.88
622.376	23.16
622.709	23.53
623.043	23
623.376	23.37
623.709	23.7
624.041	23.53
624.374	23.57
624.707	23.92
625.04	23.66
625.373	23.66
625.705	23.72
626.038	23.5
626.37	23.8
626.703	23.82
627.035	24.24
627.368	23.88
627.7	23.33
628.032	23.57
628.365	23.58
628.697	23.58
629.029	23.57
629.361	23.75
629.693	23.91
630.025	24.22
630.357	23.87
630.689	23.71
631.021	23.93
631.353	24.06
631.684	24.15
632.016	24.34
632.348	24.18
632.679	24.17
633.011	24.33
633.342	23.98
633.674	24.23
634.005	24.08
634.336	24.17
634.668	24.27
634.999	24.49
635.33	24.54
635.661	24.54
635.992	24.46
636.323	24.57
636.654	24.45
636.985	24.87
637.316	24.43
637.647	24.68
637.977	24.73
638.308	24.61
638.639	24.63
638.969	24.67
639.3	24.86
639.63	24.48
639.961	24.57
640.291	24.83
640.622	25.13
640.952	24.77
641.282	24.67
641.612	24.9
641.943	25.01
642.273	24.94
642.603	25.61
642.933	24.94
643.263	25.01
643.592	25.13
643.922	25.16
644.252	25.48
644.582	25.57
644.911	25.06
645.241	25.23
645.571	25.62
645.9	25.47
646.23	25.19
646.559	25.08
646.888	25.23
647.218	25.41
647.547	25.42
647.876	25.49
648.205	25.68
648.534	25.42
648.863	25.39
649.192	25.94
649.521	25.43
649.85	25.17
650.179	25.57
650.508	25.25
650.837	25.61
651.165	26.04
651.494	25.36
651.822	25.99
652.151	25.77
652.479	26.04
652.808	25.87
653.136	25.71
653.465	25.96
653.793	26.25
654.121	25.75
654.449	25.57
654.777	26.18
655.105	26
655.433	25.92
655.761	25.93
656.089	26.3
656.417	25.84
656.745	26.28
657.073	25.73
657.4	25.98
657.728	26.2
658.056	26.83
658.383	26.22
658.711	25.93
659.038	26.42
659.365	25.82
659.693	26.52
660.02	26.45
660.347	26.73
660.674	26
661.001	26.44
661.329	26.25
661.656	26.78
661.982	26.53
662.309	26.66
662.636	26.88
662.963	26.74
663.29	26.91
663.616	26.64
663.943	26.67
664.27	26.46
664.596	26.56
664.923	27
665.249	27.03
665.576	27.37
665.902	26.91
666.228	27.34
666.554	26.71
666.881	26.75
667.207	27.33
667.533	27.34
667.859	26.68
668.185	27.25
668.511	26.9
668.837	27.44
669.162	27.15
669.488	27.35
669.814	27.86
670.139	26.62
670.465	27.06
670.791	27.31
671.116	27.12
671.442	27.27
671.767	26.95
672.092	26.88
672.418	27.46
672.743	27.36
673.068	27.55
673.393	27.4
673.718	27.16
674.043	27.52
674.368	27.9
674.693	27.64
675.018	27.67
675.343	28.27
675.667	27.62
675.992	27.47
676.317	27.45
676.641	27.7
676.966	28.21
677.29	27.24
677.615	27.56
677.939	27.7
678.264	26.61
678.588	27.09
678.912	27.52
679.236	27.36
679.56	28.21
679.885	27.4
680.209	27.8
680.532	27.92
680.856	27.34
681.18	28.15
681.504	28.5
681.828	28.33
682.152	28.15
682.475	28.18
682.799	27.72
683.122	27.77
683.446	28.38
683.769	28.23
684.093	28.43
684.416	28.44
684.739	28.33
685.062	28.78
685.386	28.31
685.709	28.5
686.032	29.01
686.355	28.59
686.678	28.24
687.001	28.38
687.324	28.56
687.646	29.1
687.969	28.56
688.292	28.1
688.614	29.28
688.937	28.52
689.26	28.57
689.582	28.52
689.904	29.13
690.227	28.46
690.549	28.86
690.871	29.36
691.194	28.86
691.516	28.79
691.838	28.85
692.16	28.93
692.482	29.17
692.804	29.1
693.126	29.27
693.448	28.36
693.769	28.62
694.091	29.28
694.413	28.62
694.735	28.81
695.056	28.72
695.378	30.15
695.699	29.07
696.021	29.01
696.342	29.57
696.663	29.97
696.984	29.63
697.306	29.42
697.627	29.17
697.948	28.84
698.269	28.58
698.59	29.92
698.911	29.03
699.232	29.24
699.553	28.23
699.873	29.72
700.194	29.7
700.515	29.08
700.835	29.32
701.156	29.07
701.477	29.57
701.797	29.45
702.117	30.01
702.438	29.52
702.758	28.6
703.078	29.48
703.398	29.87
703.719	30.13
704.039	29.53
704.359	30.27
704.679	29.84
704.999	29.5
705.319	29.83
705.638	29.28
705.958	30.78
706.278	29.98
706.597	29.95
706.917	30.39
707.237	30.47
707.556	30.12
707.876	29.92
708.195	30.12
708.514	30.22
708.834	30.17
709.153	29.84
709.472	29.69
709.791	30.08
710.11	30.46
710.429	30.05
710.748	30.46
711.067	30.7
711.386	30.06
711.705	29.39
712.023	30.28
712.342	30.13
712.661	29.39
712.979	30.58
713.298	30.16
713.616	30.64
713.935	30.74
714.253	31.21
714.572	30.91
714.89	30.06
715.208	29.72
715.526	29.55
715.844	30.26
716.162	29.84
716.48	30.14
716.798	30.91
717.116	31.29
717.434	30.68
717.752	29.8
718.069	30.92
718.387	30.76
718.705	29.91
719.022	30.78
719.34	30.35
719.657	31.08
719.975	30.51
720.292	31.09
720.609	30.34
720.927	30.72
721.244	31.29
721.561	31.24
721.878	29.98
722.195	30.1
722.512	30.26
722.829	31.43
723.146	30.26
723.463	30.47
723.779	30.61
724.096	31.46
724.413	30.91
724.729	31.2
725.046	30.92
725.362	30.6
725.679	31.95
725.995	30.3
726.311	29.76
726.628	31.74
726.944	31.93
727.26	31.2
727.576	31.79
727.892	30.92
728.208	30.68
728.524	30.96
728.84	30.86
729.156	31.5
729.472	32.01
729.787	32.08
730.103	31.61
730.419	31.96
730.734	32.36
731.05	30.87
731.365	30.98
731.681	32.32
731.996	32.21
732.311	31.76
732.626	32.12
732.942	32.08
733.257	33.02
733.572	31.66
733.887	32.65
734.202	32.74
734.517	32.67
734.832	31.65
735.146	31.15
735.461	31.6
735.776	31.39
736.091	31.33
736.405	31.84
736.72	32.67
737.034	32.16
737.349	31.54
737.663	32.74
737.977	31.75
738.292	32.26
738.606	33.97
738.92	31.96
739.234	31.29
739.548	33.46
739.862	31.64
740.176	31.96
740.49	31.9
740.804	31.47
741.117	32.75
741.431	33.53
741.745	33.09
742.058	31.22
742.372	33.31
742.685	31.83
742.999	33.47
743.312	31.26
743.626	33.72
743.939	32.99
744.252	32.91
744.565	30.94
744.878	31.87
745.191	31.91
745.505	31.71
745.817	31.94
746.13	32.3
746.443	32.19
746.756	33.23
747.069	33.06
747.381	31.12
747.694	33.29
748.007	33.79
748.319	31.49
748.632	32.06
748.944	31.37
749.256	31.1
749.569	32.17
749.881	33.29
750.193	32.46
750.505	33.84
750.817	33.28
751.129	32.46
751.441	32.79
751.753	35.34
752.065	31.55
752.377	33.24
752.689	32.66
753	32.78
753.312	31.17
753.624	33.95
753.935	33.67
754.247	32.7
754.558	34.05
754.869	33.14
755.181	31.87
755.492	33.95
755.803	32.93
756.114	33.04
756.425	34.41
756.736	32.6
757.047	33.39
757.358	33.15
757.669	32.92
757.98	33.24
758.291	32.8
758.601	34.13
758.912	32.82
759.223	32.28
759.533	34.64
759.844	34.24
760.154	33.36
760.464	32.71
760.775	33.35
761.085	33.72
761.395	30.64
761.705	34.07
762.016	33.2
762.326	33.59
762.636	32.51
762.945	32.75
763.255	32.29
763.565	33.84
763.875	33.2
764.185	34.69
764.494	32.28
764.804	31.88
765.113	35.14
765.423	34.44
765.732	33.47
766.042	34.48
766.351	34.38
766.66	32.5
766.97	34.79
767.279	33.62
767.588	34.92
767.897	34.31
768.206	34.39
768.515	32.67
768.824	35.53
769.133	34.84
769.441	34.3
769.75	33.72
770.059	33.98
770.367	34.3
770.676	34.47
770.984	33.03
771.293	33.46
771.601	32.49
771.91	34.54
772.218	32.7
772.526	34.75
772.834	34.18
773.142	31.23
773.45	32.7
773.758	35.45
774.066	32.2
774.374	35.12
774.682	36.24
774.99	33.09
775.298	35.99
775.605	34.75
775.913	32.96
776.22	33.09
776.528	32.95
776.835	31.67
777.143	33.65
777.45	35.14
777.757	31.78
778.065	33.87
778.372	32.34
778.679	34.9
778.986	35.28
779.293	33.39
779.6	38.73
779.907	35.7
780.214	33.41
780.52	35.42
780.827	34.11
781.134	33.98
781.44	33.77
781.747	39.64
782.053	35.62
782.36	34.38
782.666	33.44
782.973	36.58
783.279	33.6
783.585	34.9
783.891	34.85
784.197	33
784.503	36.72
784.809	36.72
785.115	36.68
785.421	34.78
785.727	35.2
786.033	35.56
786.339	36.45
786.644	36.87
786.95	34.54
787.255	31.69
787.561	33.52
787.866	33.86
788.172	37.41
788.477	35.5
788.782	33.77
789.088	35.05
789.393	34.48
789.698	32.88
790.003	36.84
790.308	36.8
790.613	32.81
790.918	34.82
791.223	34.29
791.527	37.47
791.832	34.55
792.137	35.29
792.441	35.28
792.746	35.84
793.05	32.12
793.355	37.62
793.659	33.89
793.963	34.65
794.268	36.64
794.572	34.17
794.876	37.44
795.18	37.25
795.484	34.1
795.788	36.87
796.092	33.76
796.396	31.65
796.7	29.65
797.004	35.06
797.307	31.92
797.611	35.49
797.915	38.71
798.218	35.65
798.522	36.96
798.825	32.56
799.128	38.43
799.432	35.91
799.735	36.74
800.038	37.84
800.341	35.55
800.644	34.78
800.947	33.57
801.25	30.47
801.553	35.5
801.856	33.02
802.159	33.33
802.462	32.75
802.764	34.74
803.067	35.73
803.37	36.21
803.672	38.57
803.975	32.52
804.277	33.16
804.579	37.71
804.882	34.13
805.184	33.01
805.486	38.6
805.788	35.99
806.09	33.56
806.392	34.3
806.694	37.93
806.996	31.41
807.298	39.94
807.6	40.63
807.902	32.78
808.203	37.26
808.505	36.82
808.807	27.13
809.108	37.81
809.409	37.32
809.711	38.84
810.012	42.6
810.313	31.71
810.615	35.84
810.916	34.53
811.217	33.74
811.518	35.56
811.819	39.22
812.12	34.69
812.421	37.5
812.722	37.32
813.023	37.57
813.323	34.17
813.624	37.22
813.925	37
814.225	38.51
814.526	35.62
814.826	38.19
815.126	36.31
815.427	33.39
815.727	33.58
816.027	37.97
816.327	32.46
816.627	37.58
816.927	35.97
817.227	33.09
817.527	39.76
817.827	38.37
818.127	32.59
818.427	33.98
818.727	34.02
819.026	34.81
819.326	36.64
819.625	39.73
819.925	34.47
820.224	39.8
820.524	34.11
820.823	32.1
821.122	36.54
821.421	33.85
821.72	37.54
822.019	34.61
822.318	36.84
822.617	39.85
822.916	35.62
823.215	35.88
823.514	36.12
823.813	36.63
824.111	39.58
824.41	37.42
824.709	37.71
825.007	37.05
825.306	36.99
825.604	37.3
825.902	38.3
826.201	37.32
826.499	37.85
826.797	37.88
827.095	37.05
827.393	37.88
827.691	36.41
827.989	36.57
828.287	39.32
828.585	37.64
828.882	38.39
829.18	37.49
829.478	38.45
829.775	36.8
830.073	37.96
830.37	36.63
830.668	37.41
830.965	39.95
831.263	38.44
831.56	38.07
831.857	37.8
832.154	37.47
832.451	36.93
832.748	34.66
833.045	36.83
833.342	37.85
833.639	34.9
833.936	37.26
834.232	38.57
834.529	37
834.826	40.03
835.122	31.87
835.419	33.99
835.715	38.2
836.012	37.43
836.308	38.6
836.604	38.16
836.901	35.31
837.197	37.94
837.493	34.31
837.789	40.81
838.085	35.43
838.381	36.42
838.677	38.17
838.972	40.63
839.268	34
839.564	37.85
839.86	37.72
840.155	37.44
840.451	43.15
840.746	43.55
841.042	31.98
841.337	40.82
841.632	30.74
841.928	37.58
842.223	39.74
842.518	35.1
842.813	42.68
843.108	37.21
843.403	29.62
843.698	38.68
843.993	38.55
844.287	48.36
844.582	32.96
844.877	34.84
845.171	45.68
845.466	42.55
845.761	42.57
846.055	43.55
846.349	23.63
846.644	33.64
846.938	30.12
847.232	45.68
847.526	31.34
847.82	43.37
848.114	28.39
848.408	40.01
848.702	37.71
848.996	41.52
849.29	37.67
849.584	30.86
849.877	36.16
850.171	24.55
850.465	42.48
850.758	17.91
851.052	39.56
851.345	40.11
851.638	38.3
851.932	41.15
852.225	41.43
852.518	21.8
852.811	38.53
853.104	40.48
853.397	33.44
853.69	53.64
853.983	9.6
854.276	26.53
854.569	23.54
854.861	45.16
855.154	54.33
855.447	41.68
855.739	23.33
856.032	27.26
856.324	24.12
856.616	46.2
856.909	24.79
857.201	37.62
857.493	41.94
857.785	23.37
858.077	32.62
858.369	45.64
858.661	33.36
858.953	33.25
859.245	31.36
859.537	39.37
859.829	4.06
860.12	57.46
860.412	37.05
860.703	31.93
860.995	55.66
861.286	61.97
861.578	40.42
861.869	39.58
862.16	26.34
862.452	57
862.743	29.93
863.034	37.98
863.325	35.54
863.616	40.71
863.907	35.01
864.198	22.91
864.488	33.76
864.779	23.59
865.07	28.74
865.36	21.69
865.651	45.3
865.941	28.31
866.232	39.54
866.522	42.27
866.813	42.76
867.103	32.09
867.393	25.89
867.683	49.08
867.973	23.89
868.263	43.36
868.553	19.7
868.843	30.71
869.133	26.4
869.423	38.54
869.713	25.77
870.002	32.67
870.292	35.64
870.582	40.31
870.871	28.7
871.161	36.96
871.45	20.09
871.739	46.23
872.029	53.31
872.318	31.29
872.607	19.79
872.896	33.62
873.185	28.2
873.474	56.77
873.763	44.99
874.052	18.51
874.341	32.28
874.63	53.98
874.918	55.39
875.207	53.08
875.496	33.5
875.784	36.99
876.073	14.82
876.361	44.51
876.649	48.29
876.938	22.21
877.226	24.82
877.514	29.83
877.802	47.83
878.09	49.46
878.378	47.69
878.666	37.54
878.954	11.74
879.242	7.42
879.53	46.35
879.817	53.37
880.105	40.56
880.392	38.6
880.68	24.4
880.967	24.83
881.255	41.47
881.542	14.46
881.83	36.25
882.117	40.56
882.404	6.59
882.691	29.34
882.978	7.37
883.265	34.41
883.552	29.29
883.839	39.7
884.126	23.39
884.413	34.38
884.699	47.57
884.986	44.63
885.273	47.31
885.559	47.31
885.846	47.31
