Data from 0055_crown_Reflection__4__117.txt Node

Date: Fri Dec 16 14:51:15 CST 2022
User: ToomeyLab
Spectrometer: FLMS14357
Trigger mode: 0
Integration Time (sec): 1.000000E-2
Scans to average: 100
Electric dark correction enabled: true
Nonlinearity correction enabled: false
Boxcar width: 0
XAxis mode: Wavelengths
Number of Pixels in Spectrum: 2048
>>>>>Begin Spectral Data<<<<<
189.047	106.78
189.435	106.78
189.823	106.78
190.211	16.05
190.599	-108.81
190.987	-6.17
191.375	23.46
191.763	243.44
192.151	-116.63
192.538	78.03
192.926	-97.72
193.314	204.22
193.702	-175.29
194.089	-384.97
194.477	23.01
194.864	-37.56
195.252	-101.71
195.639	241.21
196.027	-114.26
196.414	-59.67
196.801	120.42
197.189	35.19
197.576	-20.62
197.963	-394.55
198.351	21.63
198.738	-33.42
199.125	24.26
199.512	-59.09
199.899	-66.54
200.286	-48.44
200.673	11.32
201.06	39.52
201.447	16.36
201.833	-6.96
202.22	25.87
202.607	31.53
202.994	15.11
203.38	-27.62
203.767	-47.03
204.154	-16.88
204.54	27.18
204.927	15.86
205.313	16.51
205.699	7.51
206.086	-44.78
206.472	-23.39
206.858	22.29
207.245	-7.61
207.631	-40.63
208.017	34.06
208.403	15.36
208.789	2.57
209.175	36.68
209.561	-2.52
209.947	-21.63
210.333	-33.31
210.719	-5.87
211.105	2.31
211.491	-15.64
211.876	2.44
212.262	-44.25
212.648	-57.6
213.034	-4.79
213.419	6.35
213.805	2.46
214.19	-19.5
214.576	-30.66
214.961	-18.47
215.346	-28.9
215.732	-20.26
216.117	-27.76
216.502	-7.5
216.888	-24.65
217.273	-7.36
217.658	-33.53
218.043	-23.36
218.428	-1
218.813	-6.57
219.198	-39.78
219.583	-16.83
219.968	-9.51
220.353	7.56
220.738	-13.77
221.122	-0.81
221.507	-0.65
221.892	-8.62
222.276	0.19
222.661	-2.46
223.046	11.68
223.43	-9.11
223.815	11.14
224.199	5.58
224.583	-5.6
224.968	3.51
225.352	-1.04
225.736	-0.12
226.121	-4.94
226.505	1.46
226.889	2.5
227.273	3.61
227.657	2.32
228.041	1.7
228.425	5.83
228.809	2.95
229.193	3.05
229.577	2.36
229.961	2.93
230.344	2.93
230.728	2.77
231.112	2.96
231.495	2.75
231.879	1.65
232.263	1.02
232.646	2.53
233.03	0.14
233.413	1.86
233.797	4.3
234.18	1.74
234.563	3.41
234.946	-0.54
235.33	3.33
235.713	2.55
236.096	3.16
236.479	4.23
236.862	2.23
237.245	4.38
237.628	2.86
238.011	2.16
238.394	2.85
238.777	4.25
239.16	2.11
239.543	2.03
239.925	1.71
240.308	3.72
240.691	1.49
241.073	3.11
241.456	2.15
241.838	4.58
242.221	2.96
242.603	2.93
242.986	4.47
243.368	2.92
243.75	2.83
244.133	3
244.515	2.9
244.897	3.09
245.279	2.76
245.661	2.58
246.043	3.84
246.425	2.04
246.807	2.59
247.189	2.58
247.571	2.77
247.953	2.95
248.335	3.09
248.717	3.26
249.098	3.18
249.48	2.66
249.862	3.14
250.243	2.86
250.625	3.09
251.006	3.03
251.388	4.11
251.769	2.94
252.151	3.01
252.532	2.96
252.913	3.1
253.295	2.89
253.676	3.34
254.057	2.55
254.438	2.71
254.819	3.02
255.2	2.39
255.581	2.58
255.962	2.03
256.343	3.46
256.724	2.31
257.105	2.28
257.486	2.72
257.867	1.79
258.247	2.8
258.628	3.5
259.009	2.91
259.389	2.63
259.77	2.72
260.15	3.32
260.531	2.95
260.911	2.87
261.292	2.9
261.672	2.74
262.052	2.75
262.432	2.67
262.813	3.22
263.193	2.74
263.573	2.98
263.953	2.78
264.333	2.68
264.713	2.52
265.093	2.49
265.473	2.68
265.853	2.95
266.233	2.53
266.612	2.81
266.992	2.63
267.372	2.98
267.752	2.53
268.131	2.82
268.511	3.22
268.89	2.85
269.27	2.98
269.649	2.79
270.029	2.92
270.408	2.58
270.787	2.15
271.167	3.1
271.546	2.32
271.925	3.01
272.304	3.08
272.683	2.72
273.062	3.18
273.441	2.88
273.82	2.89
274.199	2.89
274.578	2.19
274.957	2.91
275.336	2.36
275.715	3.03
276.093	3.22
276.472	2.23
276.851	3.18
277.229	2.96
277.608	2.37
277.986	2.69
278.365	2.17
278.743	2.9
279.122	2.02
279.5	2.45
279.878	2.14
280.257	2.37
280.635	2.47
281.013	3.02
281.391	2.43
281.769	2.77
282.147	2.8
282.525	2.49
282.903	2.95
283.281	2.69
283.659	2.53
284.037	2.83
284.415	2.78
284.792	2.79
285.17	2.62
285.548	2.74
285.925	2.47
286.303	2.76
286.68	2.76
287.058	2.19
287.435	2.35
287.813	2.51
288.19	2.94
288.567	2.34
288.945	3.02
289.322	2.52
289.699	2.79
290.076	3.08
290.453	2.48
290.83	3.1
291.207	2.78
291.584	2.16
291.961	2.69
292.338	2.52
292.715	2.48
293.092	2.53
293.469	2.66
293.845	2.97
294.222	2.46
294.599	2.88
294.975	2.64
295.352	2.41
295.728	2.91
296.105	2.81
296.481	2.67
296.858	2.83
297.234	2.54
297.61	2.6
297.986	3.01
298.363	2.28
298.739	2.92
299.115	2.34
299.491	2.67
299.867	2.99
300.243	2.56
300.619	2.16
300.995	2.88
301.371	3.04
301.746	2.79
302.122	2.85
302.498	2.67
302.874	2.78
303.249	2.85
303.625	2.66
304	2.56
304.376	2.72
304.751	2.76
305.127	2.95
305.502	3.32
305.878	2.71
306.253	2.62
306.628	3.16
307.003	2.98
307.378	2.22
307.754	3.05
308.129	2.35
308.504	2.53
308.879	2.45
309.254	2.85
309.629	2.71
310.003	3.17
310.378	2.91
310.753	2.63
311.128	3.07
311.502	2.45
311.877	2.68
312.252	2.79
312.626	2.77
313.001	2.62
313.375	2.81
313.75	2.67
314.124	2.98
314.498	2.51
314.873	2.63
315.247	2.94
315.621	2.96
315.995	2.77
316.369	2.82
316.743	2.9
317.117	3.23
317.491	2.92
317.865	2.38
318.239	2.98
318.613	2.82
318.987	3.39
319.361	2.79
319.734	2.32
320.108	3.33
320.482	2.49
320.855	2.67
321.229	3.1
321.602	3.19
321.976	2.43
322.349	2.21
322.723	2.43
323.096	2.09
323.469	2.7
323.843	3.1
324.216	2.59
324.589	2.95
324.962	3.19
325.335	2.91
325.708	3.06
326.081	3.22
326.454	2.96
326.827	3.3
327.2	2.96
327.573	2.86
327.945	2.89
328.318	3.28
328.691	3.47
329.063	2.25
329.436	2.55
329.809	2.57
330.181	2.52
330.553	2.79
330.926	3.07
331.298	2.74
331.671	2.51
332.043	3.03
332.415	2.66
332.787	2.94
333.159	2.82
333.532	2.85
333.904	3.3
334.276	3.5
334.648	3.38
335.02	3.01
335.391	3.13
335.763	2.48
336.135	3.02
336.507	3.29
336.879	2.69
337.25	3.01
337.622	3.32
337.993	3.37
338.365	2.9
338.736	2.51
339.108	2.85
339.479	2.95
339.851	3.44
340.222	3.28
340.593	3.18
340.964	2.79
341.336	2.88
341.707	2.78
342.078	2.77
342.449	3.35
342.82	2.89
343.191	2.77
343.562	2.99
343.933	2.92
344.303	3.33
344.674	3.31
345.045	2.95
345.416	3.47
345.786	2.74
346.157	3.49
346.527	2.37
346.898	3.09
347.268	2.92
347.639	2.57
348.009	3.51
348.38	3.18
348.75	2.88
349.12	3.43
349.49	2.81
349.861	3.31
350.231	3.08
350.601	3.06
350.971	3.22
351.341	3.35
351.711	3.14
352.081	2.77
352.45	3.18
352.82	2.82
353.19	3.04
353.56	3.43
353.929	3.32
354.299	2.79
354.669	2.89
355.038	2.87
355.408	3.18
355.777	2.78
356.147	3.34
356.516	3.18
356.885	2.91
357.254	3.16
357.624	3.24
357.993	3.21
358.362	3.33
358.731	3.1
359.1	3.13
359.469	3.06
359.838	2.9
360.207	2.95
360.576	3.13
360.945	3.02
361.314	3.18
361.682	2.72
362.051	2.89
362.42	3.25
362.788	3.25
363.157	2.86
363.525	3.04
363.894	3.03
364.262	2.94
364.631	3.45
364.999	2.85
365.367	3.34
365.735	2.45
366.104	2.9
366.472	2.98
366.84	3.12
367.208	2.47
367.576	2.97
367.944	3.07
368.312	2.5
368.68	3.3
369.048	3.33
369.416	3.11
369.783	3.07
370.151	3.38
370.519	3.03
370.886	3.12
371.254	3.19
371.621	3.2
371.989	3.13
372.356	2.96
372.724	3.09
373.091	3.05
373.458	3.07
373.826	3.02
374.193	3.42
374.56	3.11
374.927	2.99
375.294	3.17
375.661	3.36
376.028	3.21
376.395	3
376.762	3.23
377.129	3.29
377.496	3.31
377.863	3.06
378.229	3.02
378.596	2.96
378.963	2.96
379.329	3.24
379.696	2.91
380.062	3.24
380.429	2.9
380.795	2.92
381.161	3.06
381.528	2.92
381.894	3.47
382.26	3.03
382.626	2.69
382.993	2.88
383.359	3
383.725	3.23
384.091	3.23
384.457	3.2
384.823	3.14
385.188	3.54
385.554	3.29
385.92	3.13
386.286	3.32
386.651	2.99
387.017	3.59
387.383	3.3
387.748	3.03
388.114	3.09
388.479	3.32
388.845	3.31
389.21	3.31
389.575	3.32
389.94	3.28
390.306	3.05
390.671	3.02
391.036	3.26
391.401	3.56
391.766	3.07
392.131	3.25
392.496	3.17
392.861	3.12
393.226	3.28
393.591	3.11
393.956	3.15
394.32	3.16
394.685	3.45
395.05	3.04
395.414	3.23
395.779	3.02
396.143	3.3
396.508	3.37
396.872	3.24
397.236	3.1
397.601	3.17
397.965	2.67
398.329	3.38
398.694	2.83
399.058	3.51
399.422	3.14
399.786	3.14
400.15	3.12
400.514	3.17
400.878	3.33
401.242	3.51
401.605	3.17
401.969	3.28
402.333	3.36
402.697	3.28
403.06	3.53
403.424	3.21
403.787	3.24
404.151	3.1
404.514	3.39
404.878	3.38
405.241	3.44
405.604	3.32
405.968	3.23
406.331	3.16
406.694	3.31
407.057	3.8
407.42	3.33
407.783	3.16
408.146	3.32
408.509	3.2
408.872	2.92
409.235	3.09
409.598	3.36
409.961	3.39
410.323	3.3
410.686	3.09
411.049	3.24
411.411	3.3
411.774	3.31
412.136	3.5
412.499	3.51
412.861	3.06
413.223	3.3
413.586	3.39
413.948	3.28
414.31	3.4
414.672	3.4
415.035	3.4
415.397	3.43
415.759	3.23
416.121	3.43
416.483	3.56
416.845	3.38
417.206	3.37
417.568	3.51
417.93	3.36
418.292	3.36
418.653	3.39
419.015	3.41
419.377	3.39
419.738	3.31
420.1	3.28
420.461	3.3
420.822	3.37
421.184	3.24
421.545	3.26
421.906	3.32
422.267	3.11
422.629	3.27
422.99	3.32
423.351	3.45
423.712	3.28
424.073	3.38
424.434	3.33
424.795	3.25
425.155	3.39
425.516	3.19
425.877	3.32
426.238	3.18
426.598	3.37
426.959	3.28
427.32	3.41
427.68	3.4
428.041	3.47
428.401	3.4
428.761	3.31
429.122	3.38
429.482	3.45
429.842	3.45
430.202	3.38
430.563	3.34
430.923	3.38
431.283	3.33
431.643	3.4
432.003	3.53
432.363	3.49
432.722	3.28
433.082	3.41
433.442	3.31
433.802	3.49
434.161	3.36
434.521	3.41
434.881	3.48
435.24	3.17
435.6	3.49
435.959	3.32
436.319	3.43
436.678	3.38
437.037	3.45
437.396	3.44
437.756	3.55
438.115	3.49
438.474	3.52
438.833	3.56
439.192	3.53
439.551	3.58
439.91	3.56
440.269	3.54
440.628	3.36
440.987	3.36
441.345	3.3
441.704	3.33
442.063	3.45
442.421	3.54
442.78	3.43
443.138	3.45
443.497	3.38
443.855	3.43
444.214	3.43
444.572	3.33
444.93	3.52
445.288	3.57
445.647	3.5
446.005	3.35
446.363	3.35
446.721	3.18
447.079	3.41
447.437	3.44
447.795	3.4
448.153	3.35
448.51	3.37
448.868	3.39
449.226	3.49
449.584	3.46
449.941	3.46
450.299	3.47
450.656	3.51
451.014	3.4
451.371	3.55
451.729	3.55
452.086	3.39
452.443	3.42
452.801	3.63
453.158	3.37
453.515	3.33
453.872	3.6
454.229	3.5
454.586	3.59
454.943	3.4
455.3	3.65
455.657	3.46
456.014	3.65
456.371	3.62
456.727	3.5
457.084	3.48
457.441	3.4
457.797	3.45
458.154	3.5
458.51	3.56
458.867	3.46
459.223	3.54
459.58	3.44
459.936	3.51
460.292	3.57
460.648	3.36
461.005	3.35
461.361	3.43
461.717	3.48
462.073	3.53
462.429	3.67
462.785	3.6
463.141	3.58
463.496	3.5
463.852	3.7
464.208	3.52
464.564	3.41
464.919	3.69
465.275	3.73
465.631	3.52
465.986	3.4
466.342	3.54
466.697	3.46
467.052	3.67
467.408	3.43
467.763	3.51
468.118	3.61
468.473	3.76
468.829	3.58
469.184	3.65
469.539	3.39
469.894	3.5
470.249	3.76
470.603	3.62
470.958	3.77
471.313	3.56
471.668	3.68
472.023	3.73
472.377	3.57
472.732	3.64
473.086	3.53
473.441	3.78
473.795	3.65
474.15	3.44
474.504	3.53
474.859	3.54
475.213	3.49
475.567	3.62
475.921	3.62
476.275	3.71
476.63	3.74
476.984	3.6
477.338	3.87
477.692	3.61
478.045	3.66
478.399	3.77
478.753	3.52
479.107	3.66
479.461	3.61
479.814	3.66
480.168	3.69
480.521	3.66
480.875	3.85
481.228	3.78
481.582	3.59
481.935	3.59
482.289	3.54
482.642	3.71
482.995	3.61
483.348	3.55
483.701	3.6
484.055	3.56
484.408	3.53
484.761	3.4
485.114	3.32
485.466	3.34
485.819	3.41
486.172	3.52
486.525	3.64
486.878	3.6
487.23	3.62
487.583	3.59
487.936	3.51
488.288	3.5
488.641	3.5
488.993	3.39
489.345	3.47
489.698	3.52
490.05	3.57
490.402	3.62
490.754	3.66
491.107	3.68
491.459	3.73
491.811	3.72
492.163	3.72
492.515	3.58
492.866	3.41
493.218	3.51
493.57	3.58
493.922	3.6
494.274	3.72
494.625	3.65
494.977	3.65
495.328	3.79
495.68	3.92
496.031	3.81
496.383	3.72
496.734	3.8
497.086	3.66
497.437	3.78
497.788	3.67
498.139	3.72
498.49	3.71
498.842	3.69
499.193	3.73
499.544	3.79
499.894	3.77
500.245	3.8
500.596	3.73
500.947	3.8
501.298	3.7
501.648	3.81
501.999	3.85
502.35	3.85
502.7	3.77
503.051	3.76
503.401	3.89
503.752	3.68
504.102	3.73
504.452	3.67
504.803	3.71
505.153	3.79
505.503	3.81
505.853	3.7
506.203	3.76
506.553	3.89
506.903	3.75
507.253	3.68
507.603	3.77
507.953	3.97
508.303	3.85
508.652	3.69
509.002	3.73
509.352	3.74
509.701	3.84
510.051	3.7
510.4	3.66
510.75	3.79
511.099	3.73
511.449	3.73
511.798	3.93
512.147	3.81
512.496	3.85
512.846	3.77
513.195	3.86
513.544	3.72
513.893	3.59
514.242	3.82
514.591	3.84
514.939	3.79
515.288	3.7
515.637	3.87
515.986	3.75
516.334	3.93
516.683	3.93
517.032	3.79
517.38	3.89
517.729	3.72
518.077	3.83
518.426	3.71
518.774	3.74
519.122	3.74
519.47	3.77
519.819	3.78
520.167	3.75
520.515	3.69
520.863	3.79
521.211	3.84
521.559	3.79
521.907	3.75
522.255	3.81
522.602	3.86
522.95	3.85
523.298	3.8
523.645	3.8
523.993	3.86
524.341	3.75
524.688	3.89
525.036	3.86
525.383	3.84
525.73	3.82
526.078	3.93
526.425	3.75
526.772	3.59
527.119	3.71
527.466	3.74
527.814	3.7
528.161	3.85
528.508	3.73
528.854	3.7
529.201	3.73
529.548	3.64
529.895	3.57
530.242	3.56
530.588	3.69
530.935	3.71
531.282	3.8
531.628	3.81
531.975	3.78
532.321	3.79
532.667	3.82
533.014	3.78
533.36	3.79
533.706	3.72
534.052	3.74
534.399	3.69
534.745	3.64
535.091	3.66
535.437	3.76
535.783	3.88
536.129	3.89
536.474	3.91
536.82	3.8
537.166	3.76
537.512	3.83
537.857	3.72
538.203	3.78
538.549	3.86
538.894	3.84
539.239	3.94
539.585	3.96
539.93	3.93
540.276	3.87
540.621	3.98
540.966	3.78
541.311	3.89
541.656	3.78
542.001	3.86
542.346	3.8
542.691	3.65
543.036	3.67
543.381	3.77
543.726	3.77
544.071	3.89
544.415	3.82
544.76	3.72
545.105	3.84
545.449	3.77
545.794	3.86
546.138	3.99
546.483	3.87
546.827	3.96
547.171	3.84
547.516	4.01
547.86	3.86
548.204	3.88
548.548	4.01
548.892	3.86
549.236	3.93
549.58	4.08
549.924	3.99
550.268	4.15
550.612	4.03
550.956	3.89
551.3	3.95
551.643	3.99
551.987	3.9
552.33	3.94
552.674	4.01
553.017	4.03
553.361	4.1
553.704	3.95
554.048	4.06
554.391	3.93
554.734	4.03
555.077	3.94
555.42	3.88
555.764	3.97
556.107	3.95
556.45	3.9
556.793	4.17
557.135	4.03
557.478	4.12
557.821	3.88
558.164	3.98
558.507	3.98
558.849	3.7
559.192	4.23
559.534	3.86
559.877	4.12
560.219	4.2
560.562	4.09
560.904	4.03
561.246	4.02
561.589	3.99
561.931	4.1
562.273	3.93
562.615	4.12
562.957	4.15
563.299	4.16
563.641	4.11
563.983	3.98
564.325	4
564.667	4
565.008	3.93
565.35	4.19
565.692	4.15
566.033	3.89
566.375	3.83
566.716	3.98
567.058	4.09
567.399	3.95
567.741	4.06
568.082	3.95
568.423	3.98
568.764	4.12
569.105	4.15
569.447	4.28
569.788	4.06
570.129	3.97
570.47	4.24
570.811	4.11
571.151	3.96
571.492	4.25
571.833	4.03
572.174	3.93
572.514	4
572.855	4.17
573.195	4
573.536	4.02
573.876	3.99
574.217	4.1
574.557	4.09
574.898	3.98
575.238	3.99
575.578	4.21
575.918	3.96
576.258	4.11
576.598	3.92
576.938	4.12
577.278	4.06
577.618	4.01
577.958	4.07
578.298	4.17
578.638	4.14
578.977	4.2
579.317	4.18
579.657	4.15
579.996	4.19
580.336	4.03
580.675	4.25
581.014	4.17
581.354	4.18
581.693	4.08
582.032	3.97
582.372	4.02
582.711	4.31
583.05	4.25
583.389	4.4
583.728	4.23
584.067	4.33
584.406	4.16
584.745	4.12
585.083	4.35
585.422	4.25
585.761	4.31
586.1	4.41
586.438	4.01
586.777	4.15
587.115	4.02
587.454	4.23
587.792	4.02
588.13	4.36
588.469	4.17
588.807	4.31
589.145	4.27
589.483	4.01
589.821	4.25
590.159	3.92
590.497	3.99
590.835	3.96
591.173	4.29
591.511	4.32
591.849	4.28
592.187	4.23
592.524	4.02
592.862	4.07
593.2	4.11
593.537	4.37
593.875	4.07
594.212	4.19
594.55	4.34
594.887	4.43
595.224	4.09
595.561	4.05
595.899	4.22
596.236	4.19
596.573	4.02
596.91	4.41
597.247	4.1
597.584	4.39
597.921	4.32
598.258	4.27
598.594	3.89
598.931	4.03
599.268	4.12
599.604	4.33
599.941	4.27
600.277	4.25
600.614	4.3
600.95	4.24
601.287	4.26
601.623	4.29
601.959	4.28
602.296	4.31
602.632	4.54
602.968	4.05
603.304	4.26
603.64	4.15
603.976	4.1
604.312	4.4
604.648	4.5
604.984	4.29
605.319	4.19
605.655	4.33
605.991	4.28
606.326	4.11
606.662	4.18
606.998	4.17
607.333	4.11
607.668	4.16
608.004	4.33
608.339	4.07
608.674	4.29
609.01	4.26
609.345	4.33
609.68	4.12
610.015	4.38
610.35	4.26
610.685	4.34
611.02	4.4
611.355	4.27
611.689	4.23
612.024	4.37
612.359	4.42
612.694	4.61
613.028	4.54
613.363	4.08
613.697	4.42
614.032	4.49
614.366	4.01
614.7	4.64
615.035	4.24
615.369	4.28
615.703	4.64
616.037	4.59
616.371	4.39
616.705	4.32
617.039	4.64
617.373	4.37
617.707	4.18
618.041	4.84
618.375	4.19
618.709	4.27
619.042	4.32
619.376	4.34
619.71	4.42
620.043	4.42
620.377	4.12
620.71	4.39
621.043	4.27
621.377	4.38
621.71	4.35
622.043	4.21
622.376	4.42
622.709	4.75
623.043	4.21
623.376	4.36
623.709	4.29
624.041	4.39
624.374	4.43
624.707	4.6
625.04	4.52
625.373	4.26
625.705	4.5
626.038	4.26
626.37	4.53
626.703	4.36
627.035	4.15
627.368	4.51
627.7	4.41
628.032	4.47
628.365	4.27
628.697	4.36
629.029	4.66
629.361	4.26
629.693	4.56
630.025	4.37
630.357	4.59
630.689	4.67
631.021	4.2
631.353	4.67
631.684	4.55
632.016	4.32
632.348	4.8
632.679	4.55
633.011	4.25
633.342	4.33
633.674	4.07
634.005	4.59
634.336	4.33
634.668	4.45
634.999	4.83
635.33	4.38
635.661	4.86
635.992	4.35
636.323	4.71
636.654	4.5
636.985	4.35
637.316	4.68
637.647	4.78
637.977	4.44
638.308	4.49
638.639	4.16
638.969	4.44
639.3	4.79
639.63	4.4
639.961	4.22
640.291	4.93
640.622	4.26
640.952	4.84
641.282	4.42
641.612	4.12
641.943	4.88
642.273	4.66
642.603	4.59
642.933	4.96
643.263	4.95
643.592	4.66
643.922	4.86
644.252	4.58
644.582	4.93
644.911	4.38
645.241	4.28
645.571	4.68
645.9	4.89
646.23	4.89
646.559	4.83
646.888	4.41
647.218	4.3
647.547	5.11
647.876	4.55
648.205	4.16
648.534	4.82
648.863	5.09
649.192	4.56
649.521	4.42
649.85	4.9
650.179	4.74
650.508	4.31
650.837	4.54
651.165	4.65
651.494	4.41
651.822	4.5
652.151	4.43
652.479	5.18
652.808	4.51
653.136	4.26
653.465	5.09
653.793	4.7
654.121	4.76
654.449	4.3
654.777	4.25
655.105	5.02
655.433	4.94
655.761	4.5
656.089	4.73
656.417	4.3
656.745	5.35
657.073	5.25
657.4	5.35
657.728	4.52
658.056	4.61
658.383	4.91
658.711	4.86
659.038	5.19
659.365	4.71
659.693	4.7
660.02	4.44
660.347	4.81
660.674	4.64
661.001	4.6
661.329	4.67
661.656	4.47
661.982	5.05
662.309	4.85
662.636	4.75
662.963	4.94
663.29	4.56
663.616	5.4
663.943	5.23
664.27	4.85
664.596	4.93
664.923	4.85
665.249	5.37
665.576	4.62
665.902	4.65
666.228	4.63
666.554	4.19
666.881	4.84
667.207	4.72
667.533	5.35
667.859	4.47
668.185	4.92
668.511	4.35
668.837	3.82
669.162	4.76
669.488	4.61
669.814	5.19
670.139	5.68
670.465	5.05
670.791	5.16
671.116	4.44
671.442	4.73
671.767	4.92
672.092	5.3
672.418	5.03
672.743	4.81
673.068	5.14
673.393	5.31
673.718	4.42
674.043	5.45
674.368	5.37
674.693	5.13
675.018	4.42
675.343	5.13
675.667	5.2
675.992	4.37
676.317	5.43
676.641	5.52
676.966	5.07
677.29	4.96
677.615	4.56
677.939	4.89
678.264	5.22
678.588	5.11
678.912	5.27
679.236	4.97
679.56	4.8
679.885	5.41
680.209	4.45
680.532	4.56
680.856	5.25
681.18	4.68
681.504	4.46
681.828	4.42
682.152	4.77
682.475	4.97
682.799	5.38
683.122	5.1
683.446	4.78
683.769	4.5
684.093	4.95
684.416	4.68
684.739	5.26
685.062	4.98
685.386	5.1
685.709	4.91
686.032	4.89
686.355	4.45
686.678	5.42
687.001	4.65
687.324	4.83
687.646	4.98
687.969	5.39
688.292	5.26
688.614	6.04
688.937	5.07
689.26	4.56
689.582	4.75
689.904	5.37
690.227	5.49
690.549	5.49
690.871	5.14
691.194	5.42
691.516	4.67
691.838	4.76
692.16	5.17
692.482	5.29
692.804	4.59
693.126	4.73
693.448	5.23
693.769	5.11
694.091	5.32
694.413	5.11
694.735	5.42
695.056	5.22
695.378	4.88
695.699	5.92
696.021	5.22
696.342	4.94
696.663	4.34
696.984	5.23
697.306	5.35
697.627	4.39
697.948	5
698.269	5.07
698.59	5.65
698.911	5.06
699.232	5.7
699.553	4.91
699.873	4.86
700.194	5
700.515	4.94
700.835	4.99
701.156	5.13
701.477	5.22
701.797	4.95
702.117	5.78
702.438	5.53
702.758	5.51
703.078	5.19
703.398	5.61
703.719	5.26
704.039	5.09
704.359	5.47
704.679	4.43
704.999	4.57
705.319	5.54
705.638	6.3
705.958	5.73
706.278	5.72
706.597	4.79
706.917	6.01
707.237	5.23
707.556	5.81
707.876	5.4
708.195	5.28
708.514	4.89
708.834	5.37
709.153	5.99
709.472	5.16
709.791	4.98
710.11	5.82
710.429	4.58
710.748	5.7
711.067	5.94
711.386	5.8
711.705	4.27
712.023	5.43
712.342	5.04
712.661	5.82
712.979	6.17
713.298	6.19
713.616	5.94
713.935	5.23
714.253	6.29
714.572	4.58
714.89	5.12
715.208	6.07
715.526	6.3
715.844	4.66
716.162	5.2
716.48	5.4
716.798	6.27
717.116	6.82
717.434	6.12
717.752	5.52
718.069	5.63
718.387	6.24
718.705	5.36
719.022	6.52
719.34	3.68
719.657	5.19
719.975	5.68
720.292	5.62
720.609	5
720.927	5.95
721.244	5.45
721.561	5.69
721.878	5.51
722.195	6.31
722.512	5.96
722.829	5.28
723.146	5.45
723.463	5.5
723.779	3.8
724.096	5.19
724.413	5.63
724.729	6.15
725.046	5.41
725.362	4.2
725.679	6.75
725.995	5.31
726.311	6.28
726.628	5.78
726.944	6.72
727.26	5
727.576	5.78
727.892	5.59
728.208	6.02
728.524	6.51
728.84	5.54
729.156	6.67
729.472	6.76
729.787	5.92
730.103	4.59
730.419	6.62
730.734	5.1
731.05	6
731.365	6.32
731.681	5.18
731.996	4.19
732.311	5.49
732.626	5.82
732.942	6.09
733.257	6.14
733.572	5.65
733.887	5.77
734.202	5.54
734.517	5.04
734.832	5.59
735.146	6.11
735.461	5.86
735.776	7.12
736.091	7.34
736.405	6.32
736.72	5.83
737.034	4.84
737.349	5.86
737.663	6.7
737.977	5.46
738.292	7.1
738.606	5.73
738.92	7.27
739.234	6.7
739.548	7.62
739.862	6.66
740.176	5.28
740.49	5.95
740.804	6.19
741.117	7.32
741.431	4.42
741.745	5.37
742.058	5.75
742.372	6.04
742.685	4.96
742.999	8.12
743.312	5.15
743.626	5.09
743.939	4.86
744.252	4.14
744.565	5.69
744.878	6.27
745.191	6.11
745.505	5.68
745.817	8.69
746.13	7.07
746.443	5.28
746.756	6.87
747.069	6.77
747.381	6.34
747.694	5.49
748.007	8.04
748.319	6.96
748.632	5.53
748.944	5.89
749.256	8.13
749.569	4.78
749.881	5.22
750.193	5.41
750.505	7.93
750.817	6.96
751.129	5.67
751.441	6.06
751.753	7.23
752.065	6.48
752.377	5.93
752.689	7.09
753	4.32
753.312	6.07
753.624	7.07
753.935	4.97
754.247	6.09
754.558	6.21
754.869	6.24
755.181	5.08
755.492	8.02
755.803	5.27
756.114	6.38
756.425	5.41
756.736	5.21
757.047	8.05
757.358	5.26
757.669	7.45
757.98	5.81
758.291	8.05
758.601	6.51
758.912	5.33
759.223	7.72
759.533	6.14
759.844	5.35
760.154	7.9
760.464	8.81
760.775	8.33
761.085	5.72
761.395	8.35
761.705	7.03
762.016	7
762.326	6.21
762.636	5.58
762.945	6.51
763.255	6.3
763.565	4.68
763.875	6.14
764.185	6.6
764.494	5.72
764.804	5.93
765.113	6.69
765.423	7.14
765.732	6.12
766.042	6.4
766.351	7.74
766.66	7.09
766.97	6.76
767.279	8.49
767.588	8.38
767.897	8.24
768.206	7.79
768.515	6.32
768.824	7.93
769.133	6.14
769.441	7.7
769.75	5.54
770.059	6.65
770.367	5.04
770.676	4.82
770.984	8.71
771.293	4.89
771.601	6.49
771.91	6.43
772.218	4.24
772.526	5.66
772.834	9.89
773.142	5.23
773.45	4.49
773.758	6.61
774.066	4.92
774.374	5.87
774.682	3.98
774.99	5.43
775.298	6.42
775.605	6.86
775.913	4.93
776.22	5.32
776.528	5.14
776.835	5.97
777.143	6.93
777.45	6.63
777.757	4.48
778.065	6.31
778.372	4.4
778.679	8.55
778.986	7.41
779.293	7.2
779.6	3.79
779.907	4.79
780.214	7.7
780.52	8.46
780.827	8.21
781.134	8.16
781.44	5.13
781.747	6.34
782.053	7.2
782.36	3.83
782.666	5.63
782.973	6.5
783.279	5.93
783.585	5.93
783.891	7.77
784.197	-0.43
784.503	7.3
784.809	7.69
785.115	5.97
785.421	10.69
785.727	7.44
786.033	6.45
786.339	9.12
786.644	8.54
786.95	7.92
787.255	10.21
787.561	12.88
787.866	3.16
788.172	6.27
788.477	2.81
788.782	2.57
789.088	9.03
789.393	5.77
789.698	4.36
790.003	4.91
790.308	4.89
790.613	10.07
790.918	11.51
791.223	5.96
791.527	9.43
791.832	7.87
792.137	7.69
792.441	8.65
792.746	6.82
793.05	5.94
793.355	9.69
793.659	6.68
793.963	7.85
794.268	9.08
794.572	11.49
794.876	9.24
795.18	5.1
795.484	6.25
795.788	5.9
796.092	7.53
796.396	6.63
796.7	9.46
797.004	12.31
797.307	8.71
797.611	4.72
797.915	3.09
798.218	7.21
798.522	3.41
798.825	9.31
799.128	7.32
799.432	8.12
799.735	6
800.038	4.66
800.341	9.11
800.644	8.06
800.947	8.13
801.25	4.55
801.553	6.67
801.856	6.18
802.159	4.55
802.462	7.54
802.764	5.55
803.067	7.21
803.37	5.08
803.672	6.75
803.975	6.55
804.277	4.99
804.579	9.24
804.882	8.65
805.184	5.98
805.486	6.31
805.788	8.37
806.09	2.62
806.392	7.52
806.694	6.45
806.996	9.35
807.298	1.52
807.6	5.97
807.902	8.57
808.203	6.87
808.505	5.55
808.807	14.9
809.108	6.18
809.409	2.97
809.711	6.72
810.012	5.05
810.313	6.18
810.615	6.64
810.916	8.65
811.217	7.55
811.518	12.9
811.819	6.27
812.12	6.62
812.421	8.19
812.722	6.61
813.023	11.21
813.323	13.4
813.624	7.94
813.925	9.98
814.225	1.56
814.526	10.78
814.826	15.71
815.126	9.76
815.427	10.19
815.727	4.66
816.027	9.61
816.327	-1.17
816.627	0.68
816.927	7.28
817.227	9.56
817.527	5.65
817.827	5.89
818.127	14.29
818.427	4.13
818.727	10.3
819.026	12.13
819.326	8.5
819.625	3.8
819.925	6.94
820.224	5.82
820.524	8.01
820.823	3.62
821.122	5.49
821.421	9.45
821.72	11.98
822.019	5.88
822.318	5.52
822.617	7.58
822.916	6.18
823.215	6.91
823.514	8.39
823.813	9
824.111	7.95
824.41	7.26
824.709	9.54
825.007	9.74
825.306	8
825.604	10.36
825.902	9.28
826.201	9.15
826.499	8.31
826.797	9.54
827.095	7.12
827.393	10.04
827.691	10.41
827.989	8.86
828.287	10.44
828.585	7.5
828.882	7.84
829.18	7.65
829.478	9.59
829.775	10.59
830.073	11.27
830.37	7.62
830.668	9.73
830.965	6.36
831.263	8.53
831.56	10.75
831.857	11.1
832.154	8.27
832.451	4.94
832.748	9.82
833.045	14.63
833.342	7.99
833.639	6.25
833.936	11.1
834.232	4.79
834.529	8.07
834.826	1.65
835.122	8.92
835.419	4.82
835.715	7.63
836.012	9.89
836.308	11.25
836.604	6.86
836.901	13.95
837.197	8.61
837.493	10.28
837.789	8.65
838.085	5.13
838.381	9.5
838.677	5.24
838.972	9.65
839.268	4.07
839.564	6.9
839.86	3.8
840.155	7.9
840.451	6.84
840.746	6.38
841.042	2.6
841.337	16.27
841.632	3.55
841.928	8.38
842.223	4.06
842.518	8.75
842.813	1.63
843.108	4.19
843.403	13.79
843.698	-3.03
843.993	-2.98
844.287	8.01
844.582	11.34
844.877	5.11
845.171	7.04
845.466	9.26
845.761	1.26
846.055	15.82
846.349	-13.95
846.644	14.19
846.938	6.92
847.232	4.11
847.526	0.53
847.82	-10.92
848.114	2.92
848.408	8.94
848.702	0.57
848.996	-1.33
849.29	4.53
849.584	-5.29
849.877	5.31
850.171	-8.37
850.465	-35.44
850.758	-3.58
851.052	6.64
851.345	26.09
851.638	7.45
851.932	12.21
852.225	6.51
852.518	33.31
852.811	6.77
853.104	9.2
853.397	0.68
853.69	6.87
853.983	-20.65
854.276	12.05
854.569	-7.56
854.861	-9.06
855.154	0.7
855.447	-8.49
855.739	10.45
856.032	-14.94
856.324	8.57
856.616	14.25
856.909	5.86
857.201	5.96
857.493	-1.68
857.785	-4.16
858.077	9.39
858.369	6.49
858.661	21.87
858.953	-14.51
859.245	2.92
859.537	19.39
859.829	25.73
860.12	-3.88
860.412	4.39
860.703	2.3
860.995	15.38
861.286	10.42
861.578	-17.35
861.869	-6.12
862.16	5.89
862.452	-6.95
862.743	44.5
863.034	34.82
863.325	38.73
863.616	11.28
863.907	6.05
864.198	2.84
864.488	-6.29
864.779	6.85
865.07	-1.45
865.36	21.3
865.651	14.25
865.941	25.6
866.232	1.16
866.522	28.26
866.813	34.58
867.103	24.89
867.393	20.21
867.683	17.65
867.973	16.66
868.263	-6.83
868.553	-12.67
868.843	-25.98
869.133	0.96
869.423	23.19
869.713	1.45
870.002	-2.89
870.292	-12.23
870.582	13.29
870.871	-3.17
871.161	-11.54
871.45	6.7
871.739	-11.62
872.029	3.04
872.318	-9.56
872.607	6.93
872.896	18.91
873.185	19.21
873.474	-14.22
873.763	15.52
874.052	0.59
874.341	-46.6
874.63	-18.23
874.918	26.2
875.207	42.15
875.496	30.11
875.784	1.2
876.073	-2.39
876.361	11.41
876.649	10.5
876.938	5.06
877.226	3.22
877.514	-32.86
877.802	34.09
878.09	-4.18
878.378	13.11
878.666	-30
878.954	19.06
879.242	-1.65
879.53	-13.17
879.817	24.28
880.105	-6.8
880.392	3.63
880.68	-12.22
880.967	5.69
881.255	5.93
881.542	29.63
881.83	2.68
882.117	0.77
882.404	9.74
882.691	-21.98
882.978	-18.84
883.265	12.75
883.552	14.83
883.839	10.93
884.126	1.01
884.413	11.8
884.699	8.13
884.986	8.73
885.273	11.05
885.559	11.05
885.846	11.05
