Data from 0235_forehead_Reflection__2__295.txt Node

Date: Fri Sep 22 23:03:01 CDT 2023
User: ToomeyLab
Spectrometer: FLMS14357
Trigger mode: 0
Integration Time (sec): 1.000000E-2
Scans to average: 100
Electric dark correction enabled: true
Nonlinearity correction enabled: false
Boxcar width: 0
XAxis mode: Wavelengths
Number of Pixels in Spectrum: 2048
>>>>>Begin Spectral Data<<<<<
189.047	-351.76
189.435	-351.76
189.823	-351.76
190.211	358.7
190.599	-144.57
190.987	-71.19
191.375	16214.29
191.763	-68.44
192.151	454.38
192.538	25.14
192.926	117.65
193.314	87.56
193.702	346.49
194.089	138.18
194.477	-28.21
194.864	-14.61
195.252	42.81
195.639	79.39
196.027	124.85
196.414	-270.93
196.801	-1181.42
197.189	47.25
197.576	297.98
197.963	-118.55
198.351	55.82
198.738	31.3
199.125	12.36
199.512	39.26
199.899	22.14
200.286	111.03
200.673	10.95
201.06	27.77
201.447	31.42
201.833	-37.3
202.22	42.26
202.607	42.11
202.994	41.42
203.38	56.52
203.767	23.21
204.154	17.02
204.54	46.67
204.927	9.66
205.313	53.02
205.699	55.14
206.086	60.18
206.472	56.84
206.858	42.76
207.245	-30.89
207.631	44.35
208.017	28.18
208.403	37.94
208.789	26.96
209.175	24.77
209.561	54.82
209.947	54.48
210.333	43.89
210.719	7.67
211.105	36.17
211.491	9.8
211.876	36.58
212.262	10.91
212.648	26.08
213.034	32.94
213.419	17.03
213.805	14.9
214.19	18.81
214.576	44.64
214.961	23.5
215.346	17.6
215.732	22.81
216.117	8.84
216.502	35.91
216.888	21.45
217.273	38.06
217.658	20.86
218.043	29.99
218.428	38.62
218.813	3.64
219.198	18.67
219.583	25.31
219.968	18.52
220.353	44.74
220.738	13.17
221.122	29.34
221.507	20.05
221.892	7.62
222.276	32.24
222.661	-3.73
223.046	21.85
223.43	24.23
223.815	13.49
224.199	16.21
224.583	8.14
224.968	26.67
225.352	10.77
225.736	21.86
226.121	12.55
226.505	14.53
226.889	2.93
227.273	8.99
227.657	6.75
228.041	5.81
228.425	13.27
228.809	4.55
229.193	4.33
229.577	7.84
229.961	4.81
230.344	7.09
230.728	4.35
231.112	5.03
231.495	4.12
231.879	4.07
232.263	4.42
232.646	4.26
233.03	4.58
233.413	4.12
233.797	4.47
234.18	4.92
234.563	8.39
234.946	5.56
235.33	2.63
235.713	2.28
236.096	5.03
236.479	5.12
236.862	8.4
237.245	6.7
237.628	7.91
238.011	6.61
238.394	4.39
238.777	5.47
239.16	5.26
239.543	8.34
239.925	7.3
240.308	5.88
240.691	7.85
241.073	5.77
241.456	7.68
241.838	5.06
242.221	5.93
242.603	4.77
242.986	4.34
243.368	4.21
243.75	5.61
244.133	5.37
244.515	5.12
244.897	4.62
245.279	4.48
245.661	5.34
246.043	4.87
246.425	4.46
246.807	5.83
247.189	5.06
247.571	5.08
247.953	5.78
248.335	5.39
248.717	5.16
249.098	5.16
249.48	4.68
249.862	4.72
250.243	5.09
250.625	5.35
251.006	4.68
251.388	5.32
251.769	5.52
252.151	5.32
252.532	6.3
252.913	4.36
253.295	5.8
253.676	5.75
254.057	5.36
254.438	5.23
254.819	4.8
255.2	5.26
255.581	4.81
255.962	5.7
256.343	5.99
256.724	5.39
257.105	5.95
257.486	5.11
257.867	6.84
258.247	6.5
258.628	6.06
259.009	5.88
259.389	4.94
259.77	5.78
260.15	6.03
260.531	5.26
260.911	5.37
261.292	5.24
261.672	4.8
262.052	4.99
262.432	4.84
262.813	5.22
263.193	4.82
263.573	5.64
263.953	4.74
264.333	5.09
264.713	5.18
265.093	5.11
265.473	5.21
265.853	4.6
266.233	6.01
266.612	5.16
266.992	5.23
267.372	6.01
267.752	5.81
268.131	5.22
268.511	4.89
268.89	5.42
269.27	4.94
269.649	5.67
270.029	4.55
270.408	5.03
270.787	5.28
271.167	5.46
271.546	4.79
271.925	4.76
272.304	4.67
272.683	5.11
273.062	5.65
273.441	4.56
273.82	5.25
274.199	5.04
274.578	4.96
274.957	4.3
275.336	4.29
275.715	5.09
276.093	4.98
276.472	4.64
276.851	4.1
277.229	4.51
277.608	5.24
277.986	4.47
278.365	5.13
278.743	5.4
279.122	4.32
279.5	5.03
279.878	4.24
280.257	5.21
280.635	4.94
281.013	4.51
281.391	4.78
281.769	4.95
282.147	4.77
282.525	4.65
282.903	5.18
283.281	5.4
283.659	5.59
284.037	4.38
284.415	4.89
284.792	4.6
285.17	4.8
285.548	5.4
285.925	5
286.303	4.9
286.68	4.38
287.058	4.63
287.435	4.73
287.813	4.57
288.19	4.45
288.567	4.73
288.945	4.86
289.322	4.93
289.699	5.08
290.076	5.37
290.453	5.04
290.83	4.94
291.207	5.02
291.584	4.49
291.961	4.9
292.338	5.12
292.715	5.67
293.092	4.97
293.469	5.18
293.845	5.33
294.222	5.18
294.599	5.68
294.975	5.29
295.352	5.43
295.728	5.54
296.105	5.43
296.481	5.47
296.858	5.51
297.234	5.9
297.61	5.49
297.986	5.78
298.363	5.45
298.739	5.82
299.115	6.03
299.491	5.87
299.867	6.08
300.243	5.46
300.619	5.95
300.995	6.2
301.371	6.7
301.746	6.46
302.122	6.21
302.498	5.78
302.874	5.87
303.249	6.45
303.625	5.86
304	6.57
304.376	6.79
304.751	6.81
305.127	6.25
305.502	6.42
305.878	6.77
306.253	6.61
306.628	6.54
307.003	6.39
307.378	7.02
307.754	6.88
308.129	6.45
308.504	7.14
308.879	7.54
309.254	7.5
309.629	7.78
310.003	7.59
310.378	7.9
310.753	7.4
311.128	7.68
311.502	7.55
311.877	6.89
312.252	7.45
312.626	7.7
313.001	8.01
313.375	8.08
313.75	8.14
314.124	8.49
314.498	7.61
314.873	7.74
315.247	8.07
315.621	8.21
315.995	8.41
316.369	8.31
316.743	8.14
317.117	9.01
317.491	8.77
317.865	8.16
318.239	8.8
318.613	8.75
318.987	8.26
319.361	8.86
319.734	8.41
320.108	9.07
320.482	8.8
320.855	8.16
321.229	9.3
321.602	9.55
321.976	8.92
322.349	9
322.723	9.7
323.096	9.01
323.469	9.47
323.843	9.12
324.216	9.29
324.589	9.43
324.962	9.18
325.335	9.69
325.708	9.57
326.081	9.73
326.454	9.23
326.827	10.06
327.2	9.31
327.573	10.78
327.945	9.65
328.318	9.72
328.691	10.71
329.063	9.8
329.436	10.19
329.809	9.68
330.181	9.74
330.553	9.87
330.926	9.9
331.298	10.71
331.671	10.3
332.043	9.9
332.415	10.42
332.787	10.15
333.159	10.09
333.532	9.85
333.904	10.89
334.276	10.42
334.648	9.95
335.02	10.16
335.391	10.74
335.763	10.73
336.135	11.15
336.507	11.15
336.879	10.57
337.25	10.81
337.622	11.26
337.993	10.92
338.365	11.27
338.736	11.19
339.108	11.29
339.479	11.03
339.851	10.5
340.222	10.74
340.593	10.5
340.964	10.75
341.336	10.93
341.707	11.07
342.078	11.05
342.449	11.66
342.82	11.22
343.191	10.69
343.562	11.29
343.933	10.96
344.303	11.14
344.674	11.42
345.045	11.42
345.416	12.02
345.786	11.39
346.157	11.46
346.527	11.22
346.898	11.33
347.268	11.55
347.639	12.22
348.009	11.33
348.38	11.87
348.75	12.06
349.12	11.51
349.49	11.94
349.861	12.11
350.231	12.08
350.601	11.94
350.971	12.51
351.341	11.74
351.711	12.11
352.081	11.64
352.45	12.32
352.82	12.49
353.19	12.82
353.56	12.15
353.929	12.51
354.299	12
354.669	12.37
355.038	12.34
355.408	12.52
355.777	12.8
356.147	12.27
356.516	12.82
356.885	12.34
357.254	12.9
357.624	12.21
357.993	12.62
358.362	12.5
358.731	12.55
359.1	12.78
359.469	12.74
359.838	12.64
360.207	12.68
360.576	12.81
360.945	12.64
361.314	12.94
361.682	13.15
362.051	12.99
362.42	12.82
362.788	13.02
363.157	12.96
363.525	12.93
363.894	12.99
364.262	13.04
364.631	13.04
364.999	12.9
365.367	13.19
365.735	13.2
366.104	13.48
366.472	13.45
366.84	13.45
367.208	13.8
367.576	13.4
367.944	13.33
368.312	13.72
368.68	13.59
369.048	13.63
369.416	13.73
369.783	13.5
370.151	13.41
370.519	13.6
370.886	13.75
371.254	13.59
371.621	13.76
371.989	14.06
372.356	13.76
372.724	14.39
373.091	14.16
373.458	13.79
373.826	14.27
374.193	14.2
374.56	14.04
374.927	14.35
375.294	14.01
375.661	14.19
376.028	14.49
376.395	14.62
376.762	14.11
377.129	14.54
377.496	14.67
377.863	14.41
378.229	14.38
378.596	14.57
378.963	14.8
379.329	14.88
379.696	14.77
380.062	14.66
380.429	14.49
380.795	14.61
381.161	14.79
381.528	14.79
381.894	14.7
382.26	14.7
382.626	14.92
382.993	14.99
383.359	14.74
383.725	14.94
384.091	15.39
384.457	15.15
384.823	15.07
385.188	15.22
385.554	15.43
385.92	15.63
386.286	15.37
386.651	15.33
387.017	15.61
387.383	15.6
387.748	15.5
388.114	15.33
388.479	15.44
388.845	15.18
389.21	15.62
389.575	15.89
389.94	15.42
390.306	15.88
390.671	16.03
391.036	15.51
391.401	15.51
391.766	15.82
392.131	15.74
392.496	15.64
392.861	15.76
393.226	15.85
393.591	15.7
393.956	15.65
394.32	15.95
394.685	15.74
395.05	16.46
395.414	16.2
395.779	16.01
396.143	15.98
396.508	15.92
396.872	16.22
397.236	16.13
397.601	15.95
397.965	16.06
398.329	16.52
398.694	16.04
399.058	16.13
399.422	16.06
399.786	16.28
400.15	16.77
400.514	16.77
400.878	16.47
401.242	16.58
401.605	16.54
401.969	16.3
402.333	16.96
402.697	16.55
403.06	16.78
403.424	16.72
403.787	16.87
404.151	16.66
404.514	17.06
404.878	16.82
405.241	17.14
405.604	17.17
405.968	16.87
406.331	16.69
406.694	17.07
407.057	16.65
407.42	16.96
407.783	16.9
408.146	16.74
408.509	17.14
408.872	16.9
409.235	17.16
409.598	17.13
409.961	17.25
410.323	17.11
410.686	17.47
411.049	17.58
411.411	17.7
411.774	17.46
412.136	17.43
412.499	17.35
412.861	17.52
413.223	17.73
413.586	17.28
413.948	17.54
414.31	17.46
414.672	17.57
415.035	17.63
415.397	17.97
415.759	18
416.121	17.69
416.483	17.82
416.845	17.61
417.206	17.67
417.568	17.77
417.93	17.66
418.292	17.81
418.653	17.62
419.015	17.81
419.377	17.79
419.738	17.98
420.1	17.61
420.461	17.78
420.822	17.8
421.184	17.78
421.545	17.79
421.906	17.8
422.267	17.77
422.629	17.88
422.99	17.81
423.351	17.8
423.712	17.84
424.073	17.81
424.434	18.06
424.795	17.98
425.155	18.02
425.516	17.99
425.877	18.16
426.238	18.09
426.598	18.12
426.959	18.07
427.32	18.28
427.68	18.13
428.041	18.2
428.401	18.41
428.761	18.51
429.122	18.55
429.482	18.58
429.842	18.44
430.202	18.72
430.563	18.83
430.923	18.84
431.283	19.13
431.643	18.91
432.003	19.04
432.363	19.02
432.722	19.04
433.082	19.2
433.442	18.97
433.802	19.01
434.161	19.27
434.521	19.12
434.881	19.15
435.24	19.44
435.6	19.21
435.959	19.02
436.319	19.18
436.678	19.35
437.037	19.43
437.396	19.32
437.756	19.44
438.115	19.35
438.474	19.28
438.833	19.6
439.192	19.59
439.551	19.4
439.91	19.49
440.269	19.52
440.628	19.5
440.987	19.8
441.345	19.62
441.704	19.86
442.063	19.65
442.421	19.45
442.78	19.45
443.138	19.69
443.497	19.57
443.855	19.71
444.214	19.53
444.572	19.83
444.93	19.92
445.288	19.91
445.647	20.14
446.005	19.98
446.363	19.9
446.721	20.17
447.079	19.91
447.437	20
447.795	20.11
448.153	19.98
448.51	19.84
448.868	20.04
449.226	19.92
449.584	19.9
449.941	20.02
450.299	20.1
450.656	20.17
451.014	20.28
451.371	20.27
451.729	20.5
452.086	20.58
452.443	20.75
452.801	20.52
453.158	20.55
453.515	20.69
453.872	20.83
454.229	20.55
454.586	20.9
454.943	20.65
455.3	20.72
455.657	20.67
456.014	20.81
456.371	20.86
456.727	20.99
457.084	21.09
457.441	20.9
457.797	20.98
458.154	21.07
458.51	21.04
458.867	21.06
459.223	21.17
459.58	21.24
459.936	21.42
460.292	21.36
460.648	21.2
461.005	21.18
461.361	21.32
461.717	20.9
462.073	20.99
462.429	20.74
462.785	21
463.141	21.1
463.496	21.28
463.852	21.38
464.208	21.37
464.564	21.54
464.919	21.39
465.275	21.92
465.631	21.64
465.986	21.79
466.342	21.73
466.697	21.92
467.052	21.61
467.408	22.01
467.763	21.83
468.118	21.89
468.473	21.59
468.829	21.81
469.184	21.96
469.539	22.13
469.894	21.94
470.249	22.2
470.603	22
470.958	22.14
471.313	22.23
471.668	22.27
472.023	22.29
472.377	22.32
472.732	22.16
473.086	22.53
473.441	22.24
473.795	22.55
474.15	22.41
474.504	22.55
474.859	22.62
475.213	22.33
475.567	22.53
475.921	22.5
476.275	22.45
476.63	22.5
476.984	22.65
477.338	22.56
477.692	22.66
478.045	22.79
478.399	22.97
478.753	22.55
479.107	22.76
479.461	22.66
479.814	22.7
480.168	22.66
480.521	22.68
480.875	22.91
481.228	22.88
481.582	22.66
481.935	22.85
482.289	22.9
482.642	22.79
482.995	23.18
483.348	22.87
483.701	23
484.055	22.81
484.408	22.69
484.761	22.72
485.114	22.48
485.466	22.39
485.819	22.09
486.172	22.15
486.525	22.13
486.878	22.1
487.23	22.22
487.583	22.32
487.936	22.54
488.288	22.67
488.641	22.76
488.993	22.76
489.345	22.59
489.698	22.55
490.05	22.48
490.402	22.6
490.754	22.56
491.107	22.64
491.459	22.84
491.811	22.98
492.163	23.09
492.515	23.22
492.866	23.27
493.218	23.28
493.57	23.13
493.922	22.87
494.274	22.96
494.625	23.05
494.977	23.13
495.328	23.39
495.68	23.5
496.031	23.54
496.383	23.75
496.734	23.93
497.086	24.02
497.437	24.1
497.788	24.11
498.139	24.22
498.49	24.08
498.842	24.17
499.193	24.02
499.544	24.03
499.894	24.14
500.245	24.11
500.596	24.16
500.947	24.26
501.298	24.3
501.648	24.27
501.999	24.52
502.35	24.42
502.7	24.59
503.051	24.47
503.401	24.76
503.752	24.79
504.102	24.84
504.452	24.64
504.803	24.78
505.153	24.89
505.503	24.85
505.853	24.84
506.203	24.68
506.553	24.72
506.903	24.83
507.253	24.78
507.603	24.93
507.953	24.95
508.303	24.88
508.652	25.04
509.002	25.07
509.352	24.95
509.701	25.07
510.051	25.1
510.4	25.1
510.75	25.09
511.099	25.17
511.449	25.18
511.798	25.34
512.147	25.16
512.496	25.27
512.846	25.19
513.195	25.05
513.544	25.36
513.893	25.4
514.242	25.26
514.591	25.42
514.939	25.48
515.288	25.36
515.637	25.31
515.986	25.52
516.334	25.52
516.683	25.54
517.032	25.87
517.38	25.85
517.729	25.65
518.077	25.8
518.426	25.76
518.774	25.79
519.122	25.96
519.47	25.53
519.819	25.72
520.167	25.96
520.515	25.42
520.863	25.65
521.211	25.6
521.559	25.73
521.907	25.69
522.255	25.8
522.602	25.94
522.95	25.86
523.298	26.15
523.645	26.33
523.993	26.19
524.341	26.17
524.688	26.15
525.036	26.32
525.383	26.27
525.73	26.46
526.078	26.32
526.425	26.25
526.772	26.41
527.119	26.34
527.466	26.28
527.814	26.06
528.161	25.98
528.508	26.01
528.854	26.09
529.201	26.1
529.548	26.04
529.895	26.11
530.242	25.93
530.588	25.83
530.935	25.75
531.282	25.8
531.628	25.76
531.975	25.75
532.321	25.78
532.667	26.09
533.014	26.31
533.36	26.47
533.706	26.55
534.052	26.63
534.399	26.63
534.745	26.56
535.091	26.44
535.437	26.38
535.783	26.2
536.129	26.32
536.474	26.48
536.82	26.45
537.166	26.66
537.512	26.88
537.857	26.96
538.203	27
538.549	26.97
538.894	26.82
539.239	26.82
539.585	26.93
539.93	27.02
540.276	27.18
540.621	27.33
540.966	27.46
541.311	27.48
541.656	27.4
542.001	27.42
542.346	27.45
542.691	27.61
543.036	27.29
543.381	27.24
543.726	26.93
544.071	27.08
544.415	27.09
544.76	27.03
545.105	27.07
545.449	27.25
545.794	27.44
546.138	27.49
546.483	27.69
546.827	27.62
547.171	27.79
547.516	27.93
547.86	28
548.204	27.94
548.548	27.99
548.892	27.96
549.236	27.93
549.58	28.03
549.924	28.08
550.268	28.3
550.612	28.2
550.956	28.26
551.3	28.48
551.643	28.53
551.987	28.57
552.33	28.61
552.674	28.52
553.017	28.67
553.361	28.6
553.704	29.34
554.048	28.9
554.391	28.89
554.734	28.89
555.077	28.87
555.42	28.72
555.764	28.78
556.107	29.12
556.45	29.02
556.793	28.9
557.135	29.1
557.478	28.89
557.821	29.21
558.164	29.26
558.507	29.28
558.849	29.13
559.192	29.48
559.534	29.63
559.877	29.35
560.219	29.46
560.562	29.25
560.904	29.57
561.246	29.66
561.589	29.55
561.931	29.65
562.273	29.42
562.615	29.73
562.957	29.45
563.299	29.8
563.641	29.71
563.983	29.72
564.325	29.76
564.667	29.54
565.008	29.7
565.35	29.66
565.692	29.86
566.033	29.92
566.375	30.08
566.716	29.83
567.058	29.81
567.399	29.9
567.741	29.99
568.082	29.75
568.423	29.74
568.764	30.22
569.105	29.63
569.447	29.63
569.788	29.87
570.129	30
570.47	30.19
570.811	29.99
571.151	30
571.492	30.17
571.833	30.39
572.174	30.31
572.514	30.32
572.855	30.43
573.195	30.15
573.536	30.53
573.876	30.38
574.217	30.14
574.557	30.21
574.898	30.34
575.238	30.25
575.578	30.33
575.918	30.42
576.258	30.5
576.598	30.5
576.938	30.54
577.278	30.42
577.618	30.58
577.958	30.63
578.298	30.75
578.638	30.71
578.977	30.84
579.317	30.59
579.657	31.1
579.996	31.13
580.336	31.08
580.675	31.09
581.014	30.99
581.354	31
581.693	31.41
582.032	31.6
582.372	31.52
582.711	31.5
583.05	31.55
583.389	31.55
583.728	31.68
584.067	31.33
584.406	31.42
584.745	31.35
585.083	31.42
585.422	31.9
585.761	31.61
586.1	32.02
586.438	31.4
586.777	31.68
587.115	32.14
587.454	32.13
587.792	32.02
588.13	31.54
588.469	31.53
588.807	31.99
589.145	32.04
589.483	31.54
589.821	32.01
590.159	31.81
590.497	31.93
590.835	31.84
591.173	31.79
591.511	31.97
591.849	32.09
592.187	32.15
592.524	32.16
592.862	32.09
593.2	32.24
593.537	31.84
593.875	32.22
594.212	32.06
594.55	32.36
594.887	32.1
595.224	32.61
595.561	32.44
595.899	32.36
596.236	32.7
596.573	32.72
596.91	32.48
597.247	32.26
597.584	32.6
597.921	32.76
598.258	32.44
598.594	32.58
598.931	32.51
599.268	32.18
599.604	32.45
599.941	32.35
600.277	32.6
600.614	32.38
600.95	32.61
601.287	32.38
601.623	32.74
601.959	32.85
602.296	33.04
602.632	33.01
602.968	32.88
603.304	33.17
603.64	32.96
603.976	33
604.312	33.12
604.648	32.98
604.984	33.06
605.319	33.03
605.655	33.11
605.991	32.96
606.326	32.88
606.662	32.82
606.998	32.98
607.333	33.21
607.668	32.72
608.004	32.87
608.339	32.81
608.674	33.13
609.01	33.49
609.345	33.22
609.68	33.51
610.015	33.59
610.35	33.6
610.685	33.85
611.02	33.64
611.355	33.2
611.689	33.51
612.024	33.32
612.359	33.51
612.694	33.35
613.028	33.27
613.363	33.51
613.697	33.39
614.032	34.13
614.366	33.87
614.7	33.76
615.035	33.71
615.369	33.92
615.703	33.87
616.037	33.99
616.371	33.98
616.705	34.01
617.039	34.24
617.373	34.23
617.707	33.97
618.041	34.21
618.375	34.28
618.709	34.18
619.042	34.16
619.376	34.11
619.71	34.44
620.043	34.18
620.377	34.12
620.71	34.5
621.043	34.55
621.377	34.4
621.71	34.52
622.043	34.37
622.376	34.44
622.709	34.25
623.043	34.73
623.376	34.54
623.709	34.56
624.041	34.77
624.374	34.51
624.707	35.33
625.04	35.05
625.373	34.25
625.705	34.92
626.038	34.78
626.37	35.12
626.703	35.26
627.035	34.62
627.368	35
627.7	34.96
628.032	35.02
628.365	34.65
628.697	34.91
629.029	35.05
629.361	35.16
629.693	35.29
630.025	34.96
630.357	34.82
630.689	35.01
631.021	34.57
631.353	35.24
631.684	35.22
632.016	35.52
632.348	35.3
632.679	35.14
633.011	35.2
633.342	35.56
633.674	35.45
634.005	34.88
634.336	35.42
634.668	35.61
634.999	35.33
635.33	35.62
635.661	35.48
635.992	35.23
636.323	35.13
636.654	35.6
636.985	35.82
637.316	35.35
637.647	35.62
637.977	35.58
638.308	35.85
638.639	36.19
638.969	35.86
639.3	35.59
639.63	35.97
639.961	35.26
640.291	35.78
640.622	35.97
640.952	35.66
641.282	35.98
641.612	35.76
641.943	36.47
642.273	35.89
642.603	36.19
642.933	36.31
643.263	35.77
643.592	36.42
643.922	36.18
644.252	36.26
644.582	36.39
644.911	36.06
645.241	36.57
645.571	36.24
645.9	36.27
646.23	36.31
646.559	36.52
646.888	36.77
647.218	36.35
647.547	36.57
647.876	36.57
648.205	36.26
648.534	36.71
648.863	36.69
649.192	36.26
649.521	36.77
649.85	36.7
650.179	36.12
650.508	36.44
650.837	36.94
651.165	36.13
651.494	36.96
651.822	36.25
652.151	36.52
652.479	36.83
652.808	37
653.136	36.85
653.465	37.31
653.793	37.02
654.121	36.58
654.449	37.02
654.777	37.09
655.105	37.06
655.433	37.37
655.761	36.99
656.089	37.48
656.417	37.33
656.745	36.68
657.073	37.39
657.4	37.72
657.728	36.91
658.056	36.88
658.383	37.8
658.711	37.23
659.038	37.15
659.365	37.58
659.693	37.12
660.02	37.38
660.347	37.62
660.674	37.16
661.001	37.52
661.329	37.37
661.656	37.66
661.982	37.47
662.309	37.85
662.636	37.28
662.963	37.43
663.29	37.71
663.616	37.09
663.943	37.98
664.27	37.32
664.596	37.7
664.923	37.55
665.249	37.22
665.576	37.7
665.902	37.97
666.228	37.91
666.554	38.29
666.881	38.07
667.207	38.17
667.533	37.62
667.859	38.02
668.185	38.01
668.511	38.78
668.837	37.86
669.162	38.15
669.488	38.05
669.814	39
670.139	37.67
670.465	38.71
670.791	38.36
671.116	38.3
671.442	38.83
671.767	37.5
672.092	38.65
672.418	38.44
672.743	38.86
673.068	38.6
673.393	38.07
673.718	38.3
674.043	39.68
674.368	38.53
674.693	39.1
675.018	39.05
675.343	38.48
675.667	38.43
675.992	39.04
676.317	39.29
676.641	39.01
676.966	39.05
677.29	38.93
677.615	39.22
677.939	39.12
678.264	39.31
678.588	38.91
678.912	38.68
679.236	38.6
679.56	39.52
679.885	38.43
680.209	39.59
680.532	38.88
680.856	38.99
681.18	39.56
681.504	39.36
681.828	39.45
682.152	38.78
682.475	39.14
682.799	39.27
683.122	39.3
683.446	39.11
683.769	39.47
684.093	39.49
684.416	39.96
684.739	39.4
685.062	40.13
685.386	39.4
685.709	39.45
686.032	39.65
686.355	38.9
686.678	39.84
687.001	38.97
687.324	40.02
687.646	39.19
687.969	39.86
688.292	39.22
688.614	39.69
688.937	39.94
689.26	39.19
689.582	39.43
689.904	38.99
690.227	40.16
690.549	40.25
690.871	38.99
691.194	39.87
691.516	40.47
691.838	39.81
692.16	40.07
692.482	39.34
692.804	39.53
693.126	39.1
693.448	40.11
693.769	40.46
694.091	40.42
694.413	40.23
694.735	41.04
695.056	40.6
695.378	40.03
695.699	39.67
696.021	40.03
696.342	41.22
696.663	39.68
696.984	41.08
697.306	40.16
697.627	39.7
697.948	39.69
698.269	39.93
698.59	40.35
698.911	40.37
699.232	41.01
699.553	40.52
699.873	40.2
700.194	40.53
700.515	40.29
700.835	40.8
701.156	40.79
701.477	41.05
701.797	40.8
702.117	40.22
702.438	39.94
702.758	40.04
703.078	40.54
703.398	40.02
703.719	40.63
704.039	41.57
704.359	40.71
704.679	40.65
704.999	41.19
705.319	41.51
705.638	40.59
705.958	41.08
706.278	41.65
706.597	40.78
706.917	40.04
707.237	41.23
707.556	41.35
707.876	40.55
708.195	41.78
708.514	41.84
708.834	40.52
709.153	41.29
709.472	41.33
709.791	41.85
710.11	41.67
710.429	42.06
710.748	42.2
711.067	41.02
711.386	41.53
711.705	41.47
712.023	41.38
712.342	41.88
712.661	42.75
712.979	40.72
713.298	42.57
713.616	40.69
713.935	41.7
714.253	41.93
714.572	43.04
714.89	41.04
715.208	41.87
715.526	41.08
715.844	42.68
716.162	41.12
716.48	41.89
716.798	42.22
717.116	41.57
717.434	42.11
717.752	42.01
718.069	41.85
718.387	41.54
718.705	41.59
719.022	42.5
719.34	42.33
719.657	40.99
719.975	42.7
720.292	41.31
720.609	43.46
720.927	41.32
721.244	42.51
721.561	42.09
721.878	42.99
722.195	42.94
722.512	42.55
722.829	42.8
723.146	43.54
723.463	43.04
723.779	43.32
724.096	41.51
724.413	42.87
724.729	43.15
725.046	41.9
725.362	42.07
725.679	42.15
725.995	43.12
726.311	42.1
726.628	41.88
726.944	42.6
727.26	42.25
727.576	43.03
727.892	41.29
728.208	43.34
728.524	43.04
728.84	42.9
729.156	41.07
729.472	44.25
729.787	42.11
730.103	43.37
730.419	43.67
730.734	43.37
731.05	41.24
731.365	42.02
731.681	43.44
731.996	44.25
732.311	43.77
732.626	42.12
732.942	44.28
733.257	42.63
733.572	42.63
733.887	42.2
734.202	43.99
734.517	44.33
734.832	43.04
735.146	44.18
735.461	44
735.776	43.47
736.091	42.63
736.405	43.56
736.72	44.25
737.034	41.92
737.349	43.49
737.663	43.74
737.977	43.61
738.292	44
738.606	41.24
738.92	42.05
739.234	41.93
739.548	42.69
739.862	42.18
740.176	43.54
740.49	42.24
740.804	44.82
741.117	44.74
741.431	43.17
741.745	42.44
742.058	43.11
742.372	41.47
742.685	42.64
742.999	44.25
743.312	44.48
743.626	42.49
743.939	43.63
744.252	43.6
744.565	42.89
744.878	44.47
745.191	44.23
745.505	43.41
745.817	42.72
746.13	45.22
746.443	44.91
746.756	44.45
747.069	43.77
747.381	42.09
747.694	45.42
748.007	44.91
748.319	42.69
748.632	45.07
748.944	45.52
749.256	44.14
749.569	41.82
749.881	44.63
750.193	44.82
750.505	43.99
750.817	45.41
751.129	44.71
751.441	44.32
751.753	45.89
752.065	44.57
752.377	45.93
752.689	44.38
753	43.52
753.312	44.49
753.624	42.76
753.935	44.96
754.247	44.99
754.558	45.3
754.869	44.51
755.181	43.85
755.492	43.47
755.803	46.94
756.114	45.3
756.425	45.01
756.736	44.46
757.047	42.89
757.358	43.81
757.669	42.77
757.98	43.91
758.291	43.07
758.601	44.53
758.912	44.66
759.223	45.4
759.533	43.89
759.844	45.4
760.154	45.01
760.464	43.39
760.775	44.19
761.085	44.24
761.395	44.61
761.705	47.32
762.016	44.12
762.326	44.44
762.636	46.1
762.945	44.83
763.255	44.14
763.565	45.13
763.875	44.47
764.185	45.83
764.494	42.41
764.804	44.18
765.113	44.69
765.423	44.26
765.732	45.15
766.042	45.19
766.351	45.42
766.66	46.72
766.97	46.78
767.279	45.3
767.588	44.16
767.897	43.51
768.206	45.36
768.515	45.96
768.824	46.29
769.133	45.26
769.441	45.18
769.75	47.52
770.059	45.1
770.367	44.62
770.676	45.51
770.984	44.2
771.293	44.43
771.601	44.46
771.91	43.99
772.218	46.46
772.526	44.18
772.834	41.81
773.142	44.63
773.45	45.32
773.758	46.41
774.066	46.8
774.374	44.87
774.682	41.94
774.99	44.49
775.298	44.18
775.605	45.64
775.913	46.92
776.22	46.03
776.528	43.42
776.835	46.19
777.143	41.69
777.45	45.66
777.757	46.65
778.065	48.38
778.372	43.78
778.679	46.26
778.986	51.35
779.293	46.72
779.6	46.46
779.907	47.47
780.214	50.17
780.52	43.8
780.827	44.71
781.134	45.72
781.44	45.08
781.747	46.38
782.053	45.95
782.36	45.55
782.666	44.17
782.973	44.34
783.279	45.43
783.585	48.11
783.891	46.04
784.197	43.04
784.503	46.02
784.809	46.85
785.115	45.18
785.421	51.18
785.727	47.84
786.033	48.5
786.339	44.32
786.644	49.71
786.95	45.24
787.255	46.43
787.561	48.21
787.866	48.04
788.172	46.3
788.477	46.94
788.782	47.31
789.088	43.89
789.393	46.89
789.698	48.24
790.003	47.19
790.308	47.12
790.613	40.62
790.918	43.83
791.223	46.87
791.527	44.91
791.832	46.09
792.137	46.21
792.441	49.94
792.746	46.33
793.05	48.93
793.355	48.1
793.659	43.18
793.963	47.61
794.268	47.49
794.572	46.92
794.876	41.49
795.18	50.33
795.484	45.87
795.788	44.2
796.092	46.27
796.396	45.47
796.7	47.96
797.004	46.81
797.307	41.84
797.611	45.72
797.915	46.87
798.218	52.18
798.522	45.03
798.825	47.71
799.128	46.59
799.432	47.86
799.735	48.95
800.038	47.75
800.341	48.91
800.644	47.09
800.947	43.17
801.25	48.52
801.553	47.57
801.856	46.24
802.159	44.17
802.462	49.76
802.764	45.57
803.067	48.64
803.37	48.31
803.672	45.47
803.975	45.97
804.277	46.11
804.579	43.34
804.882	49.95
805.184	45.08
805.486	47.55
805.788	52.45
806.09	46.14
806.392	45.66
806.694	42.42
806.996	46.26
807.298	43.3
807.6	46.09
807.902	52.21
808.203	43.2
808.505	45.86
808.807	50.96
809.108	50.76
809.409	50.92
809.711	47.98
810.012	42.96
810.313	45.1
810.615	47.79
810.916	42.67
811.217	46.22
811.518	45.87
811.819	49.04
812.12	45.28
812.421	46.73
812.722	49.29
813.023	44.85
813.323	47.58
813.624	43.17
813.925	48.12
814.225	51.3
814.526	45.94
814.826	47.49
815.126	49.74
815.427	45.36
815.727	47.15
816.027	43.43
816.327	51.88
816.627	47.47
816.927	49.72
817.227	49.79
817.527	50.85
817.827	49.28
818.127	44.57
818.427	48.19
818.727	45.58
819.026	48.88
819.326	41.68
819.625	54.47
819.925	54.62
820.224	48.2
820.524	47.59
820.823	45.17
821.122	42.97
821.421	50.74
821.72	54.35
822.019	47.65
822.318	46.82
822.617	50.36
822.916	44.91
823.215	51.03
823.514	50.39
823.813	52.44
824.111	48.73
824.41	51.23
824.709	49.78
825.007	49.41
825.306	49.2
825.604	48.88
825.902	48.67
826.201	49.54
826.499	48.12
826.797	47.6
827.095	48.68
827.393	48.18
827.691	46.57
827.989	46.16
828.287	45.76
828.585	48.63
828.882	46.64
829.18	46.2
829.478	45.12
829.775	48.06
830.073	46.09
830.37	49.91
830.668	48.16
830.965	48.79
831.263	46.54
831.56	49.67
831.857	48.16
832.154	50.51
832.451	45.41
832.748	49.14
833.045	48.48
833.342	47.76
833.639	50.12
833.936	54.24
834.232	47.32
834.529	50.71
834.826	42.21
835.122	51.08
835.419	42.6
835.715	46.03
836.012	49.71
836.308	57.57
836.604	51.36
836.901	52.12
837.197	49.62
837.493	52.23
837.789	47.16
838.085	47.38
838.381	47.97
838.677	45.56
838.972	49.54
839.268	47.08
839.564	52.57
839.86	48.61
840.155	49.1
840.451	51.54
840.746	52
841.042	54.98
841.337	50.32
841.632	49.65
841.928	51.42
842.223	45.23
842.518	51.66
842.813	53.9
843.108	45.38
843.403	54.06
843.698	50.73
843.993	54.41
844.287	52.58
844.582	45.25
844.877	35.34
845.171	46.95
845.466	54.39
845.761	43.12
846.055	51.93
846.349	40.07
846.644	51.56
846.938	60.63
847.232	53.19
847.526	66.75
847.82	60.43
848.114	52.86
848.408	46.93
848.702	57.4
848.996	62.78
849.29	59.02
849.584	47.87
849.877	64.28
850.171	50.3
850.465	56.8
850.758	47.9
851.052	47.73
851.345	59.6
851.638	45.22
851.932	51.23
852.225	52.7
852.518	63.9
852.811	56.23
853.104	43.36
853.397	50.24
853.69	64.92
853.983	63.07
854.276	62.6
854.569	58.07
854.861	31.72
855.154	52.54
855.447	31.92
855.739	23.64
856.032	44.27
856.324	41.59
856.616	40.51
856.909	33.29
857.201	40.14
857.493	46.88
857.785	61.85
858.077	61.34
858.369	33.03
858.661	39.02
858.953	47.88
859.245	54.34
859.537	54.01
859.829	34.46
860.12	36.21
860.412	52.45
860.703	26.97
860.995	54.3
861.286	56.95
861.578	72.76
861.869	24.28
862.16	24.33
862.452	26.89
862.743	59.66
863.034	48.54
863.325	57.38
863.616	33.21
863.907	43.74
864.198	33.42
864.488	33.3
864.779	36.66
865.07	34.07
865.36	33.63
865.651	47.77
865.941	54.82
866.232	61.67
866.522	47.28
866.813	60.08
867.103	54.07
867.393	44.91
867.683	70.61
867.973	63.41
868.263	70.19
868.553	53.27
868.843	50.43
869.133	58.43
869.423	52.27
869.713	62.54
870.002	68.93
870.292	53.01
870.582	60.77
870.871	51.42
871.161	60.01
871.45	18.8
871.739	55.86
872.029	70.71
872.318	34.31
872.607	47.5
872.896	40.09
873.185	70.92
873.474	88.71
873.763	46.08
874.052	65.71
874.341	62.51
874.63	88.55
874.918	56.33
875.207	63.97
875.496	36.61
875.784	46.03
876.073	38.34
876.361	55.22
876.649	59.83
876.938	66.21
877.226	36.69
877.514	48.77
877.802	48.23
878.09	63.74
878.378	47.22
878.666	57.27
878.954	56.35
879.242	47.5
879.53	36.45
879.817	53.47
880.105	24
880.392	61.16
880.68	20.81
880.967	66.02
881.255	41.91
881.542	49.8
881.83	56.5
882.117	41.56
882.404	32.93
882.691	60.65
882.978	45.51
883.265	56.74
883.552	49.02
883.839	33.29
884.126	57.44
884.413	33.04
884.699	48.63
884.986	51.65
885.273	51.38
885.559	51.38
885.846	51.38
