Data from 0235_crown_Reflection__3__291.txt Node

Date: Fri Sep 22 23:01:58 CDT 2023
User: ToomeyLab
Spectrometer: FLMS14357
Trigger mode: 0
Integration Time (sec): 1.000000E-2
Scans to average: 100
Electric dark correction enabled: true
Nonlinearity correction enabled: false
Boxcar width: 0
XAxis mode: Wavelengths
Number of Pixels in Spectrum: 2048
>>>>>Begin Spectral Data<<<<<
189.047	726.67
189.435	726.67
189.823	726.67
190.211	290.16
190.599	191.72
190.987	-232.22
191.375	10585.71
191.763	-20
192.151	168.44
192.538	-130.21
192.926	94.72
193.314	66.59
193.702	127.03
194.089	130.81
194.477	-106.35
194.864	7.62
195.252	63.66
195.639	119.69
196.027	173.63
196.414	435.64
196.801	-549.56
197.189	35.46
197.576	173.57
197.963	55.57
198.351	30.73
198.738	23.63
199.125	40.58
199.512	24.01
199.899	29.32
200.286	-22.64
200.673	13.72
201.06	48.49
201.447	24.71
201.833	-106.02
202.22	25.14
202.607	28.75
202.994	20.13
203.38	14.95
203.767	9.13
204.154	25.26
204.54	1.57
204.927	1.11
205.313	32.05
205.699	53.16
206.086	56.35
206.472	47.54
206.858	10.3
207.245	-5.4
207.631	54.62
208.017	12.03
208.403	56.15
208.789	11.51
209.175	44.34
209.561	27.61
209.947	15.43
210.333	16.45
210.719	5.03
211.105	29.17
211.491	5.31
211.876	48.33
212.262	47.29
212.648	23.88
213.034	15.77
213.419	34.98
213.805	0.31
214.19	8.91
214.576	23.28
214.961	3.19
215.346	-12.37
215.732	3.76
216.117	0.07
216.502	34.17
216.888	14.13
217.273	21.16
217.658	23.9
218.043	7.51
218.428	23.44
218.813	13.62
219.198	17.48
219.583	8.06
219.968	-8.41
220.353	23.95
220.738	-22.92
221.122	4.8
221.507	2.37
221.892	2.27
222.276	1.88
222.661	-22.01
223.046	10.72
223.43	12.29
223.815	14.32
224.199	-1.04
224.583	13.26
224.968	7.22
225.352	-1.97
225.736	-0.78
226.121	4.5
226.505	10.73
226.889	10.51
227.273	15.7
227.657	2.16
228.041	1.09
228.425	2.85
228.809	3.63
229.193	5.49
229.577	9.21
229.961	7.02
230.344	6.16
230.728	4.03
231.112	5.31
231.495	4.88
231.879	4.83
232.263	3.77
232.646	5.74
233.03	3.94
233.413	6.28
233.797	6.43
234.18	5.09
234.563	5.84
234.946	5.56
235.33	0.34
235.713	3.51
236.096	3.6
236.479	4.7
236.862	6.43
237.245	4.89
237.628	4.11
238.011	5.67
238.394	4.43
238.777	7.76
239.16	6.48
239.543	7.62
239.925	7.15
240.308	7.46
240.691	6.02
241.073	6.21
241.456	5.58
241.838	5.37
242.221	5.53
242.603	5.52
242.986	5.53
243.368	4.17
243.75	5.41
244.133	5.63
244.515	5.06
244.897	4.99
245.279	5.02
245.661	4.83
246.043	4.71
246.425	3.7
246.807	5.56
247.189	3.84
247.571	5.21
247.953	4.67
248.335	4.74
248.717	5.31
249.098	5.06
249.48	4.9
249.862	4.84
250.243	5
250.625	5.12
251.006	4.69
251.388	4.97
251.769	4.31
252.151	5.51
252.532	4.94
252.913	4.99
253.295	5.56
253.676	4.86
254.057	5.09
254.438	5.22
254.819	4.89
255.2	5.24
255.581	5.31
255.962	5.45
256.343	3.97
256.724	3.91
257.105	6.08
257.486	4.97
257.867	5.53
258.247	4.66
258.628	5.47
259.009	4.45
259.389	4.14
259.77	4.6
260.15	5.71
260.531	4.49
260.911	4.37
261.292	4.83
261.672	4.33
262.052	4.63
262.432	4.52
262.813	4.8
263.193	3.91
263.573	5.1
263.953	5.13
264.333	4.75
264.713	4.43
265.093	4.31
265.473	4.34
265.853	4.15
266.233	5
266.612	3.82
266.992	5
267.372	4.23
267.752	4.63
268.131	5.2
268.511	4.42
268.89	5.04
269.27	4.11
269.649	5.08
270.029	5.02
270.408	4.5
270.787	4.79
271.167	4.12
271.546	4.69
271.925	4.41
272.304	4.5
272.683	4.43
273.062	4.48
273.441	4.3
273.82	5.32
274.199	4.57
274.578	4.47
274.957	4.34
275.336	4.21
275.715	4.45
276.093	4.69
276.472	4.66
276.851	4.41
277.229	3.74
277.608	4.79
277.986	4.62
278.365	4.86
278.743	4.28
279.122	4.76
279.5	4.85
279.878	4.45
280.257	5.15
280.635	4.58
281.013	4.93
281.391	3.26
281.769	4.97
282.147	4.61
282.525	4.29
282.903	4.64
283.281	4.02
283.659	4.69
284.037	4.39
284.415	4.55
284.792	4.07
285.17	4.56
285.548	5.41
285.925	4.41
286.303	4.3
286.68	4.16
287.058	4.28
287.435	3.91
287.813	4.44
288.19	4.2
288.567	4.84
288.945	4.1
289.322	4.29
289.699	4.32
290.076	4.54
290.453	4.43
290.83	3.78
291.207	4.11
291.584	4.2
291.961	4.07
292.338	4.56
292.715	4.72
293.092	4.32
293.469	3.99
293.845	3.9
294.222	4.22
294.599	4.78
294.975	4.89
295.352	4.15
295.728	4.21
296.105	4.53
296.481	4.69
296.858	4.58
297.234	4.8
297.61	4.27
297.986	4.17
298.363	4.11
298.739	4.46
299.115	4.32
299.491	4.33
299.867	4.2
300.243	4.16
300.619	4.54
300.995	4
301.371	4.88
301.746	4.99
302.122	4.72
302.498	4.12
302.874	4.39
303.249	4.36
303.625	4.07
304	4.97
304.376	4.66
304.751	4.69
305.127	4.51
305.502	4.67
305.878	4.39
306.253	4.56
306.628	4.21
307.003	4.62
307.378	4.3
307.754	4.7
308.129	4.44
308.504	4.61
308.879	4.99
309.254	4.45
309.629	4.61
310.003	4.79
310.378	5.11
310.753	4.6
311.128	4.47
311.502	4.8
311.877	4.29
312.252	4.75
312.626	4.49
313.001	4.94
313.375	4.56
313.75	4.64
314.124	4.72
314.498	4.26
314.873	4.58
315.247	4.88
315.621	4.31
315.995	4.36
316.369	4.48
316.743	4.53
317.117	4.39
317.491	4.95
317.865	4.25
318.239	4.16
318.613	4.71
318.987	4.39
319.361	4.44
319.734	4.32
320.108	4.84
320.482	3.95
320.855	4.33
321.229	4.76
321.602	4.69
321.976	4.23
322.349	4.93
322.723	4.39
323.096	4.66
323.469	4.5
323.843	4.32
324.216	4.46
324.589	3.84
324.962	4.44
325.335	4.22
325.708	4.22
326.081	5.08
326.454	4.16
326.827	4.58
327.2	4.45
327.573	4.89
327.945	4.68
328.318	4.29
328.691	4.69
329.063	3.88
329.436	4.1
329.809	4.28
330.181	4.45
330.553	4.28
330.926	4.71
331.298	4.62
331.671	4.48
332.043	3.93
332.415	3.99
332.787	4.59
333.159	4.27
333.532	4.06
333.904	3.86
334.276	4.02
334.648	3.77
335.02	4.18
335.391	4.67
335.763	4.46
336.135	4.34
336.507	4.6
336.879	3.99
337.25	4.51
337.622	4.37
337.993	4.47
338.365	4.19
338.736	4.28
339.108	3.95
339.479	4.02
339.851	3.98
340.222	4.16
340.593	4.06
340.964	3.39
341.336	4.19
341.707	3.93
342.078	4.41
342.449	4.31
342.82	4.08
343.191	4.36
343.562	4.37
343.933	4.55
344.303	4.28
344.674	4.91
345.045	4.19
345.416	4.72
345.786	3.92
346.157	4.3
346.527	3.81
346.898	3.88
347.268	4.2
347.639	4.55
348.009	4.31
348.38	3.96
348.75	4.31
349.12	4.14
349.49	4.5
349.861	4.01
350.231	4.09
350.601	4.46
350.971	4.44
351.341	4.32
351.711	4.22
352.081	3.77
352.45	4.21
352.82	4.56
353.19	4.58
353.56	4.08
353.929	4.37
354.299	4.62
354.669	3.94
355.038	4.04
355.408	3.99
355.777	4.52
356.147	4.46
356.516	4.47
356.885	4.29
357.254	4.28
357.624	3.65
357.993	4.18
358.362	4.14
358.731	3.87
359.1	4.14
359.469	4.23
359.838	3.89
360.207	3.77
360.576	4.26
360.945	4.09
361.314	4.04
361.682	4.58
362.051	4.42
362.42	3.88
362.788	3.95
363.157	4.18
363.525	3.89
363.894	4.24
364.262	3.99
364.631	4.04
364.999	4.14
365.367	4.3
365.735	4.21
366.104	4.01
366.472	4.37
366.84	3.88
367.208	4.47
367.576	4.26
367.944	4.24
368.312	4.4
368.68	4.02
369.048	4.23
369.416	4.07
369.783	4.22
370.151	3.83
370.519	4.13
370.886	4.26
371.254	4.22
371.621	4.09
371.989	4.15
372.356	4.09
372.724	4.03
373.091	4.53
373.458	4.05
373.826	4.18
374.193	4.2
374.56	4.24
374.927	4.6
375.294	4.33
375.661	4.18
376.028	4.44
376.395	4.65
376.762	4.04
377.129	4.36
377.496	4.29
377.863	4.24
378.229	4.07
378.596	4.15
378.963	4.67
379.329	4.17
379.696	4.51
380.062	4.02
380.429	3.96
380.795	4.31
381.161	4.21
381.528	4.21
381.894	3.64
382.26	4.02
382.626	4.03
382.993	4.31
383.359	4
383.725	4.14
384.091	4.38
384.457	4.35
384.823	4.22
385.188	4.33
385.554	4.29
385.92	4.45
386.286	4.24
386.651	4.5
387.017	4.6
387.383	4.03
387.748	3.95
388.114	4.26
388.479	4.2
388.845	4.24
389.21	4.15
389.575	4.55
389.94	3.91
390.306	4.43
390.671	4.47
391.036	3.98
391.401	4.13
391.766	4.4
392.131	4.1
392.496	4.19
392.861	4.45
393.226	4.37
393.591	4.35
393.956	4.02
394.32	4.26
394.685	4.33
395.05	4.44
395.414	4.27
395.779	4.07
396.143	4.13
396.508	4.18
396.872	4.03
397.236	4.38
397.601	4.14
397.965	4.48
398.329	4.37
398.694	4.15
399.058	4.27
399.422	4.26
399.786	4.21
400.15	4.24
400.514	4.31
400.878	4.37
401.242	4.31
401.605	4.34
401.969	3.89
402.333	4.39
402.697	4.09
403.06	4.08
403.424	4.31
403.787	4.38
404.151	4.34
404.514	4.57
404.878	4.28
405.241	4.45
405.604	4.26
405.968	4.44
406.331	4.15
406.694	4.18
407.057	4.12
407.42	4.42
407.783	4.48
408.146	4.4
408.509	4.25
408.872	4.35
409.235	4.1
409.598	4.18
409.961	4.5
410.323	4.37
410.686	4.07
411.049	4.44
411.411	4.49
411.774	4.26
412.136	4.21
412.499	4.35
412.861	4.34
413.223	4.32
413.586	4.27
413.948	4.27
414.31	4.23
414.672	4.4
415.035	4.43
415.397	4.54
415.759	4.83
416.121	4.17
416.483	4.2
416.845	4.34
417.206	4.19
417.568	4.21
417.93	4.14
418.292	4.37
418.653	4.15
419.015	4.29
419.377	4.15
419.738	4.21
420.1	4.15
420.461	4.41
420.822	4.25
421.184	4.32
421.545	4.23
421.906	4.23
422.267	4.23
422.629	4.36
422.99	4.27
423.351	4.22
423.712	4.2
424.073	4.25
424.434	4.31
424.795	4.27
425.155	4.37
425.516	4.27
425.877	4.22
426.238	4.05
426.598	4.25
426.959	4.2
427.32	4.38
427.68	4.13
428.041	4.13
428.401	4.35
428.761	4.35
429.122	4.24
429.482	4.47
429.842	4.22
430.202	4.39
430.563	4.47
430.923	4.51
431.283	4.64
431.643	4.34
432.003	4.38
432.363	4.6
432.722	4.26
433.082	4.56
433.442	4.31
433.802	4.42
434.161	4.3
434.521	4.32
434.881	4.43
435.24	4.44
435.6	4.22
435.959	4.37
436.319	4.33
436.678	4.54
437.037	4.46
437.396	4.55
437.756	4.42
438.115	4.41
438.474	4.37
438.833	4.42
439.192	4.27
439.551	4.3
439.91	4.65
440.269	4.45
440.628	4.33
440.987	4.39
441.345	4.39
441.704	4.4
442.063	4.45
442.421	4.29
442.78	4.45
443.138	4.41
443.497	4.33
443.855	4.39
444.214	4.26
444.572	4.44
444.93	4.51
445.288	4.39
445.647	4.46
446.005	4.29
446.363	4.3
446.721	4.54
447.079	4.4
447.437	4.41
447.795	4.56
448.153	4.31
448.51	4.43
448.868	4.28
449.226	4.44
449.584	4.36
449.941	4.36
450.299	4.45
450.656	4.56
451.014	4.56
451.371	4.41
451.729	4.39
452.086	4.43
452.443	4.48
452.801	4.55
453.158	4.46
453.515	4.51
453.872	4.45
454.229	4.53
454.586	4.47
454.943	4.46
455.3	4.5
455.657	4.43
456.014	4.48
456.371	4.42
456.727	4.66
457.084	4.62
457.441	4.44
457.797	4.6
458.154	4.42
458.51	4.44
458.867	4.32
459.223	4.4
459.58	4.68
459.936	4.62
460.292	4.4
460.648	4.71
461.005	4.56
461.361	4.51
461.717	4.35
462.073	4.42
462.429	4.35
462.785	4.47
463.141	4.53
463.496	4.57
463.852	4.48
464.208	4.51
464.564	4.6
464.919	4.52
465.275	4.69
465.631	4.79
465.986	4.63
466.342	4.57
466.697	4.51
467.052	4.52
467.408	4.6
467.763	4.62
468.118	4.84
468.473	4.82
468.829	4.54
469.184	4.49
469.539	4.55
469.894	4.49
470.249	4.64
470.603	4.58
470.958	4.52
471.313	4.86
471.668	4.65
472.023	4.56
472.377	4.48
472.732	4.54
473.086	4.81
473.441	4.34
473.795	4.65
474.15	4.41
474.504	4.55
474.859	4.54
475.213	4.41
475.567	4.39
475.921	4.67
476.275	4.56
476.63	4.54
476.984	4.64
477.338	4.77
477.692	4.61
478.045	4.67
478.399	4.64
478.753	4.58
479.107	4.77
479.461	4.6
479.814	4.64
480.168	4.59
480.521	4.75
480.875	4.76
481.228	4.76
481.582	4.58
481.935	4.65
482.289	4.59
482.642	4.55
482.995	4.63
483.348	4.72
483.701	4.69
484.055	4.67
484.408	4.62
484.761	4.69
485.114	4.51
485.466	4.44
485.819	4.36
486.172	4.36
486.525	4.35
486.878	4.39
487.23	4.44
487.583	4.48
487.936	4.53
488.288	4.57
488.641	4.5
488.993	4.51
489.345	4.56
489.698	4.4
490.05	4.45
490.402	4.47
490.754	4.45
491.107	4.47
491.459	4.57
491.811	4.54
492.163	4.62
492.515	4.61
492.866	4.53
493.218	4.68
493.57	4.62
493.922	4.5
494.274	4.52
494.625	4.54
494.977	4.64
495.328	4.76
495.68	4.69
496.031	4.62
496.383	4.74
496.734	4.79
497.086	4.8
497.437	4.86
497.788	4.81
498.139	4.89
498.49	4.87
498.842	4.64
499.193	4.76
499.544	4.85
499.894	4.81
500.245	4.77
500.596	4.77
500.947	4.8
501.298	4.8
501.648	4.95
501.999	4.86
502.35	4.9
502.7	4.95
503.051	4.81
503.401	4.82
503.752	4.93
504.102	4.84
504.452	4.94
504.803	4.87
505.153	4.85
505.503	4.98
505.853	4.88
506.203	4.7
506.553	5.04
506.903	4.79
507.253	4.73
507.603	4.86
507.953	4.97
508.303	4.9
508.652	5.07
509.002	5.03
509.352	4.79
509.701	4.82
510.051	4.92
510.4	4.94
510.75	4.77
511.099	4.82
511.449	5
511.798	4.89
512.147	4.88
512.496	4.81
512.846	4.88
513.195	4.91
513.544	4.94
513.893	4.95
514.242	4.83
514.591	4.91
514.939	4.89
515.288	4.79
515.637	4.81
515.986	4.89
516.334	4.89
516.683	4.87
517.032	4.96
517.38	5.06
517.729	4.86
518.077	4.91
518.426	4.96
518.774	4.9
519.122	4.97
519.47	4.89
519.819	4.97
520.167	4.92
520.515	4.89
520.863	4.78
521.211	4.82
521.559	4.77
521.907	4.82
522.255	4.95
522.602	4.9
522.95	4.88
523.298	4.98
523.645	4.96
523.993	4.89
524.341	5.07
524.688	4.96
525.036	4.93
525.383	5.03
525.73	5.05
526.078	5.08
526.425	5.06
526.772	5.1
527.119	4.82
527.466	4.83
527.814	4.86
528.161	4.81
528.508	4.9
528.854	4.9
529.201	4.88
529.548	5
529.895	4.86
530.242	4.84
530.588	4.8
530.935	4.68
531.282	4.69
531.628	4.76
531.975	4.74
532.321	4.78
532.667	4.83
533.014	4.9
533.36	4.93
533.706	4.87
534.052	4.99
534.399	4.96
534.745	4.96
535.091	4.75
535.437	4.81
535.783	4.74
536.129	4.89
536.474	4.95
536.82	4.87
537.166	4.97
537.512	5
537.857	4.99
538.203	5
538.549	5
538.894	4.97
539.239	4.95
539.585	4.89
539.93	4.95
540.276	4.91
540.621	5.11
540.966	5.1
541.311	5.08
541.656	4.98
542.001	5.04
542.346	5.05
542.691	5.03
543.036	4.98
543.381	4.88
543.726	4.91
544.071	4.89
544.415	4.9
544.76	4.86
545.105	4.91
545.449	4.96
545.794	5.06
546.138	5.06
546.483	5.12
546.827	4.99
547.171	5.05
547.516	5.2
547.86	5.28
548.204	5.19
548.548	5.2
548.892	5.15
549.236	5.05
549.58	5.05
549.924	5.2
550.268	5.3
550.612	5.18
550.956	5.18
551.3	5.3
551.643	5.12
551.987	5.34
552.33	5.23
552.674	5.17
553.017	5.2
553.361	5.06
553.704	5.21
554.048	5.17
554.391	5.27
554.734	5.34
555.077	5.29
555.42	5.1
555.764	5.3
556.107	5.3
556.45	5.24
556.793	5.17
557.135	5.14
557.478	5.15
557.821	5.45
558.164	5.38
558.507	5.55
558.849	5.26
559.192	5.29
559.534	5.46
559.877	5.32
560.219	5.38
560.562	5.47
560.904	5.46
561.246	5.51
561.589	5.41
561.931	5.23
562.273	5.18
562.615	5.35
562.957	5.1
563.299	5.33
563.641	5.54
563.983	5.43
564.325	5.48
564.667	5.32
565.008	5.27
565.35	5.49
565.692	5.31
566.033	5.27
566.375	5.48
566.716	5.1
567.058	5.38
567.399	5.3
567.741	5.54
568.082	5.28
568.423	5.33
568.764	5.5
569.105	5.15
569.447	5.28
569.788	5.3
570.129	5.46
570.47	5.36
570.811	5.43
571.151	5.58
571.492	5.22
571.833	5.43
572.174	5.55
572.514	5.53
572.855	5.42
573.195	5.31
573.536	5.33
573.876	5.43
574.217	5.38
574.557	5.39
574.898	5.39
575.238	5.5
575.578	5.49
575.918	5.48
576.258	5.22
576.598	5.54
576.938	5.44
577.278	5.54
577.618	5.19
577.958	5.43
578.298	5.61
578.638	5.32
578.977	5.42
579.317	5.57
579.657	5.45
579.996	5.55
580.336	5.64
580.675	5.5
581.014	5.4
581.354	5.35
581.693	5.52
582.032	5.6
582.372	5.6
582.711	5.57
583.05	5.75
583.389	5.63
583.728	5.43
584.067	5.49
584.406	5.66
584.745	5.32
585.083	5.87
585.422	5.68
585.761	5.57
586.1	5.39
586.438	5.44
586.777	5.66
587.115	5.57
587.454	5.37
587.792	5.84
588.13	5.88
588.469	5.45
588.807	5.48
589.145	5.48
589.483	5.67
589.821	5.6
590.159	5.72
590.497	5.89
590.835	5.78
591.173	5.63
591.511	5.84
591.849	5.66
592.187	5.61
592.524	5.88
592.862	5.63
593.2	5.61
593.537	5.57
593.875	5.63
594.212	5.67
594.55	5.82
594.887	5.52
595.224	5.77
595.561	5.83
595.899	5.81
596.236	5.88
596.573	5.8
596.91	5.71
597.247	5.84
597.584	5.94
597.921	5.84
598.258	5.69
598.594	5.86
598.931	5.67
599.268	5.71
599.604	5.82
599.941	5.79
600.277	5.65
600.614	5.56
600.95	5.74
601.287	5.55
601.623	5.79
601.959	5.8
602.296	5.71
602.632	5.51
602.968	5.86
603.304	5.66
603.64	5.62
603.976	5.59
604.312	5.85
604.648	5.73
604.984	5.93
605.319	5.72
605.655	5.65
605.991	5.92
606.326	5.98
606.662	5.48
606.998	5.67
607.333	5.87
607.668	5.75
608.004	5.76
608.339	5.72
608.674	5.85
609.01	5.85
609.345	5.96
609.68	5.82
610.015	5.92
610.35	5.71
610.685	6
611.02	5.83
611.355	5.96
611.689	5.57
612.024	5.84
612.359	5.59
612.694	5.91
613.028	5.65
613.363	5.75
613.697	6.05
614.032	5.84
614.366	5.84
614.7	6.06
615.035	5.84
615.369	5.99
615.703	5.83
616.037	5.83
616.371	6.04
616.705	6.09
617.039	6.2
617.373	6.02
617.707	5.84
618.041	6.3
618.375	5.88
618.709	5.85
619.042	6.38
619.376	6.18
619.71	5.66
620.043	5.71
620.377	6.02
620.71	5.9
621.043	6.25
621.377	5.76
621.71	5.75
622.043	6.02
622.376	5.95
622.709	5.93
623.043	6.17
623.376	5.96
623.709	6.36
624.041	6.05
624.374	5.95
624.707	6.36
625.04	6.23
625.373	5.82
625.705	5.88
626.038	6.01
626.37	6.72
626.703	6.03
627.035	6.24
627.368	6.1
627.7	6.2
628.032	6.53
628.365	5.98
628.697	6.01
629.029	6.05
629.361	6.06
629.693	6.53
630.025	5.89
630.357	5.88
630.689	5.88
631.021	6.09
631.353	6.16
631.684	6.09
632.016	6.33
632.348	5.88
632.679	5.78
633.011	6.13
633.342	6.3
633.674	6.36
634.005	6.16
634.336	6.03
634.668	6.16
634.999	6.13
635.33	6.47
635.661	6.32
635.992	5.97
636.323	6.16
636.654	6.29
636.985	6.3
637.316	6.18
637.647	6.02
637.977	5.82
638.308	6.61
638.639	6.01
638.969	6.16
639.3	6.14
639.63	6.56
639.961	6.02
640.291	6.16
640.622	6.3
640.952	6.27
641.282	6.27
641.612	6.4
641.943	6.48
642.273	6.33
642.603	6.24
642.933	6.15
643.263	5.94
643.592	6.49
643.922	6.55
644.252	6.3
644.582	6.72
644.911	6.36
645.241	6.31
645.571	6.08
645.9	6.12
646.23	6.61
646.559	6.28
646.888	6.51
647.218	6.03
647.547	5.9
647.876	6.34
648.205	5.96
648.534	6.53
648.863	6.36
649.192	5.99
649.521	6.36
649.85	6.26
650.179	6.58
650.508	6.29
650.837	6.82
651.165	6.75
651.494	6.53
651.822	6.17
652.151	6.03
652.479	6.08
652.808	6.15
653.136	6.69
653.465	6.27
653.793	6.29
654.121	6.56
654.449	6.15
654.777	6.27
655.105	6.26
655.433	6.34
655.761	6.56
656.089	6.75
656.417	6.46
656.745	6.41
657.073	6.39
657.4	6.92
657.728	6.44
658.056	6.58
658.383	6.73
658.711	6.43
659.038	6.18
659.365	6.4
659.693	6.5
660.02	6.76
660.347	6.57
660.674	5.98
661.001	6.28
661.329	6
661.656	6.59
661.982	6.06
662.309	6.75
662.636	6.36
662.963	6.76
663.29	6.6
663.616	6.44
663.943	6.41
664.27	6.49
664.596	6.27
664.923	6.35
665.249	6.41
665.576	5.9
665.902	6.44
666.228	6.71
666.554	6.13
666.881	6.85
667.207	6.69
667.533	6.24
667.859	6.78
668.185	7.03
668.511	7.32
668.837	6.26
669.162	6.84
669.488	6.88
669.814	6.42
670.139	6.74
670.465	7.22
670.791	6.42
671.116	6.49
671.442	6.59
671.767	5.92
672.092	6.68
672.418	7.37
672.743	6.73
673.068	6.52
673.393	6.09
673.718	6.36
674.043	7.47
674.368	6.52
674.693	6.64
675.018	6.95
675.343	6.17
675.667	7.07
675.992	7.22
676.317	7.11
676.641	6.53
676.966	6.73
677.29	6.37
677.615	6.48
677.939	7.01
678.264	6.74
678.588	7.37
678.912	7.11
679.236	6.26
679.56	6.79
679.885	6.92
680.209	7.29
680.532	7.04
680.856	6.84
681.18	7.28
681.504	6.96
681.828	7.1
682.152	7.18
682.475	7.22
682.799	6.66
683.122	6.93
683.446	6.7
683.769	6.94
684.093	6.63
684.416	6.9
684.739	6.52
685.062	7.65
685.386	6.81
685.709	6.99
686.032	7.32
686.355	6.6
686.678	6.84
687.001	6.59
687.324	7.69
687.646	6.68
687.969	7.29
688.292	7.09
688.614	8.11
688.937	7.27
689.26	6.38
689.582	7.38
689.904	6.99
690.227	7.2
690.549	7.45
690.871	6.55
691.194	7.33
691.516	6.8
691.838	7.58
692.16	6.79
692.482	7.06
692.804	6.25
693.126	6.4
693.448	7.31
693.769	6.48
694.091	7.89
694.413	8.2
694.735	6.87
695.056	8.1
695.378	8.09
695.699	7.45
696.021	6.77
696.342	8.2
696.663	6.45
696.984	7.26
697.306	7.47
697.627	6.86
697.948	6.64
698.269	7.5
698.59	7.01
698.911	6.69
699.232	7.89
699.553	6.89
699.873	7.14
700.194	7.06
700.515	6.45
700.835	7.36
701.156	7.32
701.477	7.45
701.797	6.96
702.117	7.15
702.438	6.94
702.758	7.08
703.078	6.68
703.398	7.28
703.719	6.99
704.039	7.21
704.359	6.98
704.679	6.25
704.999	8.05
705.319	7.61
705.638	6.98
705.958	7.84
706.278	8.79
706.597	7.8
706.917	6.92
707.237	6.86
707.556	7.08
707.876	6.16
708.195	8.02
708.514	7.92
708.834	7.43
709.153	8.26
709.472	7.43
709.791	6.39
710.11	7.43
710.429	8.8
710.748	7.08
711.067	6.64
711.386	7.86
711.705	7.11
712.023	7.87
712.342	7.11
712.661	7.49
712.979	7.14
713.298	9.03
713.616	6.52
713.935	7.45
714.253	7.98
714.572	8.06
714.89	7.85
715.208	7.96
715.526	7.16
715.844	8.29
716.162	7.04
716.48	7.56
716.798	7.41
717.116	8.16
717.434	8.08
717.752	7.53
718.069	7
718.387	7.32
718.705	7.06
719.022	8.69
719.34	7.44
719.657	6.31
719.975	8.39
720.292	7.8
720.609	8.96
720.927	7.47
721.244	7.69
721.561	7.96
721.878	6.78
722.195	7.61
722.512	8.37
722.829	8.4
723.146	8.78
723.463	8.06
723.779	7.18
724.096	7.37
724.413	7.88
724.729	8.83
725.046	8.73
725.362	8.52
725.679	6.54
725.995	8.35
726.311	6.29
726.628	6.44
726.944	6.05
727.26	8.08
727.576	6.42
727.892	6.73
728.208	8.48
728.524	8.35
728.84	7.43
729.156	6.89
729.472	9.43
729.787	8.24
730.103	8.03
730.419	8.38
730.734	8.46
731.05	6.39
731.365	7.92
731.681	8.52
731.996	7.85
732.311	9.08
732.626	8.11
732.942	7.74
733.257	8.43
733.572	7.3
733.887	8.06
734.202	7.96
734.517	9.3
734.832	8.61
735.146	9.63
735.461	9.26
735.776	7.91
736.091	8.36
736.405	7.56
736.72	8.1
737.034	7.31
737.349	6.77
737.663	7.84
737.977	9.3
738.292	7.46
738.606	8.7
738.92	7.28
739.234	8.68
739.548	7.62
739.862	7.05
740.176	8.45
740.49	6.9
740.804	7.97
741.117	8.62
741.431	7.67
741.745	8.45
742.058	5.99
742.372	5.99
742.685	9.03
742.999	7.4
743.312	8.85
743.626	6.27
743.939	7.11
744.252	9.19
744.565	8.6
744.878	8.19
745.191	8.04
745.505	7.34
745.817	9.4
746.13	9.05
746.443	9.06
746.756	8.85
747.069	9.45
747.381	5.38
747.694	6.91
748.007	9.56
748.319	8.36
748.632	7.95
748.944	9.53
749.256	7.51
749.569	7.28
749.881	8.37
750.193	9.09
750.505	9.27
750.817	9.42
751.129	8.16
751.441	9.84
751.753	10.53
752.065	9.59
752.377	8.37
752.689	9.67
753	8.44
753.312	7.54
753.624	7.11
753.935	10.13
754.247	8.82
754.558	9.81
754.869	10.14
755.181	7.94
755.492	7.81
755.803	9.32
756.114	9.95
756.425	9.9
756.736	9.23
757.047	8.49
757.358	8.01
757.669	7.76
757.98	8.09
758.291	9.98
758.601	9.28
758.912	7.32
759.223	9.75
759.533	9.28
759.844	9.32
760.154	9.22
760.464	7.65
760.775	9.51
761.085	10.51
761.395	9.6
761.705	7.98
762.016	7.3
762.326	8.94
762.636	8.89
762.945	9.12
763.255	8.76
763.565	7.19
763.875	6.79
764.185	9.46
764.494	10.18
764.804	8.33
765.113	6.64
765.423	6.71
765.732	7.23
766.042	9.92
766.351	8.56
766.66	9.11
766.97	9.43
767.279	8.08
767.588	8.67
767.897	8.59
768.206	7.74
768.515	9.29
768.824	10.36
769.133	7.99
769.441	8.38
769.75	10.87
770.059	8.91
770.367	8
770.676	11.24
770.984	8.09
771.293	11.14
771.601	9.44
771.91	10.75
772.218	9.18
772.526	8.04
772.834	8.36
773.142	10.55
773.45	10.59
773.758	8.42
774.066	8.66
774.374	9.42
774.682	9.3
774.99	11.62
775.298	11.72
775.605	13.07
775.913	13.2
776.22	9.02
776.528	8.64
776.835	6.86
777.143	10.11
777.45	8.07
777.757	8.57
778.065	9.5
778.372	10.18
778.679	11.11
778.986	10.61
779.293	6.81
779.6	7.78
779.907	9.58
780.214	14.13
780.52	7.59
780.827	7.87
781.134	12.09
781.44	10.64
781.747	11.2
782.053	10.59
782.36	9.45
782.666	8.42
782.973	9.89
783.279	8.65
783.585	9.71
783.891	10.35
784.197	12.72
784.503	8.99
784.809	7.43
785.115	7.86
785.421	15.68
785.727	11.68
786.033	9.74
786.339	9.79
786.644	10.73
786.95	6.94
787.255	12.08
787.561	11.5
787.866	7.6
788.172	10.09
788.477	6.21
788.782	11.4
789.088	6.71
789.393	7.39
789.698	11.07
790.003	11.65
790.308	7.89
790.613	8.27
790.918	10.04
791.223	6.75
791.527	6.15
791.832	9.39
792.137	9.55
792.441	12.12
792.746	7.08
793.05	10.65
793.355	13.16
793.659	11.66
793.963	16.36
794.268	5.73
794.572	8.65
794.876	8.78
795.18	9.78
795.484	6.6
795.788	5.36
796.092	9.71
796.396	9.08
796.7	8.76
797.004	9.41
797.307	9.18
797.611	5.77
797.915	8.92
798.218	11.29
798.522	9.63
798.825	11.04
799.128	11.45
799.432	10.81
799.735	7.75
800.038	10.2
800.341	14.49
800.644	12.22
800.947	12.03
801.25	14.19
801.553	13.27
801.856	14.97
802.159	6.22
802.462	10.01
802.764	11.88
803.067	8.01
803.37	11.94
803.672	13.72
803.975	13.22
804.277	12.38
804.579	9.39
804.882	13.71
805.184	10.66
805.486	8.43
805.788	14.5
806.09	12.45
806.392	4.79
806.694	9.37
806.996	12.57
807.298	9.52
807.6	12.71
807.902	13.31
808.203	8.32
808.505	11.25
808.807	13.39
809.108	11.72
809.409	15.57
809.711	15.28
810.012	13.18
810.313	6.41
810.615	8.89
810.916	11.39
811.217	13.36
811.518	11.79
811.819	14.84
812.12	12.89
812.421	10.45
812.722	9.84
813.023	11.66
813.323	9.69
813.624	10.13
813.925	13.14
814.225	17.95
814.526	7.91
814.826	13.66
815.126	13.33
815.427	10.31
815.727	7.23
816.027	4.16
816.327	6.02
816.627	15.71
816.927	13.05
817.227	3.45
817.527	12.37
817.827	6.85
818.127	7.29
818.427	12.08
818.727	11.5
819.026	17.15
819.326	11.86
819.625	12.63
819.925	5.96
820.224	12.06
820.524	10.34
820.823	9.17
821.122	3.5
821.421	15.26
821.72	10.72
822.019	6.83
822.318	12.47
822.617	6.57
822.916	14.85
823.215	16.14
823.514	10.93
823.813	16.32
824.111	12.88
824.41	10.39
824.709	7.58
825.007	10.14
825.306	10.57
825.604	10.05
825.902	10.52
826.201	11.73
826.499	10.84
826.797	10.92
827.095	10.85
827.393	11.2
827.691	10.41
827.989	8.76
828.287	10.84
828.585	10.41
828.882	9.68
829.18	12.01
829.478	9.12
829.775	10.9
830.073	9.82
830.37	12.04
830.668	10.62
830.965	11.18
831.263	8.13
831.56	11.89
831.857	11.54
832.154	13.11
832.451	12.21
832.748	8.39
833.045	8.31
833.342	9.44
833.639	10.42
833.936	18.03
834.232	16.68
834.529	18.2
834.826	11.85
835.122	14.24
835.419	10.64
835.715	13.06
836.012	9.03
836.308	16.41
836.604	12.58
836.901	9.19
837.197	11.77
837.493	13.26
837.789	9
838.085	8.51
838.381	11.24
838.677	4.67
838.972	13.58
839.268	12.99
839.564	13.44
839.86	11.23
840.155	8.79
840.451	8.42
840.746	12.49
841.042	11.08
841.337	18.36
841.632	15.16
841.928	15.89
842.223	18.41
842.518	20.44
842.813	14.8
843.108	1.82
843.403	11.63
843.698	16.11
843.993	12.74
844.287	19.44
844.582	13.45
844.877	7
845.171	14.72
845.466	11.8
845.761	0.58
846.055	10.19
846.349	3.78
846.644	12.49
846.938	10.76
847.232	17.06
847.526	16.85
847.82	7.25
848.114	10.14
848.408	18.22
848.702	11.98
848.996	18.29
849.29	11.4
849.584	2.38
849.877	29.32
850.171	8.59
850.465	17.15
850.758	15.17
851.052	-0.25
851.345	29.92
851.638	4.08
851.932	29.69
852.225	14.38
852.518	9.56
852.811	13.87
853.104	16.08
853.397	21.62
853.69	14.79
853.983	14.6
854.276	6.97
854.569	7.62
854.861	6.26
855.154	14.52
855.447	-0.71
855.739	-16.65
856.032	28.02
856.324	19.59
856.616	28.48
856.909	25.66
857.201	23.36
857.493	4.89
857.785	18.47
858.077	25.68
858.369	13.95
858.661	35.03
858.953	13.85
859.245	11.07
859.537	20.84
859.829	27.09
860.12	10.8
860.412	11.86
860.703	0.6
860.995	5.06
861.286	22.94
861.578	8.36
861.869	-9.35
862.16	16.53
862.452	-14.87
862.743	43.28
863.034	24.97
863.325	14.47
863.616	-5.64
863.907	16.4
864.198	3.85
864.488	-16.65
864.779	8.49
865.07	5.37
865.36	-8.74
865.651	31.35
865.941	-8.74
866.232	-1.35
866.522	19.37
866.813	16.72
867.103	48.15
867.393	14.49
867.683	26.15
867.973	12.76
868.263	15.75
868.553	6.69
868.843	1.54
869.133	16.84
869.423	20.12
869.713	23.33
870.002	24.72
870.292	0.48
870.582	5.17
870.871	0.06
871.161	8.46
871.45	11.76
871.739	11.33
872.029	2.19
872.318	11.02
872.607	23.76
872.896	2.33
873.185	-9.86
873.474	27.73
873.763	25.38
874.052	30.95
874.341	22.23
874.63	23.62
874.918	-0.03
875.207	6.47
875.496	21.6
875.784	5.08
876.073	3.84
876.361	13.31
876.649	22.37
876.938	42.15
877.226	-7.8
877.514	26.45
877.802	0.73
878.09	16.67
878.378	23.81
878.666	49.39
878.954	46.94
879.242	18.82
879.53	-4.16
879.817	19.47
880.105	9.68
880.392	6.3
880.68	26.42
880.967	19.79
881.255	17.89
881.542	2.92
881.83	32.11
882.117	2.02
882.404	12.18
882.691	-6.62
882.978	1.86
883.265	14
883.552	16.09
883.839	10.23
884.126	23.24
884.413	9.45
884.699	22.74
884.986	15.18
885.273	11.34
885.559	11.34
885.846	11.34
