Data from 0410_crown_Reflection__4__191.txt Node

Date: Tue Dec 12 19:55:37 CST 2023
User: ToomeyLab
Spectrometer: FLMS14357
Trigger mode: 0
Integration Time (sec): 1.000000E-2
Scans to average: 100
Electric dark correction enabled: true
Nonlinearity correction enabled: false
Boxcar width: 0
XAxis mode: Wavelengths
Number of Pixels in Spectrum: 2048
>>>>>Begin Spectral Data<<<<<
189.047	128.34
189.435	128.34
189.823	128.34
190.211	46.32
190.599	7.64
190.987	13.79
191.375	182.4
191.763	-395.55
192.151	25.74
192.538	161.66
192.926	128.8
193.314	-50.45
193.702	118.15
194.089	178.41
194.477	501.51
194.864	-143.48
195.252	-193.8
195.639	-11.29
196.027	119.94
196.414	-79.55
196.801	62.1
197.189	120.05
197.576	126.08
197.963	83.03
198.351	27.77
198.738	1.7
199.125	75.5
199.512	-75.38
199.899	36.08
200.286	47.71
200.673	-86.64
201.06	-28.6
201.447	-223.29
201.833	-4.21
202.22	-48.3
202.607	-238.89
202.994	3.33
203.38	-18.89
203.767	-9.72
204.154	5.13
204.54	31.15
204.927	-35.48
205.313	-1.06
205.699	24.54
206.086	-71.63
206.472	8.67
206.858	6.78
207.245	-62.75
207.631	5.65
208.017	-19.54
208.403	-38.92
208.789	-13.84
209.175	-125.44
209.561	50.32
209.947	-29.65
210.333	56.68
210.719	-57.08
211.105	-54.67
211.491	17.64
211.876	-9.53
212.262	-12.94
212.648	-88.64
213.034	-81.09
213.419	-3.11
213.805	-25.38
214.19	8.17
214.576	-15.01
214.961	-7.72
215.346	-38.21
215.732	37.09
216.117	-32.43
216.502	-53.42
216.888	-39.97
217.273	-6.41
217.658	-102.2
218.043	-45.59
218.428	-2.72
218.813	-2.73
219.198	-50.07
219.583	1.1
219.968	-54.4
220.353	-36.14
220.738	-1.71
221.122	-9.59
221.507	-56.08
221.892	-15.33
222.276	-7.52
222.661	1.73
223.046	-11.76
223.43	-0.93
223.815	-3.07
224.199	-3.15
224.583	-7.06
224.968	-12.04
225.352	-12.91
225.736	-2.84
226.121	-20.72
226.505	0.78
226.889	-2.1
227.273	4.5
227.657	0.97
228.041	3.81
228.425	4.38
228.809	3.96
229.193	-1.92
229.577	1.91
229.961	3.1
230.344	5.01
230.728	5.41
231.112	4.86
231.495	4.71
231.879	4.57
232.263	3.38
232.646	3.33
233.03	4.05
233.413	4.54
233.797	4.1
234.18	1.74
234.563	3.13
234.946	4.15
235.33	5.41
235.713	5.52
236.096	2.33
236.479	5.16
236.862	2.58
237.245	2.55
237.628	3.76
238.011	3.35
238.394	3.89
238.777	3.46
239.16	2.6
239.543	3.3
239.925	3.29
240.308	3.8
240.691	4.16
241.073	4.58
241.456	4.28
241.838	4.57
242.221	6.18
242.603	4.98
242.986	3.68
243.368	4.63
243.75	4.46
244.133	4.16
244.515	5.01
244.897	4.79
245.279	5.02
245.661	3.36
246.043	3.37
246.425	5.34
246.807	4.09
247.189	3.86
247.571	4.48
247.953	4.01
248.335	4.53
248.717	4.46
249.098	4.64
249.48	4.25
249.862	3.82
250.243	4.48
250.625	4.98
251.006	4.5
251.388	4.83
251.769	4.07
252.151	4.86
252.532	4.6
252.913	5.04
253.295	4.7
253.676	3.44
254.057	4.29
254.438	4.25
254.819	4.43
255.2	3.01
255.581	3.65
255.962	3.93
256.343	3.37
256.724	3.96
257.105	3.11
257.486	2.81
257.867	3.5
258.247	3.63
258.628	3.45
259.009	3.31
259.389	3.83
259.77	4.3
260.15	4.08
260.531	4.46
260.911	4.39
261.292	3.9
261.672	4.19
262.052	4.25
262.432	4.27
262.813	4.02
263.193	4.16
263.573	3.94
263.953	5.39
264.333	5.26
264.713	4.63
265.093	3.75
265.473	4.94
265.853	3.45
266.233	2.92
266.612	3.27
266.992	4.08
267.372	4.41
267.752	4.64
268.131	3.07
268.511	4.03
268.89	3.46
269.27	3.39
269.649	3.99
270.029	3.39
270.408	4.1
270.787	3.81
271.167	3.52
271.546	4.07
271.925	4.66
272.304	4.46
272.683	3.85
273.062	4.1
273.441	3.65
273.82	3.81
274.199	3.85
274.578	3.63
274.957	3.81
275.336	4.24
275.715	4.66
276.093	3.46
276.472	3.9
276.851	4.34
277.229	3.05
277.608	4.18
277.986	3.12
278.365	3.46
278.743	3.7
279.122	4.5
279.5	2.82
279.878	3.04
280.257	3.62
280.635	4.07
281.013	3.82
281.391	3.77
281.769	3.92
282.147	3.27
282.525	2.97
282.903	3.21
283.281	3.6
283.659	4.11
284.037	3.95
284.415	3.2
284.792	4.2
285.17	3.7
285.548	3.65
285.925	3.33
286.303	3.4
286.68	3.64
287.058	3.86
287.435	3.92
287.813	3.45
288.19	3.89
288.567	3.41
288.945	3.95
289.322	3.52
289.699	3.74
290.076	3.34
290.453	4.3
290.83	3.2
291.207	4.06
291.584	3.29
291.961	4
292.338	3.83
292.715	3.6
293.092	3.98
293.469	3.25
293.845	3.37
294.222	4.02
294.599	3.86
294.975	3.62
295.352	3.16
295.728	4.04
296.105	3.87
296.481	4.22
296.858	3.79
297.234	4.01
297.61	3.51
297.986	3.86
298.363	4.13
298.739	3.65
299.115	3.29
299.491	3.61
299.867	3.52
300.243	3.44
300.619	3.34
300.995	3.87
301.371	3.69
301.746	3.91
302.122	3.96
302.498	3.69
302.874	3.58
303.249	4.39
303.625	3.81
304	3.53
304.376	3.25
304.751	3.92
305.127	3.64
305.502	3.37
305.878	3.85
306.253	3.27
306.628	3.66
307.003	3.91
307.378	3.49
307.754	3.29
308.129	3.3
308.504	4.55
308.879	3.19
309.254	4.7
309.629	3.33
310.003	3.98
310.378	3.49
310.753	4.22
311.128	4.27
311.502	3.19
311.877	3.49
312.252	3.15
312.626	3.53
313.001	3.38
313.375	3.61
313.75	3.84
314.124	4.22
314.498	4.08
314.873	3.43
315.247	4.02
315.621	3.43
315.995	3.75
316.369	3.87
316.743	2.99
317.117	3.02
317.491	3.38
317.865	3.56
318.239	3.33
318.613	4.19
318.987	4.03
319.361	2.88
319.734	3.35
320.108	3.83
320.482	3.26
320.855	3.65
321.229	3.56
321.602	3.73
321.976	3.28
322.349	3.7
322.723	3.3
323.096	3.32
323.469	4.09
323.843	4.27
324.216	3.44
324.589	4.28
324.962	4.17
325.335	4.17
325.708	3.73
326.081	3.47
326.454	3.65
326.827	3.89
327.2	3.74
327.573	3.43
327.945	3.9
328.318	3.96
328.691	3.17
329.063	3.72
329.436	4
329.809	4.25
330.181	2.82
330.553	2.83
330.926	3.71
331.298	3.01
331.671	4
332.043	3.71
332.415	3.85
332.787	3.9
333.159	3.34
333.532	3.82
333.904	3.8
334.276	3.87
334.648	3.51
335.02	2.87
335.391	3.76
335.763	3.44
336.135	4.11
336.507	4.02
336.879	3.39
337.25	3.66
337.622	3.54
337.993	3.92
338.365	3.46
338.736	3.3
339.108	3.52
339.479	3.48
339.851	3.27
340.222	3.29
340.593	3.6
340.964	3.89
341.336	3.81
341.707	3.09
342.078	3.49
342.449	3.4
342.82	3.62
343.191	3.6
343.562	3.85
343.933	4
344.303	3.67
344.674	3.96
345.045	3.8
345.416	3.8
345.786	3.35
346.157	3.46
346.527	4.21
346.898	2.94
347.268	3.71
347.639	3.93
348.009	3.55
348.38	3.63
348.75	4.12
349.12	3.79
349.49	3.48
349.861	3.87
350.231	3.45
350.601	3.76
350.971	3.81
351.341	3.76
351.711	3.96
352.081	3.78
352.45	3.52
352.82	4.25
353.19	3.59
353.56	3.21
353.929	3.43
354.299	3.51
354.669	3.57
355.038	3.04
355.408	3.7
355.777	3.84
356.147	3.64
356.516	3.85
356.885	3.51
357.254	3.96
357.624	3.52
357.993	3.51
358.362	3.82
358.731	4.05
359.1	3.3
359.469	3.36
359.838	3.56
360.207	3.54
360.576	3.91
360.945	3.51
361.314	3.85
361.682	3.76
362.051	3.92
362.42	3.54
362.788	3.61
363.157	4.08
363.525	3.91
363.894	3.56
364.262	3.6
364.631	3.52
364.999	3.66
365.367	4.1
365.735	3.74
366.104	3.89
366.472	3.83
366.84	3.91
367.208	3.69
367.576	3.6
367.944	3.76
368.312	3.78
368.68	3.8
369.048	3.78
369.416	3.78
369.783	3.96
370.151	3.96
370.519	3.44
370.886	4.06
371.254	3.41
371.621	4.09
371.989	3.85
372.356	3.62
372.724	3.42
373.091	3.75
373.458	3.65
373.826	3.81
374.193	3.63
374.56	3.79
374.927	3.82
375.294	3.95
375.661	4.21
376.028	4.15
376.395	4.13
376.762	4.18
377.129	3.97
377.496	4
377.863	3.86
378.229	4.02
378.596	3.71
378.963	4.02
379.329	3.63
379.696	3.65
380.062	4.31
380.429	4.2
380.795	4.01
381.161	3.95
381.528	4.01
381.894	4.22
382.26	3.42
382.626	4.23
382.993	4.2
383.359	3.67
383.725	4.04
384.091	3.91
384.457	3.75
384.823	4.03
385.188	3.92
385.554	4.16
385.92	3.68
386.286	4.08
386.651	4.32
387.017	4.22
387.383	3.96
387.748	4.04
388.114	3.88
388.479	3.94
388.845	3.88
389.21	4
389.575	3.85
389.94	4.02
390.306	4.46
390.671	3.79
391.036	4.11
391.401	3.79
391.766	4.23
392.131	3.91
392.496	3.91
392.861	3.91
393.226	4.05
393.591	4.04
393.956	3.96
394.32	4.12
394.685	4.4
395.05	3.95
395.414	4.26
395.779	4.13
396.143	4.03
396.508	3.94
396.872	3.87
397.236	4.11
397.601	3.89
397.965	4.05
398.329	4.25
398.694	4.18
399.058	4.23
399.422	4.1
399.786	4.04
400.15	4.07
400.514	4.3
400.878	4.31
401.242	4.07
401.605	4.01
401.969	4.02
402.333	4.18
402.697	3.92
403.06	3.76
403.424	4.03
403.787	3.85
404.151	4.03
404.514	3.86
404.878	4.03
405.241	4.06
405.604	4.06
405.968	4.04
406.331	4.36
406.694	4.38
407.057	4.23
407.42	4.14
407.783	3.89
408.146	4.14
408.509	4.06
408.872	4.05
409.235	4.07
409.598	4.21
409.961	4.15
410.323	4.01
410.686	3.97
411.049	4.19
411.411	4.35
411.774	3.97
412.136	4.21
412.499	4.01
412.861	4.15
413.223	4.38
413.586	4.12
413.948	4.07
414.31	4.08
414.672	4.25
415.035	3.95
415.397	3.79
415.759	4.06
416.121	4.01
416.483	3.95
416.845	4.08
417.206	4.29
417.568	4.1
417.93	4.39
418.292	3.98
418.653	4.32
419.015	4.14
419.377	4.08
419.738	4.15
420.1	4.05
420.461	4.2
420.822	4.21
421.184	4.18
421.545	4.41
421.906	4.15
422.267	4.08
422.629	4.18
422.99	4.21
423.351	4.16
423.712	4.12
424.073	4.11
424.434	4.23
424.795	4.2
425.155	4.09
425.516	4.1
425.877	4.19
426.238	4.12
426.598	4.11
426.959	4.07
427.32	4.19
427.68	4.11
428.041	4.2
428.401	4.27
428.761	4.24
429.122	4.43
429.482	4.37
429.842	4.42
430.202	4.32
430.563	4.25
430.923	4.18
431.283	4.15
431.643	4.34
432.003	4.2
432.363	4.32
432.722	4.14
433.082	4.13
433.442	4.43
433.802	4.49
434.161	4.26
434.521	4.32
434.881	4.24
435.24	4.4
435.6	4.32
435.959	4.35
436.319	4.35
436.678	4.42
437.037	4.24
437.396	4.18
437.756	4.16
438.115	4.33
438.474	4.22
438.833	4.39
439.192	4.46
439.551	4.24
439.91	4.2
440.269	4.31
440.628	4.08
440.987	4.14
441.345	4.39
441.704	4.21
442.063	4.38
442.421	4.37
442.78	4.26
443.138	4.27
443.497	4.32
443.855	4.35
444.214	4.34
444.572	4.28
444.93	4.36
445.288	4.12
445.647	4.49
446.005	4.2
446.363	4.12
446.721	4.26
447.079	4.27
447.437	4.18
447.795	4.31
448.153	4.25
448.51	4.26
448.868	4.35
449.226	4.43
449.584	4.35
449.941	4.39
450.299	4.42
450.656	4.34
451.014	4.38
451.371	4.33
451.729	4.43
452.086	4.4
452.443	4.55
452.801	4.46
453.158	4.4
453.515	4.31
453.872	4.31
454.229	4.42
454.586	4.2
454.943	4.38
455.3	4.26
455.657	4.42
456.014	4.65
456.371	4.55
456.727	4.44
457.084	4.61
457.441	4.55
457.797	4.38
458.154	4.22
458.51	4.31
458.867	4.59
459.223	4.57
459.58	4.38
459.936	4.29
460.292	4.42
460.648	4.42
461.005	4.38
461.361	4.28
461.717	4.45
462.073	4.43
462.429	4.43
462.785	4.39
463.141	4.42
463.496	4.38
463.852	4.63
464.208	4.43
464.564	4.33
464.919	4.67
465.275	4.65
465.631	4.79
465.986	4.39
466.342	4.41
466.697	4.56
467.052	4.73
467.408	4.67
467.763	4.68
468.118	4.58
468.473	4.54
468.829	4.63
469.184	4.52
469.539	4.5
469.894	4.55
470.249	4.7
470.603	4.63
470.958	4.5
471.313	4.83
471.668	4.61
472.023	4.46
472.377	4.46
472.732	4.42
473.086	4.81
473.441	4.64
473.795	4.41
474.15	4.75
474.504	4.53
474.859	4.57
475.213	4.57
475.567	4.53
475.921	4.45
476.275	4.44
476.63	4.53
476.984	4.46
477.338	4.68
477.692	4.51
478.045	4.48
478.399	4.53
478.753	4.45
479.107	4.56
479.461	4.61
479.814	4.65
480.168	4.42
480.521	4.57
480.875	4.72
481.228	4.63
481.582	4.62
481.935	4.59
482.289	4.62
482.642	4.78
482.995	4.56
483.348	4.51
483.701	4.74
484.055	4.53
484.408	4.52
484.761	4.53
485.114	4.49
485.466	4.29
485.819	4.28
486.172	4.35
486.525	4.41
486.878	4.47
487.23	4.47
487.583	4.38
487.936	4.52
488.288	4.47
488.641	4.42
488.993	4.4
489.345	4.37
489.698	4.39
490.05	4.44
490.402	4.49
490.754	4.49
491.107	4.55
491.459	4.54
491.811	4.56
492.163	4.52
492.515	4.52
492.866	4.54
493.218	4.43
493.57	4.45
493.922	4.42
494.274	4.49
494.625	4.61
494.977	4.68
495.328	4.81
495.68	4.55
496.031	4.77
496.383	4.67
496.734	4.68
497.086	4.62
497.437	4.77
497.788	4.73
498.139	4.59
498.49	4.85
498.842	4.61
499.193	4.64
499.544	4.72
499.894	4.71
500.245	4.71
500.596	4.76
500.947	4.76
501.298	4.74
501.648	4.92
501.999	4.75
502.35	4.77
502.7	4.71
503.051	4.71
503.401	4.78
503.752	4.89
504.102	4.82
504.452	4.84
504.803	4.81
505.153	4.7
505.503	4.83
505.853	4.83
506.203	4.75
506.553	4.72
506.903	4.87
507.253	4.76
507.603	4.81
507.953	4.78
508.303	4.83
508.652	4.74
509.002	4.86
509.352	4.69
509.701	4.69
510.051	4.82
510.4	4.71
510.75	4.68
511.099	4.68
511.449	4.87
511.798	4.79
512.147	4.74
512.496	4.83
512.846	4.9
513.195	4.71
513.544	4.95
513.893	4.78
514.242	4.73
514.591	4.71
514.939	4.88
515.288	4.79
515.637	4.95
515.986	4.77
516.334	4.89
516.683	4.8
517.032	4.91
517.38	4.81
517.729	4.94
518.077	4.8
518.426	5.06
518.774	4.84
519.122	4.84
519.47	4.85
519.819	4.71
520.167	4.83
520.515	4.69
520.863	4.83
521.211	4.76
521.559	4.85
521.907	4.78
522.255	4.8
522.602	4.93
522.95	4.82
523.298	4.8
523.645	5.01
523.993	4.97
524.341	4.82
524.688	4.89
525.036	4.89
525.383	4.94
525.73	4.81
526.078	4.93
526.425	4.79
526.772	4.82
527.119	4.9
527.466	4.82
527.814	4.67
528.161	4.83
528.508	4.8
528.854	4.73
529.201	4.85
529.548	4.76
529.895	4.67
530.242	4.61
530.588	4.57
530.935	4.69
531.282	4.72
531.628	4.74
531.975	4.72
532.321	4.66
532.667	4.7
533.014	4.82
533.36	4.77
533.706	4.88
534.052	4.73
534.399	4.84
534.745	4.75
535.091	4.69
535.437	4.79
535.783	4.68
536.129	4.87
536.474	4.81
536.82	4.87
537.166	4.95
537.512	4.92
537.857	4.9
538.203	4.8
538.549	4.81
538.894	4.88
539.239	4.85
539.585	4.95
539.93	4.97
540.276	4.84
540.621	4.86
540.966	4.94
541.311	4.96
541.656	5.04
542.001	4.95
542.346	4.84
542.691	4.79
543.036	4.66
543.381	4.66
543.726	4.8
544.071	4.79
544.415	4.77
544.76	4.8
545.105	4.84
545.449	4.93
545.794	4.98
546.138	4.83
546.483	5.03
546.827	4.94
547.171	4.95
547.516	4.92
547.86	4.93
548.204	4.98
548.548	4.98
548.892	5
549.236	4.93
549.58	5.04
549.924	4.96
550.268	5.05
550.612	4.81
550.956	4.99
551.3	5.15
551.643	5.02
551.987	5.16
552.33	5.09
552.674	5.2
553.017	5.18
553.361	5.16
553.704	5.06
554.048	5.22
554.391	5
554.734	5.01
555.077	5.02
555.42	4.99
555.764	5.07
556.107	5.13
556.45	5.02
556.793	5.09
557.135	5.08
557.478	5.14
557.821	5.08
558.164	5.07
558.507	5.18
558.849	4.97
559.192	5.09
559.534	5.14
559.877	5.26
560.219	5.15
560.562	5.15
560.904	5.26
561.246	5.18
561.589	5.17
561.931	5.23
562.273	4.99
562.615	5.2
562.957	5.04
563.299	5.29
563.641	5.24
563.983	5.23
564.325	5.03
564.667	5.22
565.008	4.89
565.35	4.94
565.692	5.36
566.033	5.16
566.375	5.04
566.716	5.07
567.058	5.24
567.399	5.24
567.741	5.02
568.082	5.03
568.423	5.14
568.764	5.16
569.105	5.06
569.447	5.12
569.788	5.19
570.129	5.03
570.47	5.1
570.811	5.24
571.151	5.33
571.492	5.16
571.833	5.3
572.174	5.13
572.514	5.13
572.855	5.2
573.195	5.18
573.536	5.15
573.876	5.24
574.217	5.11
574.557	5.1
574.898	5.21
575.238	5.23
575.578	5.18
575.918	5.16
576.258	5.25
576.598	5.19
576.938	5.22
577.278	5.18
577.618	5.36
577.958	5.13
578.298	5.27
578.638	5.15
578.977	5.2
579.317	5.2
579.657	5.3
579.996	5.29
580.336	5.21
580.675	5.1
581.014	5.21
581.354	5.2
581.693	5.12
582.032	5.03
582.372	4.98
582.711	5.45
583.05	5.39
583.389	5.31
583.728	5.32
584.067	5.46
584.406	5.24
584.745	5.34
585.083	5.28
585.422	5.29
585.761	5.66
586.1	5.18
586.438	5.5
586.777	5.34
587.115	5.2
587.454	5.45
587.792	5.15
588.13	5.48
588.469	5.35
588.807	5.16
589.145	5.37
589.483	5.21
589.821	5.38
590.159	5.48
590.497	5.3
590.835	5.56
591.173	5.29
591.511	5.28
591.849	5.28
592.187	5.41
592.524	5.12
592.862	5.49
593.2	4.98
593.537	5.01
593.875	5.47
594.212	5.29
594.55	5.58
594.887	5.67
595.224	5.31
595.561	5.83
595.899	5.25
596.236	5.55
596.573	5.34
596.91	5.57
597.247	5.34
597.584	5.47
597.921	5.29
598.258	5.34
598.594	5.45
598.931	5.38
599.268	5.17
599.604	5.24
599.941	5.41
600.277	5.25
600.614	5.54
600.95	5.53
601.287	5.24
601.623	5.47
601.959	5.23
602.296	5.6
602.632	5.24
602.968	5.24
603.304	5.48
603.64	5.44
603.976	5.2
604.312	5.43
604.648	5.43
604.984	5.54
605.319	5.41
605.655	5.36
605.991	5.45
606.326	5.4
606.662	5.46
606.998	5.21
607.333	5.52
607.668	5.49
608.004	5.47
608.339	5.36
608.674	5.42
609.01	5.25
609.345	5.74
609.68	5.55
610.015	5.21
610.35	5.28
610.685	5.33
611.02	5.52
611.355	5.25
611.689	5.22
612.024	5.53
612.359	5.33
612.694	5.43
613.028	5.49
613.363	5.37
613.697	5.73
614.032	5.65
614.366	5.87
614.7	5.27
615.035	5.29
615.369	5.62
615.703	5.46
616.037	5.56
616.371	5.25
616.705	5.77
617.039	5.37
617.373	5.28
617.707	5.02
618.041	5.26
618.375	4.98
618.709	5.36
619.042	5.29
619.376	5.35
619.71	5.69
620.043	5.51
620.377	5.62
620.71	5.46
621.043	5.19
621.377	5.1
621.71	5.36
622.043	5.97
622.376	5.66
622.709	5.37
623.043	5.79
623.376	5.78
623.709	5.66
624.041	5.48
624.374	5.74
624.707	5.3
625.04	5.41
625.373	5.63
625.705	5.86
626.038	5.6
626.37	5.8
626.703	5.8
627.035	5.35
627.368	5.76
627.7	5.39
628.032	5.54
628.365	5.64
628.697	5.5
629.029	5.38
629.361	5.5
629.693	5.16
630.025	5.13
630.357	5.64
630.689	5.31
631.021	5.55
631.353	5.81
631.684	5.82
632.016	5.74
632.348	6.04
632.679	5.32
633.011	6.07
633.342	5.95
633.674	5.69
634.005	5.84
634.336	5.96
634.668	5.62
634.999	5.57
635.33	6
635.661	5.51
635.992	5.71
636.323	5.59
636.654	5.93
636.985	5.77
637.316	5.39
637.647	5.53
637.977	5.76
638.308	5.77
638.639	5.38
638.969	5.66
639.3	5.56
639.63	5.96
639.961	5.63
640.291	5.41
640.622	5.69
640.952	5.61
641.282	5.76
641.612	5.66
641.943	5.28
642.273	5.84
642.603	6.86
642.933	5.94
643.263	5.89
643.592	6.04
643.922	6.17
644.252	6.04
644.582	4.96
644.911	6.02
645.241	5.36
645.571	6.4
645.9	5.52
646.23	5.83
646.559	6.35
646.888	5.78
647.218	5.99
647.547	5.69
647.876	5.7
648.205	5.77
648.534	5.64
648.863	5.92
649.192	6.14
649.521	6.41
649.85	5.3
650.179	6.25
650.508	6.35
650.837	6.2
651.165	5.54
651.494	5.56
651.822	6.15
652.151	6.55
652.479	6.12
652.808	6.32
653.136	5.82
653.465	5.74
653.793	5.87
654.121	5.69
654.449	5.95
654.777	6
655.105	5.91
655.433	5.86
655.761	6
656.089	5.18
656.417	6.31
656.745	5.9
657.073	5.65
657.4	5.95
657.728	5.15
658.056	5.83
658.383	5.06
658.711	5.73
659.038	5.57
659.365	5.91
659.693	5.76
660.02	5.83
660.347	6.06
660.674	6.28
661.001	6.27
661.329	6.22
661.656	5.97
661.982	5.64
662.309	5.93
662.636	5.54
662.963	6.24
663.29	5.92
663.616	6.24
663.943	5.97
664.27	5.93
664.596	5.79
664.923	6.39
665.249	5.7
665.576	6.14
665.902	5.66
666.228	6.29
666.554	5.78
666.881	5.89
667.207	5.87
667.533	6.5
667.859	5.58
668.185	5.78
668.511	6.32
668.837	5.79
669.162	6.92
669.488	6.02
669.814	6.08
670.139	5.96
670.465	5.57
670.791	5.99
671.116	5.93
671.442	5.91
671.767	6.09
672.092	6.07
672.418	5.82
672.743	6.35
673.068	5.47
673.393	5.78
673.718	6.55
674.043	6.5
674.368	5.59
674.693	5.2
675.018	6.16
675.343	5.68
675.667	5.87
675.992	6.19
676.317	6.17
676.641	6.02
676.966	6.46
677.29	5.92
677.615	5.8
677.939	5.88
678.264	6.31
678.588	5.91
678.912	6.45
679.236	6.45
679.56	6.26
679.885	6.68
680.209	6.47
680.532	6.3
680.856	5.76
681.18	6.2
681.504	6.04
681.828	5.89
682.152	5.92
682.475	6.5
682.799	6.24
683.122	6.38
683.446	6.38
683.769	6.82
684.093	5.3
684.416	6.17
684.739	7.03
685.062	6.08
685.386	6.92
685.709	6.55
686.032	6.75
686.355	6.2
686.678	7.05
687.001	6.38
687.324	6.54
687.646	6.69
687.969	6.28
688.292	6.43
688.614	6.12
688.937	6.04
689.26	6.81
689.582	5.9
689.904	5.93
690.227	6.37
690.549	7.08
690.871	6.52
691.194	6.44
691.516	6.42
691.838	6.23
692.16	5.99
692.482	6.39
692.804	6.8
693.126	6.66
693.448	5.94
693.769	6.07
694.091	7.36
694.413	5.94
694.735	6.36
695.056	6.17
695.378	7.14
695.699	6.46
696.021	5.41
696.342	6.55
696.663	6.26
696.984	5.87
697.306	5.53
697.627	5.99
697.948	7.28
698.269	6.34
698.59	6.32
698.911	6.69
699.232	5.82
699.553	6.83
699.873	7.98
700.194	6.69
700.515	6.71
700.835	6.2
701.156	6.16
701.477	6.77
701.797	6.14
702.117	6.04
702.438	7.48
702.758	6.41
703.078	7.04
703.398	6.24
703.719	5.96
704.039	6.45
704.359	6.56
704.679	7.1
704.999	7.4
705.319	5.46
705.638	6.99
705.958	6.75
706.278	7.5
706.597	6.48
706.917	6.58
707.237	6.05
707.556	7.03
707.876	7.62
708.195	6.62
708.514	6.69
708.834	6.89
709.153	6.58
709.472	6.92
709.791	7.52
710.11	6.95
710.429	6.57
710.748	5.89
711.067	7.59
711.386	6.23
711.705	7.26
712.023	8.01
712.342	7.02
712.661	6.81
712.979	6.92
713.298	7.32
713.616	7.15
713.935	7.03
714.253	6.44
714.572	5.43
714.89	6.44
715.208	7.84
715.526	6.65
715.844	6.97
716.162	6.47
716.48	6.44
716.798	6.4
717.116	7.29
717.434	6.62
717.752	6.03
718.069	6.47
718.387	6.44
718.705	6.31
719.022	7.84
719.34	6.25
719.657	6.62
719.975	7
720.292	7.5
720.609	7.94
720.927	6.42
721.244	5.37
721.561	7.83
721.878	6.5
722.195	6.65
722.512	7.23
722.829	6.1
723.146	4.82
723.463	7.67
723.779	7.05
724.096	6.28
724.413	6.04
724.729	6.18
725.046	7.94
725.362	7.06
725.679	8.09
725.995	7.01
726.311	7.96
726.628	6.72
726.944	6.97
727.26	7.67
727.576	5.47
727.892	6.25
728.208	6.02
728.524	7.55
728.84	7.61
729.156	6.44
729.472	8.6
729.787	6.98
730.103	6.97
730.419	6.57
730.734	5.48
731.05	7.17
731.365	7.17
731.681	8.13
731.996	6.47
732.311	6.85
732.626	7.05
732.942	6.78
733.257	6.6
733.572	7
733.887	7.93
734.202	8.47
734.517	6.19
734.832	8.18
735.146	7.84
735.461	9.12
735.776	7.33
736.091	6.06
736.405	7.06
736.72	6.57
737.034	6.93
737.349	6.79
737.663	7.19
737.977	6.42
738.292	4.07
738.606	5.07
738.92	4.79
739.234	8.38
739.548	7.47
739.862	8.18
740.176	6.62
740.49	7.01
740.804	7.16
741.117	6.43
741.431	7.4
741.745	8.07
742.058	7.48
742.372	6.43
742.685	8.54
742.999	7.61
743.312	7.96
743.626	6.55
743.939	8.53
744.252	7.11
744.565	7.25
744.878	7.21
745.191	6.7
745.505	6.67
745.817	10.44
746.13	7.28
746.443	6.13
746.756	6.79
747.069	5.77
747.381	6.13
747.694	7.02
748.007	7.53
748.319	8.66
748.632	6.54
748.944	5.77
749.256	6.77
749.569	5.72
749.881	6.89
750.193	5.17
750.505	7.29
750.817	5.71
751.129	6.34
751.441	8.14
751.753	8.21
752.065	6.18
752.377	7.45
752.689	7.61
753	7.06
753.312	7.99
753.624	7.67
753.935	7.57
754.247	6.85
754.558	6.72
754.869	5.18
755.181	9.2
755.492	9.02
755.803	8.52
756.114	7.75
756.425	6.84
756.736	8.89
757.047	7
757.358	7.29
757.669	8.25
757.98	10.12
758.291	6.21
758.601	8.33
758.912	5.93
759.223	8.7
759.533	7.09
759.844	7.55
760.154	8.37
760.464	6.47
760.775	9.32
761.085	6.82
761.395	6.74
761.705	6.49
762.016	6.48
762.326	8.36
762.636	6.38
762.945	8.05
763.255	10.93
763.565	7.05
763.875	8.38
764.185	7.6
764.494	8.41
764.804	7.87
765.113	9.69
765.423	7.9
765.732	6.83
766.042	8.61
766.351	7.76
766.66	6.8
766.97	7.73
767.279	6.64
767.588	8.26
767.897	9.29
768.206	7.36
768.515	7.72
768.824	9.41
769.133	10.91
769.441	10.25
769.75	5.97
770.059	7.42
770.367	7.76
770.676	8.54
770.984	6.99
771.293	8.77
771.601	7.03
771.91	9.85
772.218	9
772.526	6.51
772.834	7.78
773.142	5.86
773.45	6.88
773.758	7.35
774.066	12.41
774.374	4.19
774.682	9.28
774.99	1.94
775.298	5.87
775.605	5.61
775.913	8.14
776.22	7.05
776.528	2.99
776.835	8.05
777.143	9.63
777.45	6.61
777.757	8.9
778.065	6.55
778.372	8.92
778.679	3.98
778.986	8.03
779.293	10.64
779.6	5.3
779.907	5.51
780.214	8.59
780.52	6.34
780.827	7.68
781.134	10.61
781.44	10.57
781.747	6.01
782.053	3.7
782.36	7.31
782.666	2.41
782.973	10.08
783.279	2.36
783.585	4.36
783.891	10.87
784.197	8.62
784.503	8.67
784.809	8.23
785.115	7.64
785.421	8.57
785.727	5.34
786.033	2.59
786.339	8.03
786.644	7.04
786.95	11.7
787.255	7.39
787.561	5.12
787.866	9.81
788.172	4.87
788.477	4.58
788.782	7.02
789.088	5.01
789.393	3.75
789.698	5.51
790.003	7.98
790.308	13.25
790.613	2.35
790.918	4.91
791.223	7.54
791.527	6.77
791.832	8.53
792.137	8.03
792.441	8.9
792.746	11.4
793.05	9.41
793.355	7.93
793.659	8.01
793.963	11.5
794.268	5.05
794.572	12.22
794.876	2.52
795.18	6.74
795.484	3.7
795.788	14.7
796.092	1.07
796.396	7.58
796.7	0.5
797.004	10.14
797.307	1.12
797.611	3.24
797.915	5.95
798.218	4.01
798.522	1.39
798.825	8.86
799.128	6.27
799.432	2.2
799.735	4.67
800.038	11.34
800.341	15.59
800.644	2.43
800.947	11.12
801.25	0.47
801.553	3.8
801.856	9.79
802.159	9.42
802.462	14.68
802.764	12.25
803.067	12.11
803.37	2.8
803.672	7.85
803.975	9.15
804.277	7.76
804.579	2.96
804.882	11.31
805.184	7.66
805.486	8.29
805.788	5.6
806.09	5.95
806.392	0.77
806.694	9.12
806.996	7.1
807.298	8.36
807.6	15.51
807.902	2.99
808.203	5.46
808.505	10.71
808.807	4.37
809.108	2.97
809.409	10.1
809.711	5.49
810.012	8.21
810.313	5.68
810.615	11.23
810.916	6.76
811.217	7.52
811.518	-1.84
811.819	15.28
812.12	16.93
812.421	3.17
812.722	8.23
813.023	9.03
813.323	6.48
813.624	3.77
813.925	15.23
814.225	-0.96
814.526	8.17
814.826	13.6
815.126	4.48
815.427	6.16
815.727	-1.05
816.027	6.5
816.327	11.58
816.627	12.6
816.927	12.85
817.227	12.67
817.527	12.13
817.827	-2.45
818.127	15.06
818.427	3.55
818.727	3.24
819.026	12.18
819.326	5.79
819.625	2.05
819.925	8.43
820.224	1.71
820.524	2.09
820.823	15.29
821.122	13.36
821.421	7.52
821.72	3.18
822.019	0.76
822.318	7.32
822.617	8.76
822.916	2.69
823.215	10.72
823.514	10.33
823.813	9.78
824.111	10.39
824.41	9.38
824.709	11.35
825.007	10.06
825.306	11.52
825.604	11.46
825.902	11.23
826.201	10.79
826.499	10.64
826.797	12.25
827.095	11.72
827.393	9.94
827.691	10.35
827.989	9.12
828.287	10.84
828.585	9.99
828.882	13.7
829.18	10.83
829.478	10.46
829.775	9.91
830.073	8.07
830.37	13.99
830.668	9.75
830.965	12.89
831.263	9.31
831.56	11.34
831.857	5.85
832.154	6.79
832.451	5.97
832.748	10.53
833.045	10.74
833.342	12.12
833.639	7.76
833.936	4.83
834.232	10.6
834.529	7.5
834.826	8.84
835.122	15.05
835.419	12.88
835.715	11.35
836.012	6.94
836.308	7.14
836.604	12.9
836.901	11.74
837.197	11.64
837.493	12.17
837.789	12.07
838.085	13.62
838.381	10.02
838.677	10.13
838.972	11.86
839.268	5.82
839.564	8.01
839.86	12.87
840.155	4.66
840.451	2.41
840.746	16.93
841.042	3.79
841.337	5.88
841.632	13.13
841.928	12.42
842.223	8.56
842.518	-0.24
842.813	12.29
843.108	6.16
843.403	1.65
843.698	10.17
843.993	-3.85
844.287	8.58
844.582	10.59
844.877	19.05
845.171	-0.78
845.466	-3.92
845.761	6.35
846.055	4.16
846.349	14.52
846.644	13.28
846.938	-0.9
847.232	-3.48
847.526	12.2
847.82	13.82
848.114	17.73
848.408	-8
848.702	10.5
848.996	30.15
849.29	18.08
849.584	-4.59
849.877	15.37
850.171	-6.19
850.465	7.38
850.758	-6.53
851.052	-49.53
851.345	7.99
851.638	14.2
851.932	-12.89
852.225	-14.97
852.518	13.17
852.811	-6.83
853.104	2.07
853.397	-4.31
853.69	-6.86
853.983	29.88
854.276	0.58
854.569	8.66
854.861	-4.86
855.154	27.07
855.447	-3.62
855.739	28.75
856.032	-9.81
856.324	3.91
856.616	4.87
856.909	9.02
857.201	15.57
857.493	-23.03
857.785	11.27
858.077	-13.08
858.369	-11.57
858.661	6.81
858.953	41.1
859.245	-24.76
859.537	26.56
859.829	-13.66
860.12	-22.09
860.412	-45.29
860.703	-6.53
860.995	-15.02
861.286	22.32
861.578	-0.55
861.869	3.7
862.16	-24.49
862.452	-3.73
862.743	-19.49
863.034	12.53
863.325	0.46
863.616	-1.91
863.907	23.4
864.198	16.27
864.488	37.57
864.779	19.18
865.07	-24.01
865.36	11.42
865.651	-25.08
865.941	-34.03
866.232	-22.14
866.522	15.41
866.813	-21.33
867.103	13.25
867.393	23.24
867.683	4.99
867.973	-4.25
868.263	-6.41
868.553	7.07
868.843	-21.8
869.133	-32.02
869.423	-5.65
869.713	-5.79
870.002	-26.95
870.292	30.64
870.582	1.42
870.871	-11.99
871.161	15.02
871.45	25.24
871.739	28.23
872.029	-26.88
872.318	30.81
872.607	-25.81
872.896	2.79
873.185	-74.67
873.474	-27.93
873.763	19.92
874.052	-23.86
874.341	-3.27
874.63	-1.69
874.918	-52.34
875.207	-40.63
875.496	25.55
875.784	64.13
876.073	13.9
876.361	7.35
876.649	-10.64
876.938	12.16
877.226	-5.1
877.514	-53.12
877.802	34.88
878.09	-37.72
878.378	3.19
878.666	47.8
878.954	2.75
879.242	0.78
879.53	8.93
879.817	0.52
880.105	-0.72
880.392	7.11
880.68	6.84
880.967	8.94
881.255	0.16
881.542	-16.69
881.83	25.19
882.117	9.51
882.404	50.1
882.691	-26.76
882.978	-6.71
883.265	-5.9
883.552	22.56
883.839	8.78
884.126	10.54
884.413	14.07
884.699	4.28
884.986	9.59
885.273	11.99
885.559	11.99
885.846	11.99
