Data from 1610-4_chest_Reflection__1__46.txt Node

Date: Fri Nov 11 16:30:31 CST 2022
User: ToomeyLab
Spectrometer: FLMS14357
Trigger mode: 0
Integration Time (sec): 1.000000E-2
Scans to average: 100
Electric dark correction enabled: true
Nonlinearity correction enabled: false
Boxcar width: 0
XAxis mode: Wavelengths
Number of Pixels in Spectrum: 2048
>>>>>Begin Spectral Data<<<<<
189.047	158.43
189.435	158.43
189.823	158.43
190.211	77.89
190.599	395.62
190.987	-1424.34
191.375	521.29
191.763	-88.68
192.151	40.53
192.538	191.54
192.926	437.41
193.314	-506.02
193.702	132.35
194.089	-19750
194.477	55.83
194.864	96.98
195.252	144.11
195.639	-208.84
196.027	-43.18
196.414	173.44
196.801	51.28
197.189	42.84
197.576	-565.65
197.963	68.6
198.351	-19.39
198.738	-82.36
199.125	5.45
199.512	9.44
199.899	5.59
200.286	-6.3
200.673	7.3
201.06	11.7
201.447	19.17
201.833	30.91
202.22	18.08
202.607	18.24
202.994	16.71
203.38	9.56
203.767	5.91
204.154	-23.9
204.54	2.9
204.927	28.71
205.313	38.84
205.699	12.96
206.086	-3.23
206.472	26.05
206.858	1.14
207.245	16.97
207.631	40.92
208.017	-23.96
208.403	-0.29
208.789	-51.12
209.175	12.32
209.561	12.52
209.947	3.79
210.333	36.98
210.719	18.86
211.105	4.5
211.491	-176.48
211.876	24.4
212.262	-11.13
212.648	-24.28
213.034	-7.68
213.419	12.24
213.805	16.85
214.19	-30.78
214.576	9.95
214.961	-9.02
215.346	-48.92
215.732	-61.95
216.117	23.19
216.502	10.91
216.888	-9.06
217.273	-5.26
217.658	-2.54
218.043	-13.17
218.428	-28.56
218.813	23.02
219.198	-10.14
219.583	3.2
219.968	0.82
220.353	-17.5
220.738	-13.56
221.122	-29.4
221.507	10.59
221.892	2.55
222.276	-7.29
222.661	-6.64
223.046	16.21
223.43	1.6
223.815	-5.29
224.199	7.03
224.583	3.81
224.968	4.8
225.352	0.5
225.736	-2.86
226.121	2.53
226.505	-1.22
226.889	1.82
227.273	0.75
227.657	-2.32
228.041	0.83
228.425	2.54
228.809	3.63
229.193	0.01
229.577	2.63
229.961	1.44
230.344	2.41
230.728	2.85
231.112	2.08
231.495	2.83
231.879	3.07
232.263	0.98
232.646	2.01
233.03	2.81
233.413	1.66
233.797	2
234.18	2.98
234.563	2.38
234.946	0.12
235.33	1.06
235.713	3.35
236.096	1.09
236.479	3.02
236.862	3.75
237.245	3.15
237.628	1.14
238.011	1.82
238.394	2.94
238.777	1.98
239.16	1.93
239.543	1.85
239.925	5.26
240.308	2.67
240.691	3.66
241.073	2.28
241.456	1.13
241.838	2.62
242.221	2.14
242.603	1.16
242.986	2
243.368	2.26
243.75	2.83
244.133	2.71
244.515	2.45
244.897	2.3
245.279	2.45
245.661	2.39
246.043	2.76
246.425	3.1
246.807	2.58
247.189	2.17
247.571	1.64
247.953	2.25
248.335	2.82
248.717	2.67
249.098	2.53
249.48	2.75
249.862	2.12
250.243	2.29
250.625	2.42
251.006	2.7
251.388	2.79
251.769	3.37
252.151	1.99
252.532	2.84
252.913	2.13
253.295	2.02
253.676	2.64
254.057	2.5
254.438	2.7
254.819	2.77
255.2	2.9
255.581	2.87
255.962	2.04
256.343	3.13
256.724	2.56
257.105	2.37
257.486	2.69
257.867	2.22
258.247	3.11
258.628	1.94
259.009	2.93
259.389	2.06
259.77	3.14
260.15	2.85
260.531	2.26
260.911	2.36
261.292	2.63
261.672	2.6
262.052	2.67
262.432	2.91
262.813	2.39
263.193	2.57
263.573	2.87
263.953	3.04
264.333	2.98
264.713	2.34
265.093	2.72
265.473	3.15
265.853	2.04
266.233	2.11
266.612	1.68
266.992	2.66
267.372	2.8
267.752	2.88
268.131	3.02
268.511	2.47
268.89	3.05
269.27	2.38
269.649	2.21
270.029	2.52
270.408	1.89
270.787	2.7
271.167	2.39
271.546	2.62
271.925	2.95
272.304	2.69
272.683	2.24
273.062	2.64
273.441	2.42
273.82	2.31
274.199	2.77
274.578	3.01
274.957	2.01
275.336	2
275.715	2.31
276.093	3.11
276.472	2.43
276.851	2.29
277.229	2.51
277.608	2.38
277.986	2.46
278.365	2.54
278.743	2.17
279.122	2.44
279.5	2.37
279.878	2.27
280.257	2.79
280.635	2.67
281.013	2.47
281.391	2.35
281.769	2.82
282.147	2.44
282.525	1.94
282.903	2.7
283.281	2.39
283.659	2.33
284.037	2.62
284.415	2.61
284.792	2.73
285.17	2.17
285.548	2.29
285.925	2.59
286.303	2.24
286.68	2.67
287.058	2.54
287.435	2.71
287.813	2.41
288.19	2.66
288.567	2.3
288.945	2.68
289.322	2.5
289.699	2.7
290.076	2.21
290.453	2.2
290.83	2.64
291.207	2.92
291.584	2.4
291.961	2.5
292.338	2.96
292.715	2.69
293.092	2.39
293.469	2.65
293.845	2.52
294.222	2.74
294.599	2.79
294.975	2.45
295.352	2.36
295.728	2.72
296.105	2.95
296.481	2.44
296.858	2.56
297.234	2.77
297.61	2.6
297.986	2.37
298.363	2.82
298.739	2.62
299.115	2.61
299.491	2.85
299.867	2.36
300.243	2.3
300.619	2.85
300.995	2.75
301.371	2.57
301.746	2.62
302.122	2.75
302.498	2.41
302.874	2.58
303.249	2.73
303.625	2.68
304	2.88
304.376	2.83
304.751	2.8
305.127	3.34
305.502	3.09
305.878	3.4
306.253	3.18
306.628	3.3
307.003	2.97
307.378	3.22
307.754	2.95
308.129	2.99
308.504	2.71
308.879	2.81
309.254	2.62
309.629	3.03
310.003	2.63
310.378	2.61
310.753	2.67
311.128	3.31
311.502	2.47
311.877	2.99
312.252	2.4
312.626	2.6
313.001	2.99
313.375	3.35
313.75	3.28
314.124	2.87
314.498	3.34
314.873	3.05
315.247	3.14
315.621	2.77
315.995	2.98
316.369	2.95
316.743	3.33
317.117	3.3
317.491	2.78
317.865	3.36
318.239	3.25
318.613	2.88
318.987	3.51
319.361	3.01
319.734	2.71
320.108	3.27
320.482	2.9
320.855	2.6
321.229	3.48
321.602	2.74
321.976	2.39
322.349	2.99
322.723	3.02
323.096	3.02
323.469	3.32
323.843	3.91
324.216	2.91
324.589	3.32
324.962	3.21
325.335	3.34
325.708	2.98
326.081	2.87
326.454	3.01
326.827	3.15
327.2	2.8
327.573	3.29
327.945	3.03
328.318	3.3
328.691	3.19
329.063	3.25
329.436	3.17
329.809	2.67
330.181	3.04
330.553	3.32
330.926	2.97
331.298	3.46
331.671	3.06
332.043	3.43
332.415	3.22
332.787	3.26
333.159	3.16
333.532	2.99
333.904	3.28
334.276	2.98
334.648	3.17
335.02	3.5
335.391	3.17
335.763	2.98
336.135	3.65
336.507	3.55
336.879	3.33
337.25	2.83
337.622	3.65
337.993	3.33
338.365	3.36
338.736	3.39
339.108	2.83
339.479	3.17
339.851	3.07
340.222	3.13
340.593	2.95
340.964	3.26
341.336	2.76
341.707	3.01
342.078	3.22
342.449	3.58
342.82	3.25
343.191	3.42
343.562	3.69
343.933	3.24
344.303	3.52
344.674	3.41
345.045	3.22
345.416	3.27
345.786	3.25
346.157	3.42
346.527	3.41
346.898	3.43
347.268	3.45
347.639	3.68
348.009	3.39
348.38	3.3
348.75	3.86
349.12	3.24
349.49	3.08
349.861	3.01
350.231	3.25
350.601	3.7
350.971	3.68
351.341	3.32
351.711	3.33
352.081	2.98
352.45	3.28
352.82	3.31
353.19	3.48
353.56	3.56
353.929	3.61
354.299	3.76
354.669	3.64
355.038	3.59
355.408	3.25
355.777	3.66
356.147	3.37
356.516	3.67
356.885	3.45
357.254	3.31
357.624	3.66
357.993	3.54
358.362	3.34
358.731	3.29
359.1	3.14
359.469	3.35
359.838	3.43
360.207	3.57
360.576	3.4
360.945	3.55
361.314	3.7
361.682	3.54
362.051	3.3
362.42	3.28
362.788	3.39
363.157	3.36
363.525	3.53
363.894	3.36
364.262	3.21
364.631	3.37
364.999	3.38
365.367	3.74
365.735	3.68
366.104	3.18
366.472	3.68
366.84	3.71
367.208	3.37
367.576	3.56
367.944	4.04
368.312	3.6
368.68	3.46
369.048	3.53
369.416	3.45
369.783	3.44
370.151	3.52
370.519	3.61
370.886	3.57
371.254	3.35
371.621	3.79
371.989	3.35
372.356	3.29
372.724	3.84
373.091	3.57
373.458	3.25
373.826	3.72
374.193	3.48
374.56	3.33
374.927	3.57
375.294	3.52
375.661	3.89
376.028	3.56
376.395	3.42
376.762	3.25
377.129	3.61
377.496	3.68
377.863	3.75
378.229	3.73
378.596	3.75
378.963	3.52
379.329	3.47
379.696	3.67
380.062	3.47
380.429	3.64
380.795	3.51
381.161	4.01
381.528	3.76
381.894	3.83
382.26	3.62
382.626	3.82
382.993	3.72
383.359	3.66
383.725	3.83
384.091	3.45
384.457	3.68
384.823	3.67
385.188	3.67
385.554	3.42
385.92	3.51
386.286	3.62
386.651	3.67
387.017	3.48
387.383	3.62
387.748	3.52
388.114	3.68
388.479	3.59
388.845	3.44
389.21	3.88
389.575	3.48
389.94	3.64
390.306	3.53
390.671	3.57
391.036	3.69
391.401	3.68
391.766	3.77
392.131	3.57
392.496	3.68
392.861	3.64
393.226	3.71
393.591	3.66
393.956	3.92
394.32	3.78
394.685	3.9
395.05	3.92
395.414	3.9
395.779	3.66
396.143	4.07
396.508	3.58
396.872	3.87
397.236	3.82
397.601	3.73
397.965	3.99
398.329	3.74
398.694	3.73
399.058	3.75
399.422	3.9
399.786	3.93
400.15	3.61
400.514	3.83
400.878	3.9
401.242	4.01
401.605	3.81
401.969	3.81
402.333	3.82
402.697	3.93
403.06	3.82
403.424	3.66
403.787	3.89
404.151	3.68
404.514	3.65
404.878	3.92
405.241	3.76
405.604	3.66
405.968	3.84
406.331	3.65
406.694	3.86
407.057	3.67
407.42	3.94
407.783	3.74
408.146	3.95
408.509	3.85
408.872	4.02
409.235	4.03
409.598	3.73
409.961	3.77
410.323	3.91
410.686	4.09
411.049	3.92
411.411	3.76
411.774	3.79
412.136	3.69
412.499	3.93
412.861	3.86
413.223	3.84
413.586	3.8
413.948	3.88
414.31	3.94
414.672	3.96
415.035	3.85
415.397	3.95
415.759	4.03
416.121	4.07
416.483	3.99
416.845	4.07
417.206	4.09
417.568	3.76
417.93	3.86
418.292	3.59
418.653	3.95
419.015	3.91
419.377	3.88
419.738	3.91
420.1	3.86
420.461	3.84
420.822	3.76
421.184	3.77
421.545	3.7
421.906	3.71
422.267	3.9
422.629	3.8
422.99	3.79
423.351	3.84
423.712	3.87
424.073	3.84
424.434	3.83
424.795	4.03
425.155	3.87
425.516	3.79
425.877	3.91
426.238	3.82
426.598	3.82
426.959	3.89
427.32	3.88
427.68	3.91
428.041	3.98
428.401	3.79
428.761	3.97
429.122	3.95
429.482	4.06
429.842	4.08
430.202	3.94
430.563	3.85
430.923	3.99
431.283	4.04
431.643	4.1
432.003	4.19
432.363	4.13
432.722	4.01
433.082	3.97
433.442	3.89
433.802	4.03
434.161	3.96
434.521	3.99
434.881	3.83
435.24	4
435.6	3.96
435.959	3.99
436.319	3.93
436.678	3.86
437.037	4.04
437.396	3.88
437.756	4.07
438.115	3.81
438.474	3.98
438.833	4.05
439.192	3.94
439.551	3.94
439.91	3.98
440.269	4.04
440.628	4.18
440.987	4.17
441.345	3.99
441.704	3.96
442.063	4.14
442.421	3.94
442.78	3.98
443.138	3.93
443.497	3.96
443.855	3.94
444.214	4.02
444.572	4.18
444.93	3.95
445.288	4.13
445.647	3.9
446.005	4.11
446.363	4.08
446.721	3.91
447.079	3.99
447.437	3.97
447.795	4.01
448.153	3.98
448.51	3.99
448.868	3.95
449.226	4.02
449.584	4.03
449.941	4.03
450.299	4.15
450.656	4.13
451.014	4.1
451.371	4.07
451.729	4.08
452.086	4.03
452.443	4.12
452.801	4.12
453.158	4.11
453.515	4.06
453.872	4.17
454.229	3.97
454.586	3.99
454.943	4.24
455.3	4.04
455.657	4.12
456.014	3.99
456.371	4.13
456.727	4.09
457.084	4.02
457.441	4.05
457.797	4.27
458.154	4.23
458.51	4.17
458.867	4.13
459.223	4.1
459.58	4.16
459.936	4.29
460.292	4.1
460.648	4.08
461.005	4.2
461.361	4.06
461.717	4.06
462.073	4.13
462.429	4.2
462.785	4.12
463.141	4.16
463.496	4.19
463.852	4.11
464.208	4.33
464.564	4.25
464.919	4.13
465.275	4.17
465.631	4.26
465.986	4.23
466.342	4.25
466.697	4.24
467.052	4.34
467.408	4.39
467.763	4.44
468.118	4.24
468.473	4.13
468.829	4.21
469.184	4.3
469.539	4.39
469.894	4.28
470.249	4.18
470.603	4.21
470.958	4.27
471.313	4.33
471.668	4.26
472.023	4.35
472.377	4.35
472.732	4.39
473.086	4.33
473.441	4.25
473.795	4.22
474.15	4.34
474.504	4.6
474.859	4.38
475.213	4.41
475.567	4.43
475.921	4.41
476.275	4.33
476.63	4.24
476.984	4.42
477.338	4.36
477.692	4.39
478.045	4.37
478.399	4.32
478.753	4.37
479.107	4.24
479.461	4.44
479.814	4.37
480.168	4.44
480.521	4.32
480.875	4.38
481.228	4.44
481.582	4.47
481.935	4.35
482.289	4.37
482.642	4.28
482.995	4.36
483.348	4.22
483.701	4.27
484.055	4.39
484.408	4.29
484.761	4.17
485.114	4.11
485.466	4.03
485.819	4.06
486.172	4.11
486.525	4.21
486.878	4.26
487.23	4.28
487.583	4.34
487.936	4.32
488.288	4.28
488.641	4.28
488.993	4.23
489.345	4.16
489.698	4.22
490.05	4.2
490.402	4.23
490.754	4.37
491.107	4.32
491.459	4.39
491.811	4.43
492.163	4.38
492.515	4.31
492.866	4.27
493.218	4.19
493.57	4.24
493.922	4.3
494.274	4.37
494.625	4.32
494.977	4.46
495.328	4.54
495.68	4.56
496.031	4.54
496.383	4.6
496.734	4.53
497.086	4.54
497.437	4.63
497.788	4.51
498.139	4.58
498.49	4.5
498.842	4.52
499.193	4.54
499.544	4.59
499.894	4.6
500.245	4.57
500.596	4.57
500.947	4.54
501.298	4.66
501.648	4.69
501.999	4.6
502.35	4.6
502.7	4.67
503.051	4.71
503.401	4.63
503.752	4.57
504.102	4.67
504.452	4.74
504.803	4.66
505.153	4.78
505.503	4.58
505.853	4.78
506.203	4.73
506.553	4.82
506.903	4.63
507.253	4.74
507.603	4.69
507.953	4.8
508.303	4.68
508.652	4.84
509.002	4.75
509.352	4.79
509.701	4.7
510.051	4.65
510.4	4.67
510.75	4.75
511.099	4.71
511.449	4.75
511.798	4.73
512.147	4.77
512.496	4.77
512.846	4.76
513.195	4.69
513.544	4.76
513.893	4.81
514.242	4.79
514.591	4.82
514.939	4.83
515.288	4.86
515.637	4.79
515.986	4.91
516.334	4.9
516.683	4.93
517.032	4.94
517.38	4.99
517.729	5.01
518.077	4.81
518.426	4.97
518.774	4.91
519.122	4.95
519.47	4.77
519.819	4.77
520.167	4.87
520.515	4.87
520.863	4.83
521.211	4.88
521.559	4.94
521.907	4.87
522.255	5
522.602	5.06
522.95	4.92
523.298	5.02
523.645	5.05
523.993	5.03
524.341	5.06
524.688	5.1
525.036	5.09
525.383	5.14
525.73	5.1
526.078	5.05
526.425	5.02
526.772	4.94
527.119	5.01
527.466	4.94
527.814	4.98
528.161	4.91
528.508	4.97
528.854	5.03
529.201	5.05
529.548	4.99
529.895	4.86
530.242	4.86
530.588	4.87
530.935	4.89
531.282	5.04
531.628	5.04
531.975	5.08
532.321	5.06
532.667	5.12
533.014	5.12
533.36	5.21
533.706	5.19
534.052	5.2
534.399	5.12
534.745	5.04
535.091	5.07
535.437	5.11
535.783	5.12
536.129	5.19
536.474	5.33
536.82	5.25
537.166	5.36
537.512	5.37
537.857	5.34
538.203	5.22
538.549	5.26
538.894	5.34
539.239	5.28
539.585	5.35
539.93	5.51
540.276	5.49
540.621	5.49
540.966	5.55
541.311	5.53
541.656	5.35
542.001	5.62
542.346	5.39
542.691	5.29
543.036	5.28
543.381	5.26
543.726	5.29
544.071	5.38
544.415	5.46
544.76	5.46
545.105	5.47
545.449	5.5
545.794	5.53
546.138	5.61
546.483	5.67
546.827	5.67
547.171	5.6
547.516	5.58
547.86	5.71
548.204	5.6
548.548	5.58
548.892	5.72
549.236	5.79
549.58	5.88
549.924	5.77
550.268	6.03
550.612	5.81
550.956	5.88
551.3	5.91
551.643	5.84
551.987	5.93
552.33	5.92
552.674	5.93
553.017	6.03
553.361	6.05
553.704	6.06
554.048	6
554.391	6.06
554.734	5.86
555.077	6.12
555.42	6.1
555.764	6.12
556.107	6.22
556.45	5.99
556.793	6.25
557.135	6.2
557.478	6.06
557.821	6.24
558.164	6.38
558.507	6.19
558.849	6.19
559.192	6.33
559.534	6.2
559.877	6.48
560.219	6.57
560.562	6.24
560.904	6.24
561.246	6.27
561.589	6.58
561.931	6.49
562.273	6.44
562.615	6.5
562.957	6.46
563.299	6.42
563.641	6.47
563.983	6.56
564.325	6.53
564.667	6.47
565.008	6.54
565.35	6.76
565.692	6.63
566.033	6.79
566.375	6.84
566.716	6.7
567.058	6.57
567.399	6.65
567.741	6.65
568.082	6.76
568.423	6.73
568.764	6.73
569.105	6.85
569.447	6.76
569.788	6.97
570.129	6.81
570.47	6.76
570.811	6.93
571.151	6.84
571.492	7.01
571.833	6.95
572.174	7
572.514	7.16
572.855	7.02
573.195	6.99
573.536	6.95
573.876	7.09
574.217	6.96
574.557	7.11
574.898	7.09
575.238	7.18
575.578	7.17
575.918	7.14
576.258	7.24
576.598	7.3
576.938	7.26
577.278	7.28
577.618	7.22
577.958	7.4
578.298	7.45
578.638	7.35
578.977	7.4
579.317	7.4
579.657	7.42
579.996	7.33
580.336	7.42
580.675	7.49
581.014	7.64
581.354	7.46
581.693	7.63
582.032	7.65
582.372	7.8
582.711	7.79
583.05	7.71
583.389	7.84
583.728	7.85
584.067	7.85
584.406	7.91
584.745	7.85
585.083	7.73
585.422	8.03
585.761	8.16
586.1	8.13
586.438	8.01
586.777	8.04
587.115	8.08
587.454	8.2
587.792	8.06
588.13	8.2
588.469	8.28
588.807	8.36
589.145	8.35
589.483	8.22
589.821	8.07
590.159	8.1
590.497	8.37
590.835	8.3
591.173	8.43
591.511	8.48
591.849	8.3
592.187	8.29
592.524	8.43
592.862	8.67
593.2	8.59
593.537	8.43
593.875	8.78
594.212	8.52
594.55	8.77
594.887	8.7
595.224	8.73
595.561	8.71
595.899	8.47
596.236	8.65
596.573	8.66
596.91	8.81
597.247	8.75
597.584	8.75
597.921	8.65
598.258	8.79
598.594	8.74
598.931	8.84
599.268	8.97
599.604	9.09
599.941	8.83
600.277	8.9
600.614	9.21
600.95	9.14
601.287	9.42
601.623	9.18
601.959	9.12
602.296	9.14
602.632	9.29
602.968	9.2
603.304	9.55
603.64	9.3
603.976	9.4
604.312	9.3
604.648	9.17
604.984	9.37
605.319	9.39
605.655	9.43
605.991	9.3
606.326	9.37
606.662	9.17
606.998	9.4
607.333	9.56
607.668	9.64
608.004	9.67
608.339	9.79
608.674	9.6
609.01	9.59
609.345	9.56
609.68	9.98
610.015	10.06
610.35	10.01
610.685	9.67
611.02	9.84
611.355	9.65
611.689	9.86
612.024	9.82
612.359	9.9
612.694	10.09
613.028	9.96
613.363	10.1
613.697	10.22
614.032	10.23
614.366	9.84
614.7	10.12
615.035	10.23
615.369	10.43
615.703	10.34
616.037	10.39
616.371	10.67
616.705	10.81
617.039	10.58
617.373	10.78
617.707	10.64
618.041	10.42
618.375	10.84
618.709	10.74
619.042	10.89
619.376	10.51
619.71	10.42
620.043	10.76
620.377	10.83
620.71	10.74
621.043	11.23
621.377	10.74
621.71	11.1
622.043	10.98
622.376	10.9
622.709	11.28
623.043	11.08
623.376	11.41
623.709	11.14
624.041	11.09
624.374	11.24
624.707	11.32
625.04	11.16
625.373	11.42
625.705	11.09
626.038	11.04
626.37	11.41
626.703	11.56
627.035	11.2
627.368	11.09
627.7	11.74
628.032	11.45
628.365	11.75
628.697	11.74
629.029	11.66
629.361	11.56
629.693	11.44
630.025	11.72
630.357	11.69
630.689	11.59
631.021	11.61
631.353	11.8
631.684	11.87
632.016	12.15
632.348	11.82
632.679	12.04
633.011	11.9
633.342	11.91
633.674	12.16
634.005	12.26
634.336	11.9
634.668	12.07
634.999	12.04
635.33	11.96
635.661	12.44
635.992	12.34
636.323	12.25
636.654	12.51
636.985	12.48
637.316	12.45
637.647	12.43
637.977	12.38
638.308	12.5
638.639	12.53
638.969	12.8
639.3	12.66
639.63	12.84
639.961	12.83
640.291	12.75
640.622	12.92
640.952	12.7
641.282	12.95
641.612	12.76
641.943	12.72
642.273	13.27
642.603	12.9
642.933	12.69
643.263	12.97
643.592	13.34
643.922	12.71
644.252	13.02
644.582	13.38
644.911	13.17
645.241	13.24
645.571	13.34
645.9	13.03
646.23	13.01
646.559	13.4
646.888	13.73
647.218	13.16
647.547	13.6
647.876	13.37
648.205	13.61
648.534	13.65
648.863	13.72
649.192	14.06
649.521	14.01
649.85	14.12
650.179	13.82
650.508	13.76
650.837	14.12
651.165	13.95
651.494	14.3
651.822	13.53
652.151	13.85
652.479	14.6
652.808	14.12
653.136	14.3
653.465	13.92
653.793	14.19
654.121	14.02
654.449	13.95
654.777	14.42
655.105	14.43
655.433	14.31
655.761	14.3
656.089	14.24
656.417	14.49
656.745	14.5
657.073	14.62
657.4	14.39
657.728	14.61
658.056	14.31
658.383	14.8
658.711	15.1
659.038	14.95
659.365	14.59
659.693	14.59
660.02	15.13
660.347	15.26
660.674	14.73
661.001	14.8
661.329	14.51
661.656	14.74
661.982	14.99
662.309	15.33
662.636	14.94
662.963	15.17
663.29	15.4
663.616	15
663.943	15.43
664.27	15.05
664.596	15.05
664.923	15.18
665.249	15.12
665.576	14.97
665.902	15.03
666.228	15.32
666.554	15.51
666.881	15.53
667.207	15.53
667.533	15.99
667.859	15.24
668.185	15.46
668.511	15.7
668.837	15.78
669.162	15.78
669.488	15.4
669.814	15.63
670.139	16
670.465	15.72
670.791	15.71
671.116	16.11
671.442	15.93
671.767	16.04
672.092	15.81
672.418	16.54
672.743	15.58
673.068	16.22
673.393	16.22
673.718	16.38
674.043	16.13
674.368	16.33
674.693	16.95
675.018	16.47
675.343	16.83
675.667	16.5
675.992	16.69
676.317	16.51
676.641	16.64
676.966	16.15
677.29	16.6
677.615	17.09
677.939	16.86
678.264	17.03
678.588	17.4
678.912	17.02
679.236	17.27
679.56	17.11
679.885	17.04
680.209	16.94
680.532	16.84
680.856	17.49
681.18	17.27
681.504	17.3
681.828	16.3
682.152	17.52
682.475	17.22
682.799	17.46
683.122	16.96
683.446	17.55
683.769	17.89
684.093	17.88
684.416	17.88
684.739	18.1
685.062	17.93
685.386	17.9
685.709	18.4
686.032	17.22
686.355	17.19
686.678	18.1
687.001	18.26
687.324	17.96
687.646	18.27
687.969	17.58
688.292	18.61
688.614	17.77
688.937	17.94
689.26	18.56
689.582	18.75
689.904	18.13
690.227	18.25
690.549	18.05
690.871	18.43
691.194	18.04
691.516	18.77
691.838	18.25
692.16	18.23
692.482	18.39
692.804	18.31
693.126	18.22
693.448	18.39
693.769	19.15
694.091	18.67
694.413	18.23
694.735	18.59
695.056	18.61
695.378	18.23
695.699	19.09
696.021	18.87
696.342	18.81
696.663	19.29
696.984	18.65
697.306	19.11
697.627	19.25
697.948	18.63
698.269	18.84
698.59	19.52
698.911	19.39
699.232	19.15
699.553	18.7
699.873	19.8
700.194	19.25
700.515	19.11
700.835	19.23
701.156	19.27
701.477	19.39
701.797	19.15
702.117	19.44
702.438	19.38
702.758	19.48
703.078	19.89
703.398	19.06
703.719	19.28
704.039	20.06
704.359	20.7
704.679	19.17
704.999	20.52
705.319	19.76
705.638	20
705.958	19.85
706.278	20.39
706.597	20.36
706.917	19.36
707.237	19.36
707.556	20.58
707.876	20.55
708.195	19.74
708.514	20.17
708.834	20.15
709.153	20.14
709.472	20.22
709.791	20.76
710.11	20.37
710.429	19.5
710.748	20.14
711.067	20.69
711.386	21.23
711.705	20.41
712.023	21.07
712.342	21.06
712.661	20.77
712.979	21.67
713.298	20.44
713.616	20.41
713.935	21.59
714.253	21.64
714.572	20.93
714.89	21.42
715.208	20.2
715.526	20.68
715.844	21.48
716.162	21.58
716.48	20.72
716.798	21.11
717.116	20.9
717.434	21.2
717.752	21.12
718.069	21.31
718.387	21.9
718.705	21.75
719.022	21.48
719.34	21.47
719.657	22.05
719.975	21.22
720.292	21.09
720.609	21.82
720.927	22.95
721.244	21.98
721.561	22.31
721.878	22.46
722.195	22.34
722.512	21.95
722.829	21.3
723.146	21.68
723.463	21.57
723.779	23.02
724.096	21.89
724.413	22.05
724.729	21.7
725.046	21.52
725.362	22.89
725.679	22.84
725.995	21.57
726.311	21.49
726.628	22.62
726.944	21.8
727.26	23.25
727.576	21.44
727.892	21.11
728.208	22.47
728.524	22.88
728.84	22.44
729.156	23.22
729.472	22.25
729.787	23.2
730.103	22.57
730.419	23.45
730.734	22.95
731.05	22.31
731.365	21.82
731.681	22.23
731.996	22.59
732.311	22.54
732.626	22.71
732.942	23.13
733.257	22.83
733.572	24.56
733.887	22.69
734.202	22.79
734.517	23.22
734.832	24
735.146	23.46
735.461	22.86
735.776	23.75
736.091	23.3
736.405	24.02
736.72	22.78
737.034	23.45
737.349	24.41
737.663	23.71
737.977	24.34
738.292	23.16
738.606	23.98
738.92	23.28
739.234	24.8
739.548	24.41
739.862	23.42
740.176	23.22
740.49	24.1
740.804	23.59
741.117	25.04
741.431	24.88
741.745	25.16
742.058	24.39
742.372	24.85
742.685	25.32
742.999	23.28
743.312	25
743.626	25.2
743.939	23.46
744.252	23.56
744.565	25.02
744.878	24.97
745.191	25.29
745.505	25.38
745.817	25.21
746.13	25.26
746.443	23.48
746.756	24.68
747.069	26.31
747.381	25.3
747.694	26.26
748.007	25.05
748.319	24.48
748.632	25.62
748.944	24.87
749.256	24.64
749.569	25.78
749.881	27.88
750.193	24.53
750.505	24.81
750.817	25.53
751.129	25.11
751.441	26.08
751.753	25.9
752.065	26.81
752.377	25.91
752.689	25.58
753	26.87
753.312	26.27
753.624	26.25
753.935	25.31
754.247	23.17
754.558	27.24
754.869	25.09
755.181	25.76
755.492	23.94
755.803	27.31
756.114	26.4
756.425	27.47
756.736	24.78
757.047	24.03
757.358	26.43
757.669	27.1
757.98	25.75
758.291	25.6
758.601	26.76
758.912	26.23
759.223	26.46
759.533	26.01
759.844	28.03
760.154	25.8
760.464	25.48
760.775	25.4
761.085	25.07
761.395	27.24
761.705	27.36
762.016	25.86
762.326	27.79
762.636	28.12
762.945	25.04
763.255	27.3
763.565	27.34
763.875	28.02
764.185	28.15
764.494	27.43
764.804	26.65
765.113	27.38
765.423	28.72
765.732	26.68
766.042	27.03
766.351	27.45
766.66	26.83
766.97	26.8
767.279	28.13
767.588	28.74
767.897	28.6
768.206	28.66
768.515	27.27
768.824	27.89
769.133	28.98
769.441	27.44
769.75	26.71
770.059	28.34
770.367	28.28
770.676	26.87
770.984	28.39
771.293	27.66
771.601	28.12
771.91	27.2
772.218	29.27
772.526	28.06
772.834	26.01
773.142	27.65
773.45	25.79
773.758	30.08
774.066	26.67
774.374	25.4
774.682	29.26
774.99	27.63
775.298	29.28
775.605	26.97
775.913	26.63
776.22	31.2
776.528	28.94
776.835	32.58
777.143	28.49
777.45	28.68
777.757	28.28
778.065	29.97
778.372	30.7
778.679	27.12
778.986	26.94
779.293	28.17
779.6	27.86
779.907	28.88
780.214	27.92
780.52	30.97
780.827	29.5
781.134	29.98
781.44	27.93
781.747	28.46
782.053	29.4
782.36	30.04
782.666	28.62
782.973	27.46
783.279	26.93
783.585	30.46
783.891	29.74
784.197	27.37
784.503	26.94
784.809	27.16
785.115	27.71
785.421	29.38
785.727	28.5
786.033	27.05
786.339	29.9
786.644	24.87
786.95	28.91
787.255	30.59
787.561	33.11
787.866	31.4
788.172	30.98
788.477	29.95
788.782	30.33
789.088	30.27
789.393	31.97
789.698	30.79
790.003	31.43
790.308	30.34
790.613	30.97
790.918	30.7
791.223	29.84
791.527	29.84
791.832	32.29
792.137	31.11
792.441	32.23
792.746	30.14
793.05	30.38
793.355	29.95
793.659	33.08
793.963	27.27
794.268	30.95
794.572	32.76
794.876	31.03
795.18	29.58
795.484	33.41
795.788	27.38
796.092	32.1
796.396	33.1
796.7	32.3
797.004	29.96
797.307	26.33
797.611	30.74
797.915	28.66
798.218	33.07
798.522	33.99
798.825	33.21
799.128	30.99
799.432	32.56
799.735	33.43
800.038	27.64
800.341	29.75
800.644	31.75
800.947	32.01
801.25	30.47
801.553	32.13
801.856	32.78
802.159	32.18
802.462	30.32
802.764	31.73
803.067	30.22
803.37	28.9
803.672	30.89
803.975	31.81
804.277	28.37
804.579	29.27
804.882	31.37
805.184	29.72
805.486	29.12
805.788	33.15
806.09	33.79
806.392	31.09
806.694	29.49
806.996	31.47
807.298	37.14
807.6	32.47
807.902	35.89
808.203	27.2
808.505	31.9
808.807	29.7
809.108	30.09
809.409	31.88
809.711	32.2
810.012	31.53
810.313	33.55
810.615	28.63
810.916	31.26
811.217	29.98
811.518	28.12
811.819	34.35
812.12	33.19
812.421	30.94
812.722	29.85
813.023	31.7
813.323	32.17
813.624	28.02
813.925	30.44
814.225	35.18
814.526	41.59
814.826	36.09
815.126	30.6
815.427	33.3
815.727	35.24
816.027	33.63
816.327	38.67
816.627	33.36
816.927	34.93
817.227	27.97
817.527	28.88
817.827	28.28
818.127	29.26
818.427	31.41
818.727	28.44
819.026	27.56
819.326	35.81
819.625	35.47
819.925	35.14
820.224	37.17
820.524	32.33
820.823	34.5
821.122	32.48
821.421	33.6
821.72	35.27
822.019	32.52
822.318	33.76
822.617	32.57
822.916	30.19
823.215	34.92
823.514	33.59
823.813	36.69
824.111	34.91
824.41	35.75
824.709	35.45
825.007	35.04
825.306	35.19
825.604	35.88
825.902	36.13
826.201	35.2
826.499	36.62
826.797	37.16
827.095	34.4
827.393	36.38
827.691	37.78
827.989	35.31
828.287	36.66
828.585	35.84
828.882	36.11
829.18	35.89
829.478	35.98
829.775	35.54
830.073	35.51
830.37	35.81
830.668	37.12
830.965	36.34
831.263	36.96
831.56	36.93
831.857	37.11
832.154	38.73
832.451	36.87
832.748	33.07
833.045	35.12
833.342	34.84
833.639	35.68
833.936	34.2
834.232	38.35
834.529	35.99
834.826	38.12
835.122	33.6
835.419	36.24
835.715	33.02
836.012	37.32
836.308	39.8
836.604	36.04
836.901	39.15
837.197	35.23
837.493	37.14
837.789	35.02
838.085	36.84
838.381	39.27
838.677	39.36
838.972	37.97
839.268	35.58
839.564	36.11
839.86	39.53
840.155	32.86
840.451	28.98
840.746	34.34
841.042	38.75
841.337	36.02
841.632	39.37
841.928	32.76
842.223	42.25
842.518	45.13
842.813	31.82
843.108	41.94
843.403	36.83
843.698	33.57
843.993	33.83
844.287	40.44
844.582	43.6
844.877	31.84
845.171	37.47
845.466	44.37
845.761	38.43
846.055	34.21
846.349	24.3
846.644	38.73
846.938	22.69
847.232	29.53
847.526	24.75
847.82	32.3
848.114	38.21
848.408	33.76
848.702	32.92
848.996	50.69
849.29	33.02
849.584	44.31
849.877	30.69
850.171	23.87
850.465	32.77
850.758	26.23
851.052	29.71
851.345	27.78
851.638	42.58
851.932	36.26
852.225	41.05
852.518	45.48
852.811	39.26
853.104	25.06
853.397	38.01
853.69	46.5
853.983	23.27
854.276	22.3
854.569	38.26
854.861	33.81
855.154	34.88
855.447	23.97
855.739	36.5
856.032	28.72
856.324	26.18
856.616	37.15
856.909	54.85
857.201	37.93
857.493	48.91
857.785	33.2
858.077	22.12
858.369	36.97
858.661	14.61
858.953	44.89
859.245	23.07
859.537	37.78
859.829	14.68
860.12	36.08
860.412	24.21
860.703	40.6
860.995	54.47
861.286	6.71
861.578	39.47
861.869	33.84
862.16	23.03
862.452	22.85
862.743	58.76
863.034	34.86
863.325	39.55
863.616	16.64
863.907	23.72
864.198	34.1
864.488	20.22
864.779	44.01
865.07	32.65
865.36	47.32
865.651	18.46
865.941	38.61
866.232	15.83
866.522	22.01
866.813	23.88
867.103	32.9
867.393	26.66
867.683	52.14
867.973	24.29
868.263	41.97
868.553	29.86
868.843	36.31
869.133	37.42
869.423	36.79
869.713	23.5
870.002	45.61
870.292	45.73
870.582	20.65
870.871	13.91
871.161	35.8
871.45	30.06
871.739	38.74
872.029	26.15
872.318	29.92
872.607	20.01
872.896	-20.21
873.185	40.89
873.474	15.94
873.763	34.79
874.052	33.23
874.341	41.25
874.63	34.9
874.918	29.9
875.207	34.59
875.496	26.45
875.784	13.78
876.073	22.37
876.361	23.38
876.649	26.88
876.938	38.02
877.226	54.26
877.514	33.05
877.802	54.56
878.09	57.82
878.378	34.46
878.666	24.53
878.954	30.64
879.242	34.82
879.53	35.72
879.817	44.62
880.105	19.46
880.392	39.2
880.68	43.96
880.967	27.18
881.255	44.97
881.542	30.19
881.83	28.52
882.117	37.23
882.404	32.55
882.691	45.03
882.978	52.11
883.265	36.08
883.552	30.41
883.839	50.83
884.126	41.68
884.413	28.5
884.699	36.45
884.986	49.14
885.273	39.83
885.559	39.83
885.846	39.83
