Data from 1610-4_forehead_Reflection__3__59.txt Node

Date: Fri Nov 11 16:35:25 CST 2022
User: ToomeyLab
Spectrometer: FLMS14357
Trigger mode: 0
Integration Time (sec): 1.000000E-2
Scans to average: 100
Electric dark correction enabled: true
Nonlinearity correction enabled: false
Boxcar width: 0
XAxis mode: Wavelengths
Number of Pixels in Spectrum: 2048
>>>>>Begin Spectral Data<<<<<
189.047	-27.35
189.435	-27.35
189.823	-27.35
190.211	37.01
190.599	305.42
190.987	-1175.66
191.375	-146.34
191.763	109.21
192.151	106.42
192.538	403.2
192.926	1466.08
193.314	-133.77
193.702	222.22
194.089	3321.43
194.477	1025.73
194.864	96.76
195.252	141.81
195.639	-44.99
196.027	-292.67
196.414	400.75
196.801	13.35
197.189	141.47
197.576	-1023.11
197.963	47.28
198.351	14.55
198.738	10.74
199.125	47.69
199.512	24.64
199.899	43.65
200.286	23.16
200.673	49.74
201.06	12.25
201.447	42.41
201.833	43.9
202.22	31.94
202.607	31.82
202.994	30.48
203.38	7.13
203.767	41.87
204.154	28.67
204.54	56.15
204.927	4.2
205.313	19.71
205.699	68.42
206.086	37.64
206.472	41.82
206.858	33.39
207.245	32.6
207.631	47.85
208.017	44.05
208.403	27.93
208.789	-18.17
209.175	44.09
209.561	46.79
209.947	26.87
210.333	45.44
210.719	36.12
211.105	-13.36
211.491	-21.01
211.876	19.81
212.262	-0.11
212.648	6.69
213.034	25.46
213.419	10.28
213.805	13.81
214.19	4.33
214.576	19.93
214.961	5.92
215.346	-35.84
215.732	13.71
216.117	30.75
216.502	19.35
216.888	19.41
217.273	12.11
217.658	34.54
218.043	4.28
218.428	19.33
218.813	34.28
219.198	-9.35
219.583	11.66
219.968	26.42
220.353	-8.75
220.738	30.66
221.122	6.44
221.507	20.27
221.892	28.9
222.276	14.27
222.661	3.09
223.046	15.41
223.43	13.23
223.815	2.31
224.199	13.77
224.583	12.83
224.968	23.33
225.352	2.74
225.736	5.91
226.121	4.38
226.505	7.04
226.889	2.34
227.273	1.83
227.657	1.98
228.041	1.52
228.425	8.57
228.809	7.91
229.193	3.65
229.577	6.41
229.961	4.14
230.344	3.7
230.728	3.71
231.112	3.87
231.495	4.09
231.879	4.3
232.263	3.33
232.646	3.94
233.03	4.72
233.413	4.28
233.797	2.76
234.18	5.09
234.563	4.72
234.946	4.22
235.33	4.85
235.713	3.99
236.096	3.37
236.479	4.15
236.862	5.57
237.245	4.78
237.628	4.84
238.011	5.34
238.394	4.67
238.777	4.16
239.16	4.63
239.543	3.92
239.925	5.67
240.308	3.4
240.691	4.65
241.073	3.3
241.456	2.56
241.838	3.14
242.221	3.92
242.603	3.38
242.986	3.88
243.368	3.19
243.75	3.71
244.133	3.54
244.515	3.7
244.897	3.31
245.279	3.43
245.661	4.02
246.043	4.02
246.425	4.25
246.807	3.78
247.189	2.84
247.571	3.05
247.953	3.67
248.335	3.73
248.717	3.63
249.098	3.62
249.48	3.76
249.862	3.57
250.243	3.79
250.625	3.78
251.006	3.81
251.388	3.79
251.769	4.1
252.151	4.27
252.532	4.55
252.913	3.54
253.295	3.44
253.676	3.66
254.057	3.73
254.438	3.86
254.819	4.1
255.2	4.76
255.581	3.58
255.962	4.36
256.343	4.49
256.724	4.17
257.105	4.02
257.486	4.44
257.867	3.7
258.247	5.21
258.628	3.87
259.009	3.58
259.389	4.43
259.77	4.54
260.15	4.31
260.531	3.79
260.911	3.86
261.292	3.75
261.672	3.55
262.052	3.61
262.432	3.85
262.813	3.66
263.193	3.9
263.573	4.62
263.953	4.19
264.333	4.04
264.713	3.48
265.093	3.71
265.473	5.06
265.853	2.9
266.233	4.1
266.612	3.64
266.992	4.1
267.372	4.05
267.752	3.98
268.131	3.96
268.511	3.81
268.89	4.22
269.27	3.11
269.649	3.14
270.029	3.18
270.408	3.27
270.787	4.67
271.167	3.78
271.546	4.18
271.925	4.26
272.304	4.05
272.683	3.6
273.062	4.17
273.441	3.7
273.82	3.73
274.199	3.87
274.578	3.9
274.957	3.46
275.336	3.74
275.715	3.62
276.093	4.41
276.472	3.76
276.851	4.01
277.229	3.65
277.608	4.02
277.986	3.72
278.365	4.26
278.743	3.78
279.122	3.85
279.5	3.58
279.878	3.61
280.257	4.12
280.635	4.06
281.013	3.61
281.391	3.5
281.769	3.84
282.147	3.7
282.525	3.61
282.903	4.15
283.281	3.62
283.659	3.61
284.037	3.52
284.415	3.15
284.792	3.78
285.17	3.24
285.548	3.8
285.925	3.84
286.303	3.55
286.68	3.99
287.058	3.68
287.435	3.92
287.813	3.55
288.19	3.79
288.567	3.77
288.945	3.78
289.322	3.78
289.699	3.99
290.076	3.49
290.453	3.6
290.83	4.08
291.207	4
291.584	4.07
291.961	3.92
292.338	4.09
292.715	3.75
293.092	3.79
293.469	4.15
293.845	4.62
294.222	4.63
294.599	4.36
294.975	3.9
295.352	4.2
295.728	4.27
296.105	4.15
296.481	4.11
296.858	4.41
297.234	4.6
297.61	4.51
297.986	3.86
298.363	4.22
298.739	4.31
299.115	4.14
299.491	4.33
299.867	4.26
300.243	4.26
300.619	4.62
300.995	4.34
301.371	4.43
301.746	4.59
302.122	4.94
302.498	4.48
302.874	4.48
303.249	4.63
303.625	4.64
304	4.73
304.376	5.29
304.751	5.48
305.127	5.28
305.502	5.24
305.878	5.54
306.253	5.34
306.628	5.11
307.003	5.14
307.378	5.39
307.754	5.43
308.129	5.6
308.504	5.56
308.879	5.16
309.254	5.17
309.629	5.59
310.003	5.77
310.378	4.73
310.753	5.27
311.128	5.4
311.502	5.37
311.877	5.61
312.252	5.39
312.626	5.43
313.001	5.43
313.375	5.44
313.75	5.8
314.124	5.68
314.498	5.97
314.873	5.65
315.247	5.89
315.621	5.44
315.995	5.88
316.369	5.95
316.743	5.85
317.117	6.21
317.491	6.25
317.865	6.8
318.239	6.44
318.613	6.65
318.987	7.08
319.361	6.5
319.734	5.97
320.108	6.84
320.482	6.43
320.855	6.56
321.229	6.72
321.602	6.73
321.976	6.54
322.349	6.92
322.723	6.7
323.096	7.25
323.469	7.08
323.843	7.45
324.216	6.93
324.589	7
324.962	6.33
325.335	7.09
325.708	6.79
326.081	7.05
326.454	7.64
326.827	7.48
327.2	7.06
327.573	7.77
327.945	7.54
328.318	7.51
328.691	7.69
329.063	7.52
329.436	7.96
329.809	7.63
330.181	7.91
330.553	8.2
330.926	7.72
331.298	7.73
331.671	7.98
332.043	7.8
332.415	7.8
332.787	8.21
333.159	7.94
333.532	8.14
333.904	8.05
334.276	8.66
334.648	7.81
335.02	7.9
335.391	8.05
335.763	8.19
336.135	8.26
336.507	8.18
336.879	8.19
337.25	8
337.622	8.71
337.993	8.28
338.365	8.36
338.736	8.38
339.108	8.23
339.479	8.3
339.851	8.12
340.222	8.36
340.593	8.14
340.964	8.71
341.336	8.48
341.707	8.73
342.078	8.55
342.449	9.08
342.82	8.95
343.191	9.21
343.562	9.21
343.933	8.91
344.303	9.08
344.674	8.91
345.045	9.23
345.416	9.38
345.786	9.37
346.157	9.13
346.527	9.03
346.898	9.32
347.268	9.05
347.639	9.48
348.009	9.47
348.38	9.19
348.75	9.73
349.12	9.66
349.49	9.4
349.861	9.44
350.231	9.43
350.601	10.13
350.971	9.87
351.341	9.62
351.711	9.43
352.081	9.54
352.45	10.05
352.82	10.14
353.19	10.01
353.56	9.82
353.929	10.11
354.299	10.05
354.669	10.14
355.038	10.07
355.408	9.99
355.777	10.18
356.147	10.19
356.516	10.31
356.885	10.16
357.254	10.21
357.624	10.53
357.993	10.38
358.362	10.22
358.731	10.17
359.1	10.06
359.469	10.09
359.838	10.32
360.207	10.58
360.576	10.41
360.945	11.14
361.314	10.75
361.682	10.75
362.051	10.49
362.42	10.57
362.788	10.62
363.157	10.87
363.525	10.85
363.894	10.64
364.262	10.65
364.631	10.91
364.999	10.89
365.367	11.27
365.735	11.31
366.104	11.05
366.472	11.24
366.84	11.18
367.208	11.08
367.576	11.17
367.944	11.34
368.312	11.4
368.68	11.44
369.048	11.37
369.416	11.21
369.783	11.32
370.151	11.45
370.519	11.79
370.886	11.63
371.254	11.83
371.621	11.62
371.989	11.52
372.356	11.51
372.724	12.03
373.091	11.74
373.458	11.73
373.826	12.05
374.193	12.11
374.56	12.06
374.927	12.06
375.294	12.25
375.661	12.12
376.028	12.1
376.395	12.26
376.762	12.2
377.129	12.45
377.496	12.32
377.863	12.37
378.229	12.5
378.596	12.28
378.963	12.12
379.329	12.29
379.696	12.33
380.062	12.6
380.429	12.28
380.795	12.52
381.161	12.72
381.528	12.62
381.894	13.02
382.26	12.69
382.626	12.76
382.993	12.62
383.359	12.77
383.725	12.96
384.091	12.91
384.457	12.88
384.823	12.85
385.188	13.13
385.554	13.07
385.92	12.79
386.286	12.99
386.651	12.87
387.017	13.04
387.383	13.13
387.748	13.26
388.114	13.37
388.479	13.28
388.845	13.27
389.21	13.5
389.575	13.35
389.94	13.52
390.306	13.24
390.671	13.43
391.036	13.54
391.401	13.54
391.766	13.76
392.131	13.38
392.496	13.78
392.861	13.85
393.226	13.75
393.591	13.81
393.956	13.73
394.32	13.76
394.685	14.07
395.05	14.24
395.414	13.93
395.779	13.93
396.143	14.11
396.508	13.82
396.872	14.09
397.236	14.26
397.601	14.34
397.965	14.26
398.329	14.35
398.694	14.05
399.058	14.13
399.422	14.47
399.786	14.55
400.15	14.51
400.514	14.73
400.878	14.56
401.242	14.65
401.605	14.46
401.969	14.75
402.333	14.85
402.697	14.5
403.06	14.77
403.424	14.67
403.787	14.95
404.151	14.8
404.514	14.96
404.878	15.12
405.241	14.73
405.604	14.9
405.968	15.14
406.331	14.97
406.694	14.93
407.057	15.03
407.42	15.17
407.783	15.14
408.146	15.37
408.509	15.22
408.872	15.58
409.235	15.52
409.598	15.53
409.961	15.46
410.323	15.86
410.686	15.73
411.049	15.83
411.411	15.53
411.774	15.79
412.136	15.64
412.499	15.81
412.861	15.64
413.223	15.83
413.586	15.9
413.948	15.89
414.31	16.14
414.672	16.34
415.035	16.35
415.397	16.32
415.759	16.35
416.121	16.41
416.483	16.27
416.845	16.55
417.206	16.6
417.568	16.33
417.93	16.55
418.292	16.38
418.653	16.44
419.015	16.35
419.377	16.55
419.738	16.43
420.1	16.43
420.461	16.4
420.822	16.5
421.184	16.44
421.545	16.45
421.906	16.55
422.267	16.47
422.629	16.33
422.99	16.32
423.351	16.46
423.712	16.36
424.073	16.39
424.434	16.51
424.795	16.93
425.155	16.73
425.516	16.63
425.877	16.74
426.238	16.6
426.598	16.64
426.959	16.72
427.32	16.91
427.68	16.98
428.041	17.08
428.401	17.14
428.761	17.2
429.122	17.44
429.482	17.67
429.842	17.62
430.202	17.73
430.563	17.68
430.923	17.73
431.283	17.77
431.643	17.79
432.003	17.94
432.363	17.87
432.722	17.83
433.082	17.78
433.442	17.84
433.802	17.99
434.161	17.92
434.521	17.93
434.881	17.86
435.24	17.89
435.6	17.84
435.959	17.87
436.319	18
436.678	17.99
437.037	18.11
437.396	18.31
437.756	18.36
438.115	18.39
438.474	18.31
438.833	18.42
439.192	18.57
439.551	18.5
439.91	18.74
440.269	18.55
440.628	18.72
440.987	18.7
441.345	18.64
441.704	18.48
442.063	18.56
442.421	18.48
442.78	18.55
443.138	18.51
443.497	18.59
443.855	18.53
444.214	18.69
444.572	18.95
444.93	19.02
445.288	19.1
445.647	19.07
446.005	19.17
446.363	19.09
446.721	18.99
447.079	19.03
447.437	18.96
447.795	18.73
448.153	18.89
448.51	18.79
448.868	18.78
449.226	18.87
449.584	18.89
449.941	18.89
450.299	19.25
450.656	19.22
451.014	19.3
451.371	19.35
451.729	19.48
452.086	19.4
452.443	19.62
452.801	19.81
453.158	19.64
453.515	19.78
453.872	19.74
454.229	19.67
454.586	19.61
454.943	19.74
455.3	19.76
455.657	20.08
456.014	19.84
456.371	19.94
456.727	20.06
457.084	20.03
457.441	20.1
457.797	20.13
458.154	20.18
458.51	20.26
458.867	20.46
459.223	20.34
459.58	20.4
459.936	20.48
460.292	20.36
460.648	20.31
461.005	20.24
461.361	20.14
461.717	20.12
462.073	19.98
462.429	20.08
462.785	20.13
463.141	20.45
463.496	20.36
463.852	20.6
464.208	20.68
464.564	20.99
464.919	20.66
465.275	20.82
465.631	20.9
465.986	20.92
466.342	20.95
466.697	21.1
467.052	21.06
467.408	21.05
467.763	21.08
468.118	21.18
468.473	21.11
468.829	21.17
469.184	21.35
469.539	21.26
469.894	21.23
470.249	21.39
470.603	21.34
470.958	21.47
471.313	21.36
471.668	21.59
472.023	21.66
472.377	21.57
472.732	21.5
473.086	21.69
473.441	21.82
473.795	21.77
474.15	21.76
474.504	21.94
474.859	21.89
475.213	21.72
475.567	21.99
475.921	22.02
476.275	21.97
476.63	22.08
476.984	22.25
477.338	22.08
477.692	22.28
478.045	22.18
478.399	22.12
478.753	22.05
479.107	22.3
479.461	22.03
479.814	22.28
480.168	22.29
480.521	22.2
480.875	22.34
481.228	22.33
481.582	22.37
481.935	22.42
482.289	22.53
482.642	22.29
482.995	22.29
483.348	22.21
483.701	22.29
484.055	22.18
484.408	22.09
484.761	21.98
485.114	21.91
485.466	21.91
485.819	21.76
486.172	21.56
486.525	21.41
486.878	21.51
487.23	21.73
487.583	21.99
487.936	22.1
488.288	22.15
488.641	22.27
488.993	22.18
489.345	22.18
489.698	22.18
490.05	22.06
490.402	22.02
490.754	22.13
491.107	22.16
491.459	22.38
491.811	22.64
492.163	22.79
492.515	22.89
492.866	22.81
493.218	22.61
493.57	22.64
493.922	22.55
494.274	22.5
494.625	22.51
494.977	22.69
495.328	23.03
495.68	23.25
496.031	23.46
496.383	23.54
496.734	23.74
497.086	23.59
497.437	23.76
497.788	23.84
498.139	23.72
498.49	23.71
498.842	23.58
499.193	23.56
499.544	23.74
499.894	23.92
500.245	23.8
500.596	23.82
500.947	23.88
501.298	24.02
501.648	24.06
501.999	24.19
502.35	24.37
502.7	24.32
503.051	24.26
503.401	24.26
503.752	24.47
504.102	24.67
504.452	24.52
504.803	24.63
505.153	24.69
505.503	24.58
505.853	24.74
506.203	24.64
506.553	24.73
506.903	24.58
507.253	24.66
507.603	24.73
507.953	24.82
508.303	24.99
508.652	24.73
509.002	25.12
509.352	25.08
509.701	25.02
510.051	24.86
510.4	24.79
510.75	24.83
511.099	24.88
511.449	24.91
511.798	25
512.147	24.96
512.496	25.05
512.846	24.96
513.195	25.09
513.544	25.23
513.893	25.24
514.242	25.21
514.591	25.17
514.939	25.33
515.288	25.36
515.637	25.19
515.986	25.54
516.334	25.67
516.683	25.54
517.032	25.56
517.38	25.65
517.729	25.65
518.077	25.71
518.426	25.84
518.774	25.71
519.122	25.74
519.47	25.68
519.819	25.82
520.167	25.62
520.515	25.6
520.863	25.58
521.211	25.61
521.559	25.6
521.907	25.77
522.255	25.81
522.602	25.97
522.95	25.97
523.298	26.17
523.645	26.22
523.993	26.39
524.341	26.32
524.688	26.3
525.036	26.48
525.383	26.41
525.73	26.39
526.078	26.5
526.425	26.37
526.772	26.44
527.119	26.36
527.466	26.27
527.814	26.13
528.161	26.03
528.508	26.23
528.854	26.28
529.201	26.32
529.548	26.32
529.895	26.34
530.242	26.35
530.588	26.23
530.935	25.89
531.282	25.85
531.628	25.82
531.975	25.9
532.321	26.17
532.667	26.38
533.014	26.54
533.36	26.66
533.706	27
534.052	26.84
534.399	26.79
534.745	26.81
535.091	26.8
535.437	26.72
535.783	26.54
536.129	26.57
536.474	26.61
536.82	26.91
537.166	27.1
537.512	27.27
537.857	27.44
538.203	27.34
538.549	27.38
538.894	27.35
539.239	27.14
539.585	27.29
539.93	27.48
540.276	27.61
540.621	27.73
540.966	27.88
541.311	27.9
541.656	27.92
542.001	27.95
542.346	27.82
542.691	27.71
543.036	27.59
543.381	27.4
543.726	27.35
544.071	27.27
544.415	27.33
544.76	27.41
545.105	27.64
545.449	27.69
545.794	27.83
546.138	28.06
546.483	27.98
546.827	28.12
547.171	28.2
547.516	28.39
547.86	28.43
548.204	28.43
548.548	28.43
548.892	28.33
549.236	28.33
549.58	28.61
549.924	28.6
550.268	28.92
550.612	28.6
550.956	28.91
551.3	28.93
551.643	29.3
551.987	29.29
552.33	29.22
552.674	29.24
553.017	29.26
553.361	29.47
553.704	29.46
554.048	29.33
554.391	29.37
554.734	29.32
555.077	29.41
555.42	29.35
555.764	29.63
556.107	29.67
556.45	29.54
556.793	29.55
557.135	29.7
557.478	29.4
557.821	29.86
558.164	29.96
558.507	29.95
558.849	29.91
559.192	29.91
559.534	30.2
559.877	29.96
560.219	30.21
560.562	30.16
560.904	30.3
561.246	30.19
561.589	30.45
561.931	30.24
562.273	30.37
562.615	30.31
562.957	30.31
563.299	30.22
563.641	30.39
563.983	30.43
564.325	30.41
564.667	30.51
565.008	30.49
565.35	30.75
565.692	30.67
566.033	30.72
566.375	30.78
566.716	30.77
567.058	30.73
567.399	30.77
567.741	30.83
568.082	30.81
568.423	30.8
568.764	30.69
569.105	30.73
569.447	30.78
569.788	30.95
570.129	30.87
570.47	31.06
570.811	31.21
571.151	31.09
571.492	31.21
571.833	31.42
572.174	31.37
572.514	31.07
572.855	31.33
573.195	31.27
573.536	31.26
573.876	31.22
574.217	31.01
574.557	31.12
574.898	31.14
575.238	31.15
575.578	31.36
575.918	31.4
576.258	31.45
576.598	31.51
576.938	31.62
577.278	31.54
577.618	31.58
577.958	31.74
578.298	31.65
578.638	31.75
578.977	31.68
579.317	31.78
579.657	31.97
579.996	31.76
580.336	32.06
580.675	31.89
581.014	32
581.354	32
581.693	32.06
582.032	32.55
582.372	32.24
582.711	32.49
583.05	32.55
583.389	32.62
583.728	32.73
584.067	32.71
584.406	32.6
584.745	32.56
585.083	32.45
585.422	32.66
585.761	32.66
586.1	32.8
586.438	32.76
586.777	32.86
587.115	32.85
587.454	32.93
587.792	32.93
588.13	32.97
588.469	33.26
588.807	33.21
589.145	32.93
589.483	33.3
589.821	33.24
590.159	33.06
590.497	33.28
590.835	33.03
591.173	32.98
591.511	33.25
591.849	33.05
592.187	33.1
592.524	32.82
592.862	33.2
593.2	33.27
593.537	33.1
593.875	33.45
594.212	33.44
594.55	33.58
594.887	33.74
595.224	33.57
595.561	33.35
595.899	33.64
596.236	33.68
596.573	33.51
596.91	33.78
597.247	33.7
597.584	33.74
597.921	33.9
598.258	33.83
598.594	33.74
598.931	33.73
599.268	33.69
599.604	33.71
599.941	33.64
600.277	33.72
600.614	33.96
600.95	34.14
601.287	34.17
601.623	34.39
601.959	34.12
602.296	34.23
602.632	34.48
602.968	34.73
603.304	34.38
603.64	34.79
603.976	34.61
604.312	34.28
604.648	34.46
604.984	34.79
605.319	34.53
605.655	34.28
605.991	34.43
606.326	34.46
606.662	34.31
606.998	34.15
607.333	34.29
607.668	34.43
608.004	34.3
608.339	34.47
608.674	34.65
609.01	34.6
609.345	34.72
609.68	35.14
610.015	34.8
610.35	35.3
610.685	35.06
611.02	35.09
611.355	34.92
611.689	34.95
612.024	34.9
612.359	34.93
612.694	34.85
613.028	34.85
613.363	34.99
613.697	35.2
614.032	35.25
614.366	35.17
614.7	35.12
615.035	35.54
615.369	35.49
615.703	35.5
616.037	35.57
616.371	35.76
616.705	35.74
617.039	35.51
617.373	35.58
617.707	35.69
618.041	35.72
618.375	36.01
618.709	35.84
619.042	35.84
619.376	36.16
619.71	36.04
620.043	36.02
620.377	35.7
620.71	36.05
621.043	36.32
621.377	35.76
621.71	35.89
622.043	35.64
622.376	35.94
622.709	35.88
623.043	36.22
623.376	36.13
623.709	36.14
624.041	36.15
624.374	36.45
624.707	36.55
625.04	36.51
625.373	36.57
625.705	36.07
626.038	36.63
626.37	36.43
626.703	36.39
627.035	36.55
627.368	36.93
627.7	36.67
628.032	36.89
628.365	36.98
628.697	36.57
629.029	36.88
629.361	36.67
629.693	36.74
630.025	36.61
630.357	36.66
630.689	36.88
631.021	36.64
631.353	36.55
631.684	36.83
632.016	36.86
632.348	36.8
632.679	37.15
633.011	37.16
633.342	37.16
633.674	37.09
634.005	37.33
634.336	37.16
634.668	37.17
634.999	37.43
635.33	37.42
635.661	37.82
635.992	37.59
636.323	37.34
636.654	37.23
636.985	37.54
637.316	37.47
637.647	37.49
637.977	37.59
638.308	37.68
638.639	37.5
638.969	37.6
639.3	37.47
639.63	37.7
639.961	37.68
640.291	37.7
640.622	37.92
640.952	37.41
641.282	37.89
641.612	38.03
641.943	38.02
642.273	37.95
642.603	37.66
642.933	37.75
643.263	37.85
643.592	38.09
643.922	38.29
644.252	38.32
644.582	38.06
644.911	38.15
645.241	38.42
645.571	38.06
645.9	37.9
646.23	37.95
646.559	38.28
646.888	38.58
647.218	38.3
647.547	38.18
647.876	38.37
648.205	38.92
648.534	37.86
648.863	38.81
649.192	39.17
649.521	38.33
649.85	38.32
650.179	38.46
650.508	38.34
650.837	38.97
651.165	38.53
651.494	38.68
651.822	38.58
652.151	38.86
652.479	39.38
652.808	39.21
653.136	38.66
653.465	39.14
653.793	38.83
654.121	38.71
654.449	38.54
654.777	39.01
655.105	39.11
655.433	38.62
655.761	38.4
656.089	38.74
656.417	39.13
656.745	38.74
657.073	39.13
657.4	39.22
657.728	38.76
658.056	38.76
658.383	39.33
658.711	39.52
659.038	39.46
659.365	39.21
659.693	39.42
660.02	39.41
660.347	39.8
660.674	38.93
661.001	39.51
661.329	39.48
661.656	39.49
661.982	39.26
662.309	39.09
662.636	39.58
662.963	39.46
663.29	39.5
663.616	39.54
663.943	39.89
664.27	39.2
664.596	39.88
664.923	40.39
665.249	39.64
665.576	39.52
665.902	39.99
666.228	40
666.554	40.33
666.881	40.29
667.207	39.64
667.533	39.86
667.859	40.11
668.185	39.67
668.511	40.03
668.837	40.41
669.162	40.3
669.488	39.92
669.814	40.44
670.139	40.11
670.465	40.08
670.791	39.83
671.116	40.05
671.442	40.07
671.767	39.98
672.092	40.07
672.418	40.3
672.743	39.5
673.068	40.65
673.393	39.8
673.718	40.23
674.043	40.57
674.368	40.7
674.693	40.59
675.018	40.95
675.343	40.61
675.667	40.67
675.992	40.47
676.317	40.23
676.641	40.74
676.966	40.41
677.29	40.21
677.615	40.52
677.939	41.21
678.264	41
678.588	40.94
678.912	41.45
679.236	40.93
679.56	40.91
679.885	41.17
680.209	41.03
680.532	41.15
680.856	41.32
681.18	40.76
681.504	41.04
681.828	40.97
682.152	41.29
682.475	40.75
682.799	40.84
683.122	40.82
683.446	40.75
683.769	41.4
684.093	41.15
684.416	41.19
684.739	41.47
685.062	41.05
685.386	41.15
685.709	40.76
686.032	41.33
686.355	40.99
686.678	41.37
687.001	41.52
687.324	40.76
687.646	41.2
687.969	41.5
688.292	41.98
688.614	41.48
688.937	41
689.26	42.39
689.582	41.58
689.904	40.98
690.227	42.17
690.549	41.61
690.871	41.33
691.194	42.35
691.516	42.15
691.838	42.41
692.16	41.67
692.482	41.75
692.804	41.42
693.126	41.58
693.448	41.65
693.769	41.96
694.091	42.54
694.413	41.66
694.735	42.24
695.056	42.48
695.378	42
695.699	42.56
696.021	42.27
696.342	42.63
696.663	42.81
696.984	41.22
697.306	42.23
697.627	42.74
697.948	42.65
698.269	42.24
698.59	42.55
698.911	43.01
699.232	42.6
699.553	41.45
699.873	42.83
700.194	42.23
700.515	42.35
700.835	42
701.156	42.8
701.477	42.46
701.797	41.94
702.117	41.86
702.438	41.88
702.758	42.28
703.078	42.7
703.398	41.75
703.719	42.18
704.039	42.44
704.359	42.71
704.679	41.71
704.999	42.81
705.319	43.18
705.638	42.51
705.958	42.23
706.278	43.4
706.597	42.73
706.917	42.39
707.237	43.14
707.556	42.79
707.876	43.77
708.195	43.56
708.514	43.29
708.834	42.47
709.153	43.07
709.472	43.11
709.791	43
710.11	42.67
710.429	42.93
710.748	42.69
711.067	43.3
711.386	43.02
711.705	43.21
712.023	42.69
712.342	43.52
712.661	43.34
712.979	43.1
713.298	43.43
713.616	43.81
713.935	43.37
714.253	43.17
714.572	44.02
714.89	43.4
715.208	42.69
715.526	43.31
715.844	42.72
716.162	43.4
716.48	42.88
716.798	43.36
717.116	43.52
717.434	43.79
717.752	43.96
718.069	43.35
718.387	43.52
718.705	43.68
719.022	43.72
719.34	44.03
719.657	43.72
719.975	43.05
720.292	42.98
720.609	42.82
720.927	43.98
721.244	43.02
721.561	43.5
721.878	44.76
722.195	44.42
722.512	43.44
722.829	43.69
723.146	45.05
723.463	44.29
723.779	43.61
724.096	43.58
724.413	44.68
724.729	43.6
725.046	43.23
725.362	44.29
725.679	43.11
725.995	43.41
726.311	43.3
726.628	44.98
726.944	43.8
727.26	43.78
727.576	43.22
727.892	43.96
728.208	43.91
728.524	43.72
728.84	44.96
729.156	43.67
729.472	44.4
729.787	44.03
730.103	43.68
730.419	44.84
730.734	43.65
731.05	44.43
731.365	44.3
731.681	43.04
731.996	43.79
732.311	43.83
732.626	44.44
732.942	44.31
733.257	43.9
733.572	45.21
733.887	43.31
734.202	44.38
734.517	44.95
734.832	46.07
735.146	44.3
735.461	44.05
735.776	45.08
736.091	43.68
736.405	45.83
736.72	43.34
737.034	44.28
737.349	45.06
737.663	44.23
737.977	45.22
738.292	44.21
738.606	44.87
738.92	44.46
739.234	45.73
739.548	44.68
739.862	44.95
740.176	45.36
740.49	44.66
740.804	43.51
741.117	45.96
741.431	47.39
741.745	44.64
742.058	44.79
742.372	44.61
742.685	45.76
742.999	44.75
743.312	45.49
743.626	43.96
743.939	44.97
744.252	44.39
744.565	45.8
744.878	45.2
745.191	45.14
745.505	44.98
745.817	44.97
746.13	45.18
746.443	45.42
746.756	43.69
747.069	46.96
747.381	45.14
747.694	46.46
748.007	43.75
748.319	44.24
748.632	46.47
748.944	46.27
749.256	45.5
749.569	45.78
749.881	46.4
750.193	44.22
750.505	44.78
750.817	44.63
751.129	45.56
751.441	44.59
751.753	43.57
752.065	46.16
752.377	45.1
752.689	45.61
753	44.38
753.312	44.28
753.624	47.08
753.935	46.21
754.247	45.85
754.558	45.55
754.869	45.37
755.181	44.59
755.492	45.04
755.803	45.78
756.114	45.84
756.425	44.55
756.736	44.5
757.047	45.06
757.358	46.05
757.669	46.72
757.98	45.35
758.291	46.11
758.601	45.65
758.912	45.41
759.223	44.62
759.533	46.2
759.844	47.11
760.154	45.54
760.464	45.88
760.775	45.64
761.085	44.93
761.395	43.75
761.705	46.18
762.016	46.19
762.326	46.54
762.636	46.91
762.945	46.85
763.255	45.4
763.565	45.03
763.875	45.71
764.185	45.63
764.494	45.62
764.804	46.42
765.113	45.71
765.423	46.35
765.732	46.31
766.042	46.62
766.351	45.77
766.66	45.8
766.97	44.84
767.279	45.74
767.588	47.24
767.897	47.42
768.206	45.21
768.515	45.74
768.824	45.01
769.133	46.95
769.441	47.15
769.75	46.2
770.059	45.78
770.367	45.58
770.676	45.08
770.984	46.13
771.293	46.48
771.601	44.28
771.91	48.87
772.218	47.55
772.526	46.04
772.834	44.35
773.142	48.03
773.45	46.73
773.758	46.35
774.066	45.27
774.374	44.95
774.682	45.95
774.99	44.39
775.298	47.84
775.605	46.58
775.913	46.63
776.22	46.06
776.528	47.47
776.835	47.66
777.143	45.47
777.45	45.75
777.757	44.15
778.065	47.36
778.372	46.82
778.679	45.33
778.986	44.9
779.293	45.06
779.6	46.17
779.907	48.14
780.214	45.19
780.52	45.48
780.827	45.96
781.134	45.25
781.44	46.77
781.747	46.16
782.053	48.04
782.36	47.8
782.666	46.48
782.973	47.35
783.279	47.14
783.585	46.98
783.891	45.87
784.197	51.37
784.503	45.07
784.809	47.95
785.115	47.59
785.421	48.4
785.727	46.02
786.033	42.17
786.339	48.44
786.644	43.39
786.95	44.96
787.255	46.73
787.561	50.44
787.866	49.61
788.172	47.51
788.477	47.03
788.782	44.82
789.088	45.59
789.393	46.8
789.698	47.92
790.003	49.79
790.308	50.29
790.613	49.09
790.918	48.99
791.223	47.13
791.527	44.72
791.832	47.66
792.137	45.95
792.441	46.18
792.746	46.27
793.05	48.66
793.355	46.96
793.659	45.85
793.963	46.74
794.268	45.26
794.572	49.2
794.876	47.4
795.18	47.2
795.484	49.22
795.788	47.81
796.092	50.52
796.396	49.43
796.7	47.32
797.004	45.34
797.307	46.88
797.611	49.6
797.915	47.72
798.218	49.11
798.522	46.14
798.825	45.94
799.128	45.85
799.432	46.81
799.735	46.21
800.038	50.08
800.341	43.49
800.644	49.54
800.947	46.88
801.25	45.99
801.553	48.09
801.856	49.11
802.159	51.31
802.462	47.44
802.764	49.74
803.067	47.74
803.37	45.63
803.672	48.46
803.975	51.15
804.277	46.45
804.579	48.77
804.882	50.09
805.184	44.92
805.486	46.27
805.788	46.31
806.09	46.34
806.392	46.71
806.694	44.29
806.996	52.19
807.298	50.98
807.6	48.11
807.902	45.97
808.203	48.01
808.505	48.62
808.807	45.82
809.108	45.87
809.409	48.35
809.711	48.34
810.012	45.45
810.313	47.15
810.615	48.01
810.916	43.24
811.217	49.67
811.518	41.3
811.819	47.94
812.12	47.92
812.421	46.46
812.722	46.48
813.023	46.17
813.323	48.49
813.624	51.26
813.925	42.41
814.225	46.93
814.526	51.67
814.826	51.87
815.126	45.41
815.427	49.66
815.727	51.39
816.027	47.08
816.327	49.55
816.627	51.21
816.927	47.75
817.227	42.43
817.527	44.08
817.827	46.04
818.127	44.39
818.427	45.69
818.727	45.17
819.026	45.17
819.326	51.46
819.625	49.41
819.925	47.49
820.224	51.19
820.524	47.44
820.823	45.63
821.122	48.31
821.421	48.44
821.72	49.59
822.019	49.13
822.318	46.86
822.617	48.36
822.916	49.94
823.215	47.55
823.514	47.12
823.813	48.48
824.111	49.75
824.41	48.92
824.709	48.61
825.007	48.49
825.306	49.62
825.604	49.6
825.902	48.5
826.201	47.69
826.499	48.19
826.797	47.45
827.095	46.85
827.393	47.01
827.691	47.34
827.989	46.9
828.287	47.44
828.585	47.92
828.882	47.54
829.18	47.62
829.478	47.88
829.775	50.29
830.073	47.38
830.37	49.47
830.668	47.1
830.965	48.69
831.263	47.85
831.56	47.19
831.857	45.28
832.154	47.96
832.451	47.12
832.748	46.38
833.045	44.88
833.342	45.41
833.639	48.21
833.936	44.04
834.232	50.74
834.529	47.28
834.826	55.55
835.122	45.98
835.419	44.64
835.715	50.22
836.012	50.94
836.308	46.78
836.604	50.19
836.901	49.26
837.197	46.92
837.493	49.65
837.789	49.55
838.085	46.47
838.381	48.38
838.677	48.22
838.972	49.65
839.268	50.85
839.564	43.82
839.86	49.51
840.155	44.32
840.451	39.97
840.746	50.21
841.042	53.16
841.337	48.2
841.632	45.63
841.928	46.55
842.223	48.56
842.518	56.87
842.813	42.42
843.108	50.8
843.403	45.67
843.698	50.18
843.993	48.1
844.287	53.91
844.582	50.76
844.877	44.88
845.171	47.97
845.466	52.37
845.761	51.53
846.055	58.09
846.349	41.98
846.644	64.7
846.938	44.96
847.232	47.17
847.526	43.57
847.82	52.13
848.114	57
848.408	68.74
848.702	57.63
848.996	37.35
849.29	45.39
849.584	51.53
849.877	43.61
850.171	36.92
850.465	52.97
850.758	29.49
851.052	42.27
851.345	47.01
851.638	47.79
851.932	49.29
852.225	42.12
852.518	62.59
852.811	51.52
853.104	56.22
853.397	43.96
853.69	50.11
853.983	56.35
854.276	50.35
854.569	45.92
854.861	64.26
855.154	60.46
855.447	64.89
855.739	38.96
856.032	51.56
856.324	47.43
856.616	48.94
856.909	56.31
857.201	49.27
857.493	47.57
857.785	40.13
858.077	47.95
858.369	39.36
858.661	64.22
858.953	49.68
859.245	36.49
859.537	45.2
859.829	56.23
860.12	46.52
860.412	28.62
860.703	49.06
860.995	45.91
861.286	42.1
861.578	41.25
861.869	49.62
862.16	38.8
862.452	35
862.743	41.99
863.034	56.66
863.325	45.57
863.616	29.68
863.907	40.83
864.198	47.91
864.488	31.58
864.779	41.28
865.07	51.44
865.36	21.92
865.651	42.51
865.941	66.37
866.232	38.42
866.522	49.67
866.813	67.58
867.103	37.3
867.393	50.27
867.683	32.78
867.973	46.95
868.263	66.15
868.553	39.21
868.843	51.74
869.133	61.19
869.423	55.32
869.713	25.94
870.002	39.74
870.292	38.76
870.582	52.68
870.871	22.54
871.161	54.34
871.45	45.54
871.739	45.38
872.029	34.41
872.318	37.43
872.607	50.47
872.896	36.01
873.185	56.41
873.474	33.4
873.763	48.4
874.052	50.95
874.341	35.7
874.63	52.53
874.918	42.95
875.207	49.57
875.496	47.32
875.784	25.96
876.073	23.58
876.361	34.51
876.649	40.09
876.938	53.6
877.226	62.2
877.514	43.27
877.802	47.49
878.09	66.02
878.378	49.96
878.666	23.74
878.954	34.24
879.242	31.08
879.53	43.19
879.817	40.98
880.105	44.6
880.392	51.78
880.68	31.16
880.967	47.29
881.255	36.62
881.542	46.81
881.83	54.84
882.117	35.89
882.404	65.94
882.691	65.58
882.978	42.8
883.265	51.17
883.552	50.55
883.839	58.71
884.126	48.17
884.413	49.88
884.699	49.72
884.986	49.7
885.273	50.1
885.559	50.1
885.846	50.1
