Data from 0364_chest_Reflection__2__48.txt Node

Date: Mon Dec 11 18:12:31 CST 2023
User: ToomeyLab
Spectrometer: FLMS14357
Trigger mode: 0
Integration Time (sec): 1.000000E-2
Scans to average: 100
Electric dark correction enabled: true
Nonlinearity correction enabled: false
Boxcar width: 0
XAxis mode: Wavelengths
Number of Pixels in Spectrum: 2048
>>>>>Begin Spectral Data<<<<<
189.047	818.3
189.435	818.3
189.823	818.3
190.211	-2037.09
190.599	34.42
190.987	-125.6
191.375	51.51
191.763	45.85
192.151	593.94
192.538	-56.5
192.926	180.65
193.314	58.64
193.702	48.22
194.089	-71.34
194.477	182.1
194.864	2.79
195.252	-1.22
195.639	23.13
196.027	101.4
196.414	102.48
196.801	87.99
197.189	117.56
197.576	234.03
197.963	-51.79
198.351	-32.99
198.738	22.98
199.125	-101.4
199.512	0.45
199.899	28.47
200.286	-7.5
200.673	-57.14
201.06	39.79
201.447	28.61
201.833	0.94
202.22	22.06
202.607	6.78
202.994	-30.55
203.38	-77.52
203.767	20.6
204.154	14.8
204.54	-25.62
204.927	-21.23
205.313	17.99
205.699	-25.82
206.086	18.99
206.472	48.81
206.858	6.28
207.245	17.27
207.631	-4.83
208.017	10.34
208.403	9.46
208.789	-30.06
209.175	23.31
209.561	0.35
209.947	11.47
210.333	44.1
210.719	18.53
211.105	8.97
211.491	4.13
211.876	-1.61
212.262	3.71
212.648	29.4
213.034	11.19
213.419	-21.96
213.805	-19.65
214.19	25.88
214.576	7.9
214.961	1.55
215.346	-7.89
215.732	5.82
216.117	13.11
216.502	13.08
216.888	1.07
217.273	24.48
217.658	-0.81
218.043	25.71
218.428	-7.1
218.813	19.93
219.198	-0.89
219.583	10.2
219.968	-14.18
220.353	-20.1
220.738	15.33
221.122	-4.87
221.507	20.32
221.892	-3.64
222.276	12.33
222.661	9.01
223.046	8.13
223.43	12.21
223.815	-2.47
224.199	1.72
224.583	-0.91
224.968	2.13
225.352	5.02
225.736	-0.32
226.121	4.61
226.505	-6.07
226.889	4.84
227.273	7.52
227.657	11.04
228.041	5.06
228.425	-0.65
228.809	-2.06
229.193	3.74
229.577	4.39
229.961	3.49
230.344	2.95
230.728	2.31
231.112	3.54
231.495	4.21
231.879	3.2
232.263	1.97
232.646	3.16
233.03	2.96
233.413	4.04
233.797	5.21
234.18	3.36
234.563	2.91
234.946	4.92
235.33	5.08
235.713	2.44
236.096	3.78
236.479	3.75
236.862	3.01
237.245	3.33
237.628	2.76
238.011	1.49
238.394	2.75
238.777	4.09
239.16	1.71
239.543	2.67
239.925	3.03
240.308	4.98
240.691	3.34
241.073	4.47
241.456	4.33
241.838	5.63
242.221	4.84
242.603	3.23
242.986	3.08
243.368	4.09
243.75	3.63
244.133	4.1
244.515	2.94
244.897	3.45
245.279	4.01
245.661	3.69
246.043	3.71
246.425	3.71
246.807	3.79
247.189	3.87
247.571	3.49
247.953	3.19
248.335	4.18
248.717	3.97
249.098	3.62
249.48	3.23
249.862	3.94
250.243	3.63
250.625	3.62
251.006	3.71
251.388	3.97
251.769	4.52
252.151	4.65
252.532	3.91
252.913	3.8
253.295	4.44
253.676	3.52
254.057	3.49
254.438	4.12
254.819	3.3
255.2	3.25
255.581	3.13
255.962	3.23
256.343	2.58
256.724	4.07
257.105	3.26
257.486	3.38
257.867	4.71
258.247	2.51
258.628	3.58
259.009	4.05
259.389	4.33
259.77	3.08
260.15	3.47
260.531	3.11
260.911	3.21
261.292	3.15
261.672	3.14
262.052	3.33
262.432	3.58
262.813	3.42
263.193	3.26
263.573	3.25
263.953	3.44
264.333	3
264.713	3.49
265.093	3.78
265.473	3.63
265.853	3.71
266.233	2.15
266.612	4.32
266.992	3.82
267.372	4.14
267.752	3.73
268.131	3.47
268.511	3.14
268.89	3.9
269.27	3.77
269.649	3.21
270.029	3.99
270.408	3.04
270.787	3.24
271.167	2.85
271.546	2.74
271.925	3.71
272.304	3.52
272.683	3.55
273.062	3.06
273.441	3.45
273.82	2.94
274.199	3.17
274.578	3.6
274.957	3.36
275.336	3.14
275.715	3.16
276.093	3.79
276.472	3.52
276.851	3.41
277.229	3.92
277.608	3.04
277.986	3.52
278.365	3.02
278.743	3.66
279.122	3.37
279.5	3.54
279.878	3.61
280.257	3.03
280.635	2.88
281.013	2.87
281.391	3.5
281.769	3.01
282.147	2.93
282.525	2.92
282.903	3.76
283.281	3.61
283.659	2.93
284.037	2.97
284.415	2.73
284.792	3.51
285.17	3.04
285.548	3.21
285.925	2.58
286.303	3.29
286.68	3.27
287.058	3.2
287.435	3.65
287.813	3.42
288.19	3.33
288.567	3.09
288.945	3.77
289.322	2.93
289.699	3.33
290.076	3.2
290.453	3.45
290.83	3.68
291.207	3.4
291.584	3.61
291.961	3.47
292.338	3.64
292.715	3.29
293.092	3.45
293.469	3.3
293.845	3.1
294.222	4.03
294.599	3.48
294.975	2.65
295.352	3.28
295.728	3.6
296.105	3.23
296.481	3.59
296.858	3.3
297.234	3.94
297.61	4.01
297.986	3.89
298.363	3.78
298.739	3.69
299.115	3.58
299.491	3.66
299.867	3.69
300.243	3.49
300.619	3.55
300.995	3.47
301.371	3.55
301.746	3.59
302.122	3.8
302.498	3.97
302.874	4.21
303.249	3.68
303.625	3.75
304	3.8
304.376	3.8
304.751	3.57
305.127	3.98
305.502	4.21
305.878	3.26
306.253	4.36
306.628	3.82
307.003	4.23
307.378	3.57
307.754	4.41
308.129	4.17
308.504	4.25
308.879	3.98
309.254	4.51
309.629	4.5
310.003	4.05
310.378	3.94
310.753	3.73
311.128	4.12
311.502	4.23
311.877	3.9
312.252	4.38
312.626	4.27
313.001	4
313.375	3.51
313.75	3.86
314.124	4.01
314.498	4.17
314.873	4.04
315.247	3.61
315.621	4.48
315.995	4.86
316.369	4.26
316.743	4.57
317.117	4.27
317.491	4.3
317.865	4.25
318.239	4.24
318.613	4.2
318.987	3.87
319.361	4.18
319.734	3.46
320.108	4.06
320.482	4.44
320.855	4.15
321.229	3.8
321.602	4.48
321.976	4.91
322.349	3.96
322.723	4.4
323.096	4.44
323.469	4.66
323.843	4.97
324.216	4.25
324.589	4.9
324.962	4.14
325.335	4.53
325.708	4.67
326.081	4.86
326.454	4.21
326.827	4.56
327.2	3.76
327.573	4.08
327.945	4.78
328.318	4.22
328.691	4.04
329.063	4.38
329.436	4.89
329.809	4.26
330.181	4.02
330.553	4.77
330.926	4.51
331.298	4.86
331.671	4.12
332.043	4.55
332.415	4.38
332.787	4.77
333.159	4.46
333.532	4.23
333.904	4.42
334.276	4.67
334.648	4.43
335.02	4.18
335.391	4.21
335.763	4.94
336.135	4.33
336.507	4.92
336.879	4.89
337.25	4.21
337.622	4.75
337.993	4.5
338.365	4.43
338.736	4.74
339.108	4.7
339.479	4.24
339.851	4.91
340.222	5.01
340.593	4.38
340.964	4.82
341.336	4.7
341.707	4.48
342.078	4.35
342.449	4.43
342.82	4.12
343.191	4.4
343.562	4.24
343.933	4.62
344.303	4.17
344.674	5.02
345.045	4.68
345.416	4.46
345.786	5.24
346.157	4.33
346.527	4.78
346.898	4.55
347.268	4.8
347.639	4.97
348.009	4.82
348.38	4.4
348.75	4.78
349.12	4.94
349.49	4.42
349.861	4.55
350.231	4.67
350.601	5
350.971	4.77
351.341	4.21
351.711	4.65
352.081	4.55
352.45	4.99
352.82	4.38
353.19	4.72
353.56	4.53
353.929	4.27
354.299	4.68
354.669	4.63
355.038	4.79
355.408	4.34
355.777	4.73
356.147	4.82
356.516	4.44
356.885	4.61
357.254	4.89
357.624	4.52
357.993	4.59
358.362	4.76
358.731	4.37
359.1	4.8
359.469	4.4
359.838	4.63
360.207	4.67
360.576	4.59
360.945	5.23
361.314	4.85
361.682	4.9
362.051	4.73
362.42	4.59
362.788	4.52
363.157	4.81
363.525	4.59
363.894	4.81
364.262	4.68
364.631	4.69
364.999	4.66
365.367	4.73
365.735	4.78
366.104	4.31
366.472	4.77
366.84	4.52
367.208	4.3
367.576	4.99
367.944	4.9
368.312	4.77
368.68	4.74
369.048	4.68
369.416	4.56
369.783	4.67
370.151	4.8
370.519	5.38
370.886	4.75
371.254	4.82
371.621	5.01
371.989	4.8
372.356	5.23
372.724	5.1
373.091	4.81
373.458	4.75
373.826	4.99
374.193	4.81
374.56	5.15
374.927	4.93
375.294	5.08
375.661	4.8
376.028	4.94
376.395	4.94
376.762	4.88
377.129	4.93
377.496	5.16
377.863	4.89
378.229	5.06
378.596	5
378.963	4.9
379.329	5.1
379.696	5.13
380.062	4.67
380.429	4.51
380.795	5.04
381.161	4.81
381.528	4.99
381.894	4.91
382.26	4.86
382.626	4.99
382.993	5.04
383.359	4.88
383.725	4.77
384.091	5.12
384.457	4.84
384.823	4.94
385.188	4.79
385.554	4.71
385.92	4.9
386.286	5.3
386.651	4.97
387.017	5
387.383	4.87
387.748	4.81
388.114	5.04
388.479	5
388.845	4.84
389.21	4.91
389.575	4.93
389.94	4.92
390.306	5.04
390.671	5.04
391.036	5.08
391.401	5.16
391.766	4.96
392.131	5.04
392.496	5.36
392.861	5.09
393.226	5
393.591	5
393.956	4.81
394.32	5.1
394.685	4.97
395.05	5.09
395.414	5.35
395.779	5.03
396.143	4.98
396.508	4.99
396.872	5.09
397.236	5.11
397.601	4.98
397.965	5.01
398.329	5.34
398.694	5.11
399.058	4.95
399.422	5.17
399.786	4.88
400.15	4.76
400.514	5.42
400.878	5.18
401.242	5.15
401.605	5.47
401.969	5.07
402.333	4.73
402.697	4.91
403.06	5
403.424	5.07
403.787	5.38
404.151	5.1
404.514	4.92
404.878	5.21
405.241	5.11
405.604	5.23
405.968	5.17
406.331	4.91
406.694	5.16
407.057	4.92
407.42	5.2
407.783	5.11
408.146	5.46
408.509	5.02
408.872	4.97
409.235	5.16
409.598	5.09
409.961	5.28
410.323	5.36
410.686	5.33
411.049	5.16
411.411	5.24
411.774	5.21
412.136	5.17
412.499	5.37
412.861	4.91
413.223	5.31
413.586	5.39
413.948	5.24
414.31	5.04
414.672	4.97
415.035	5.46
415.397	5.11
415.759	5.27
416.121	5.32
416.483	5.18
416.845	5.39
417.206	5.14
417.568	5.23
417.93	5.44
418.292	5.22
418.653	5.1
419.015	5.08
419.377	5.16
419.738	5.13
420.1	5.15
420.461	5.2
420.822	5.15
421.184	5.27
421.545	5.22
421.906	5.06
422.267	5.22
422.629	4.97
422.99	5.14
423.351	5.05
423.712	5.14
424.073	5.03
424.434	5.02
424.795	5.32
425.155	5.07
425.516	5.06
425.877	5
426.238	5.19
426.598	5.14
426.959	5.11
427.32	5.21
427.68	5.31
428.041	5.05
428.401	5.21
428.761	5.32
429.122	5.34
429.482	5.3
429.842	5.35
430.202	5.27
430.563	5.13
430.923	5.32
431.283	5.38
431.643	5.45
432.003	5.37
432.363	5.42
432.722	5.44
433.082	5.5
433.442	5.39
433.802	5.28
434.161	5.49
434.521	5.29
434.881	5.34
435.24	5.29
435.6	5.32
435.959	5.27
436.319	5.28
436.678	5.36
437.037	5.47
437.396	5.53
437.756	5.42
438.115	5.65
438.474	5.42
438.833	5.46
439.192	5.2
439.551	5.53
439.91	5.49
440.269	5.44
440.628	5.21
440.987	5.46
441.345	5.45
441.704	5.4
442.063	5.31
442.421	5.45
442.78	5.27
443.138	5.33
443.497	5.36
443.855	5.35
444.214	5.6
444.572	5.44
444.93	5.59
445.288	5.43
445.647	5.47
446.005	5.37
446.363	5.42
446.721	5.44
447.079	5.3
447.437	5.44
447.795	5.23
448.153	5.46
448.51	5.37
448.868	5.23
449.226	5.32
449.584	5.54
449.941	5.53
450.299	5.43
450.656	5.4
451.014	5.5
451.371	5.41
451.729	5.59
452.086	5.64
452.443	5.57
452.801	5.48
453.158	5.69
453.515	5.55
453.872	5.58
454.229	5.62
454.586	5.52
454.943	5.51
455.3	5.61
455.657	5.84
456.014	5.65
456.371	5.67
456.727	5.71
457.084	5.53
457.441	5.77
457.797	5.62
458.154	5.73
458.51	5.64
458.867	5.44
459.223	5.51
459.58	5.64
459.936	5.6
460.292	5.88
460.648	5.7
461.005	5.64
461.361	5.54
461.717	5.54
462.073	5.58
462.429	5.6
462.785	5.47
463.141	5.63
463.496	5.77
463.852	5.62
464.208	5.74
464.564	5.73
464.919	5.7
465.275	5.56
465.631	5.56
465.986	5.85
466.342	5.82
466.697	5.58
467.052	5.66
467.408	5.97
467.763	5.74
468.118	5.77
468.473	5.62
468.829	5.86
469.184	5.91
469.539	5.75
469.894	5.74
470.249	5.79
470.603	5.85
470.958	5.89
471.313	5.85
471.668	5.89
472.023	5.91
472.377	5.62
472.732	5.76
473.086	6.04
473.441	5.86
473.795	5.88
474.15	5.92
474.504	5.78
474.859	5.91
475.213	5.75
475.567	5.81
475.921	5.91
476.275	5.87
476.63	5.8
476.984	5.99
477.338	5.79
477.692	5.87
478.045	5.86
478.399	5.79
478.753	5.74
479.107	5.93
479.461	5.99
479.814	5.78
480.168	5.92
480.521	5.96
480.875	5.89
481.228	6
481.582	6.09
481.935	5.96
482.289	6.06
482.642	5.96
482.995	5.94
483.348	5.85
483.701	5.72
484.055	5.9
484.408	5.89
484.761	5.73
485.114	5.71
485.466	5.59
485.819	5.53
486.172	5.56
486.525	5.61
486.878	5.7
487.23	5.8
487.583	5.83
487.936	5.85
488.288	5.84
488.641	5.74
488.993	5.73
489.345	5.75
489.698	5.68
490.05	5.76
490.402	5.77
490.754	5.85
491.107	5.91
491.459	5.94
491.811	5.96
492.163	5.93
492.515	6.05
492.866	5.93
493.218	5.76
493.57	5.71
493.922	5.86
494.274	5.9
494.625	6
494.977	6.05
495.328	6.07
495.68	6.17
496.031	6.12
496.383	6
496.734	6.14
497.086	6.15
497.437	6.28
497.788	6.18
498.139	6.1
498.49	6.21
498.842	6.13
499.193	6.2
499.544	6.15
499.894	6.28
500.245	6.17
500.596	6.34
500.947	6.2
501.298	6.44
501.648	6.23
501.999	6.15
502.35	6.32
502.7	6.38
503.051	6.27
503.401	6.35
503.752	6.38
504.102	6.38
504.452	6.32
504.803	6.45
505.153	6.44
505.503	6.49
505.853	6.47
506.203	6.38
506.553	6.52
506.903	6.35
507.253	6.46
507.603	6.45
507.953	6.5
508.303	6.45
508.652	6.41
509.002	6.47
509.352	6.55
509.701	6.44
510.051	6.47
510.4	6.54
510.75	6.42
511.099	6.45
511.449	6.42
511.798	6.55
512.147	6.57
512.496	6.36
512.846	6.48
513.195	6.64
513.544	6.52
513.893	6.57
514.242	6.61
514.591	6.54
514.939	6.45
515.288	6.65
515.637	6.6
515.986	6.58
516.334	6.69
516.683	6.73
517.032	6.76
517.38	6.65
517.729	6.6
518.077	6.85
518.426	6.73
518.774	6.87
519.122	6.7
519.47	6.7
519.819	6.57
520.167	6.68
520.515	6.62
520.863	6.52
521.211	6.65
521.559	6.76
521.907	6.78
522.255	6.65
522.602	6.78
522.95	6.78
523.298	6.83
523.645	7.15
523.993	6.8
524.341	6.97
524.688	6.94
525.036	6.93
525.383	6.97
525.73	6.94
526.078	6.96
526.425	6.89
526.772	6.91
527.119	6.98
527.466	6.78
527.814	6.8
528.161	6.84
528.508	6.87
528.854	6.81
529.201	6.75
529.548	6.82
529.895	6.77
530.242	6.62
530.588	6.64
530.935	6.68
531.282	6.78
531.628	6.77
531.975	6.9
532.321	6.89
532.667	6.95
533.014	6.9
533.36	7.07
533.706	7.14
534.052	7.07
534.399	7.12
534.745	7.02
535.091	6.94
535.437	6.95
535.783	7.01
536.129	7.13
536.474	7.17
536.82	7.19
537.166	7.17
537.512	7.12
537.857	7.28
538.203	7.23
538.549	7.26
538.894	7.27
539.239	7.31
539.585	7.37
539.93	7.34
540.276	7.39
540.621	7.54
540.966	7.44
541.311	7.51
541.656	7.46
542.001	7.53
542.346	7.5
542.691	7.44
543.036	7.38
543.381	7.18
543.726	7.21
544.071	7.35
544.415	7.4
544.76	7.46
545.105	7.53
545.449	7.45
545.794	7.53
546.138	7.55
546.483	7.6
546.827	7.72
547.171	7.76
547.516	7.76
547.86	7.76
548.204	7.81
548.548	7.69
548.892	7.69
549.236	7.77
549.58	7.97
549.924	7.93
550.268	7.84
550.612	7.82
550.956	7.94
551.3	7.96
551.643	8.06
551.987	8.18
552.33	8.28
552.674	8.11
553.017	8.25
553.361	8.15
553.704	8.07
554.048	8.26
554.391	8.2
554.734	8.24
555.077	8.22
555.42	8.33
555.764	8.39
556.107	8.3
556.45	8.44
556.793	8.23
557.135	8.41
557.478	8.56
557.821	8.43
558.164	8.63
558.507	8.13
558.849	8.66
559.192	8.61
559.534	8.46
559.877	8.72
560.219	8.56
560.562	8.75
560.904	8.67
561.246	8.84
561.589	8.76
561.931	8.56
562.273	8.66
562.615	8.71
562.957	8.91
563.299	8.66
563.641	8.65
563.983	8.96
564.325	8.86
564.667	8.88
565.008	8.92
565.35	9.18
565.692	8.92
566.033	8.91
566.375	8.95
566.716	8.99
567.058	8.9
567.399	9.16
567.741	8.91
568.082	8.96
568.423	9.13
568.764	8.96
569.105	9.17
569.447	9.21
569.788	9.08
570.129	9.21
570.47	9.14
570.811	9.02
571.151	9.21
571.492	9.18
571.833	9.16
572.174	9.46
572.514	9.28
572.855	9.43
573.195	9.4
573.536	9.28
573.876	9.25
574.217	9.48
574.557	9.42
574.898	9.51
575.238	9.54
575.578	9.58
575.918	9.61
576.258	9.65
576.598	9.58
576.938	9.55
577.278	9.54
577.618	9.7
577.958	9.78
578.298	9.78
578.638	9.87
578.977	9.9
579.317	9.87
579.657	9.7
579.996	9.68
580.336	9.71
580.675	10.08
581.014	10.09
581.354	9.54
581.693	10.39
582.032	9.95
582.372	10
582.711	9.83
583.05	10.19
583.389	10.15
583.728	10.26
584.067	10.06
584.406	10.42
584.745	10.45
585.083	10.42
585.422	10.43
585.761	10.67
586.1	10.03
586.438	10.47
586.777	10.38
587.115	10.31
587.454	10.49
587.792	10.65
588.13	10.77
588.469	10.73
588.807	10.56
589.145	10.82
589.483	10.71
589.821	10.53
590.159	10.84
590.497	10.65
590.835	10.89
591.173	10.64
591.511	11.02
591.849	10.97
592.187	10.99
592.524	11.11
592.862	10.97
593.2	11.01
593.537	10.93
593.875	11.14
594.212	11.17
594.55	11.04
594.887	11.2
595.224	11.12
595.561	11.12
595.899	11.25
596.236	11.41
596.573	11.13
596.91	11.07
597.247	11.25
597.584	11.63
597.921	11.17
598.258	11.39
598.594	11.39
598.931	11.2
599.268	11.38
599.604	11.4
599.941	11.65
600.277	11.6
600.614	11.85
600.95	11.49
601.287	11.58
601.623	11.99
601.959	11.91
602.296	11.73
602.632	11.88
602.968	11.73
603.304	11.95
603.64	12
603.976	12.38
604.312	11.81
604.648	12
604.984	12
605.319	11.95
605.655	12.09
605.991	11.89
606.326	12.05
606.662	12.12
606.998	12.02
607.333	12.14
607.668	12.36
608.004	12.15
608.339	12.51
608.674	12.49
609.01	12.36
609.345	12.4
609.68	12.46
610.015	12.55
610.35	12.49
610.685	12.47
611.02	12.32
611.355	12.82
611.689	12.68
612.024	12.37
612.359	12.63
612.694	12.6
613.028	12.69
613.363	12.76
613.697	12.68
614.032	12.92
614.366	12.95
614.7	12.8
615.035	13.22
615.369	12.98
615.703	13.17
616.037	12.93
616.371	13.34
616.705	13.1
617.039	13.43
617.373	13.12
617.707	13.31
618.041	13.7
618.375	13.85
618.709	13.45
619.042	13.29
619.376	13.68
619.71	13.31
620.043	13.19
620.377	13.68
620.71	13.61
621.043	13.5
621.377	13.22
621.71	13.99
622.043	13.59
622.376	13.64
622.709	13.81
623.043	13.71
623.376	13.91
623.709	14.19
624.041	13.74
624.374	13.77
624.707	13.57
625.04	14.57
625.373	13.82
625.705	14.3
626.038	14.03
626.37	14.02
626.703	14.15
627.035	14.62
627.368	14.45
627.7	14.33
628.032	14.28
628.365	14.42
628.697	14.15
629.029	14.24
629.361	14.44
629.693	14.51
630.025	14.1
630.357	14.21
630.689	14.2
631.021	14.29
631.353	14.67
631.684	14.64
632.016	14.95
632.348	15.02
632.679	14.88
633.011	14.87
633.342	14.89
633.674	15.24
634.005	15.13
634.336	14.95
634.668	15.14
634.999	15.12
635.33	14.56
635.661	15.06
635.992	14.84
636.323	15.04
636.654	14.88
636.985	15.14
637.316	15.25
637.647	15.46
637.977	15.43
638.308	15.66
638.639	15.04
638.969	15.04
639.3	15.6
639.63	15.25
639.961	15.79
640.291	16.08
640.622	15.63
640.952	16.11
641.282	15.69
641.612	16.26
641.943	15.3
642.273	15.99
642.603	15.96
642.933	16.11
643.263	16.46
643.592	16.25
643.922	16.06
644.252	15.71
644.582	16.05
644.911	16.22
645.241	16.2
645.571	16.59
645.9	16.01
646.23	16.22
646.559	16.17
646.888	16.16
647.218	17.13
647.547	16.37
647.876	16.46
648.205	16.57
648.534	17.01
648.863	16.83
649.192	16.41
649.521	16.97
649.85	16.6
650.179	16.65
650.508	16.87
650.837	16.3
651.165	17.02
651.494	17.07
651.822	16.78
652.151	16.9
652.479	17.17
652.808	17.13
653.136	16.39
653.465	17.07
653.793	17.59
654.121	17.25
654.449	17.48
654.777	17.33
655.105	17.21
655.433	17.2
655.761	17
656.089	17.44
656.417	17.52
656.745	17.58
657.073	17.92
657.4	17.44
657.728	17.94
658.056	17.48
658.383	17.58
658.711	18.01
659.038	17.8
659.365	17.72
659.693	18.1
660.02	17.34
660.347	17.8
660.674	18.03
661.001	17.63
661.329	17.55
661.656	18.1
661.982	17.93
662.309	18.41
662.636	17.86
662.963	18.73
663.29	18.28
663.616	17.81
663.943	17.66
664.27	18.22
664.596	18.65
664.923	18.2
665.249	19.09
665.576	18.19
665.902	19.09
666.228	18.65
666.554	18.9
666.881	17.88
667.207	19.03
667.533	18.51
667.859	19.09
668.185	18.52
668.511	19.06
668.837	19.29
669.162	19.07
669.488	19.07
669.814	18.88
670.139	19.02
670.465	19.76
670.791	19.41
671.116	19.5
671.442	19.51
671.767	19.06
672.092	19.14
672.418	19.33
672.743	18.94
673.068	19.36
673.393	19.08
673.718	19.06
674.043	19.55
674.368	19.36
674.693	19.85
675.018	19.53
675.343	19.83
675.667	19.45
675.992	20.16
676.317	19.22
676.641	20
676.966	20.1
677.29	19.4
677.615	20.52
677.939	19.99
678.264	20.26
678.588	20.21
678.912	19.62
679.236	19.85
679.56	20
679.885	19.87
680.209	20.33
680.532	19.85
680.856	20.62
681.18	20.36
681.504	20.11
681.828	20.3
682.152	19.98
682.475	20.37
682.799	21.28
683.122	20.3
683.446	20.03
683.769	20.24
684.093	20.62
684.416	20.34
684.739	20.63
685.062	20.87
685.386	20.85
685.709	20.54
686.032	20.57
686.355	21.24
686.678	20.3
687.001	21.32
687.324	20.07
687.646	20.67
687.969	21.11
688.292	21.58
688.614	21.37
688.937	21.1
689.26	21.35
689.582	20.92
689.904	21.37
690.227	21.41
690.549	20.49
690.871	20.47
691.194	20.93
691.516	21.32
691.838	21.37
692.16	22.04
692.482	22.29
692.804	21.29
693.126	21.77
693.448	21.34
693.769	21.31
694.091	22.06
694.413	21.51
694.735	20.72
695.056	22.56
695.378	22.62
695.699	21.39
696.021	22.57
696.342	22.68
696.663	22.65
696.984	22.87
697.306	22.69
697.627	21.99
697.948	22.51
698.269	22.85
698.59	23.06
698.911	22.29
699.232	22.17
699.553	22.47
699.873	21.9
700.194	22.2
700.515	22.63
700.835	22.58
701.156	22.58
701.477	22.45
701.797	22.58
702.117	23.04
702.438	22.82
702.758	23.29
703.078	23.21
703.398	22.86
703.719	23.84
704.039	23.46
704.359	23.01
704.679	24.05
704.999	23.17
705.319	22.19
705.638	22.86
705.958	23.14
706.278	23.71
706.597	23.29
706.917	24.19
707.237	24.03
707.556	23.55
707.876	22.61
708.195	23.21
708.514	23.86
708.834	23.73
709.153	24.3
709.472	23.22
709.791	23.54
710.11	24.07
710.429	23.27
710.748	23.05
711.067	23.61
711.386	23.64
711.705	22.89
712.023	24.19
712.342	25.47
712.661	23.61
712.979	24.57
713.298	23.45
713.616	24.6
713.935	23.53
714.253	24.05
714.572	23.94
714.89	23.45
715.208	24.7
715.526	24.46
715.844	25.13
716.162	24.89
716.48	25.27
716.798	24.55
717.116	25.25
717.434	25.12
717.752	24.36
718.069	24.78
718.387	25.06
718.705	23.93
719.022	24.64
719.34	25.83
719.657	24.5
719.975	25.72
720.292	26.36
720.609	24.32
720.927	26.48
721.244	26.54
721.561	25.21
721.878	25.8
722.195	25.39
722.512	23.95
722.829	25.72
723.146	25.37
723.463	26.29
723.779	26.01
724.096	25.2
724.413	23.92
724.729	25.9
725.046	24.68
725.362	27.21
725.679	25.69
725.995	25.85
726.311	24.14
726.628	26.65
726.944	26.33
727.26	24.62
727.576	25.27
727.892	26.94
728.208	25.14
728.524	26.15
728.84	26.97
729.156	27.07
729.472	26.34
729.787	27.19
730.103	26.27
730.419	27.36
730.734	26.74
731.05	27.9
731.365	27.6
731.681	26.25
731.996	25.18
732.311	27.15
732.626	27.79
732.942	25.29
733.257	25.4
733.572	26.2
733.887	26.52
734.202	26.64
734.517	27.09
734.832	26.8
735.146	25.67
735.461	27.16
735.776	25.78
736.091	27.53
736.405	26.45
736.72	27.3
737.034	27.59
737.349	25.6
737.663	26.7
737.977	26.34
738.292	28.84
738.606	26.92
738.92	26.05
739.234	27.09
739.548	27.23
739.862	29.3
740.176	27.22
740.49	27.56
740.804	27.67
741.117	27.77
741.431	27.45
741.745	25.83
742.058	28.4
742.372	27.26
742.685	28.64
742.999	29.58
743.312	28.04
743.626	26.26
743.939	29.17
744.252	28.09
744.565	29.3
744.878	26.96
745.191	24.08
745.505	26.55
745.817	27.52
746.13	28.06
746.443	28.38
746.756	28.76
747.069	27.67
747.381	26.15
747.694	28.4
748.007	27.87
748.319	28.73
748.632	27.07
748.944	28.22
749.256	30.87
749.569	29.14
749.881	28.59
750.193	29.34
750.505	29.02
750.817	28.23
751.129	30.32
751.441	28.85
751.753	29.66
752.065	27.45
752.377	30.93
752.689	29.46
753	31.49
753.312	29.82
753.624	29.68
753.935	27.9
754.247	28.26
754.558	28.91
754.869	29.61
755.181	29.17
755.492	27.97
755.803	31.28
756.114	31.02
756.425	31.58
756.736	31.55
757.047	29.38
757.358	29.47
757.669	30.27
757.98	30.02
758.291	29.04
758.601	31.06
758.912	29.76
759.223	28.89
759.533	29.61
759.844	31.25
760.154	28.99
760.464	30.25
760.775	30.45
761.085	29.16
761.395	31.45
761.705	30.77
762.016	29.65
762.326	31.42
762.636	31.28
762.945	30.54
763.255	28.21
763.565	31.13
763.875	30.94
764.185	30.83
764.494	31.76
764.804	30.23
765.113	30.17
765.423	28.08
765.732	32.33
766.042	30.28
766.351	32.22
766.66	30.71
766.97	30.83
767.279	32.23
767.588	32.77
767.897	30.71
768.206	30.41
768.515	31.48
768.824	29.43
769.133	31.77
769.441	31.01
769.75	31.59
770.059	32
770.367	31.08
770.676	31.37
770.984	28.37
771.293	31.8
771.601	30.9
771.91	31.72
772.218	30.64
772.526	33.18
772.834	34.12
773.142	32.25
773.45	33.61
773.758	33.04
774.066	31.81
774.374	30.32
774.682	32.3
774.99	29.67
775.298	30.51
775.605	31.26
775.913	32.3
776.22	30.04
776.528	33.56
776.835	30.55
777.143	30.4
777.45	28.66
777.757	33.22
778.065	32.76
778.372	35.61
778.679	32.14
778.986	30.49
779.293	33.56
779.6	32.16
779.907	31.84
780.214	32.65
780.52	30.66
780.827	33.19
781.134	31.85
781.44	31.68
781.747	31.35
782.053	27.86
782.36	32.95
782.666	34.93
782.973	34.98
783.279	33.61
783.585	35.85
783.891	36.92
784.197	31.56
784.503	33.4
784.809	35.43
785.115	32.49
785.421	31.85
785.727	35.64
786.033	34.04
786.339	32.48
786.644	33.77
786.95	36.77
787.255	34.89
787.561	38.23
787.866	33.34
788.172	32.78
788.477	35.94
788.782	31.67
789.088	37.14
789.393	33.29
789.698	34.02
790.003	30.69
790.308	31.44
790.613	34.54
790.918	32.72
791.223	36.8
791.527	34.48
791.832	34.42
792.137	32.22
792.441	38.72
792.746	31.25
793.05	33.12
793.355	36.52
793.659	31.92
793.963	36.16
794.268	34.72
794.572	36.44
794.876	33.19
795.18	37.17
795.484	34.42
795.788	36.17
796.092	33.49
796.396	33.41
796.7	33.06
797.004	36.38
797.307	33.78
797.611	35.98
797.915	37.44
798.218	38
798.522	39
798.825	34.43
799.128	35.7
799.432	35.83
799.735	37.38
800.038	33.9
800.341	34.44
800.644	34.68
800.947	31.66
801.25	35.12
801.553	34.13
801.856	36.44
802.159	36.89
802.462	37.94
802.764	38.26
803.067	35.15
803.37	32.92
803.672	41.02
803.975	35.09
804.277	32.06
804.579	31.8
804.882	38.83
805.184	35.13
805.486	38.96
805.788	33.01
806.09	37.31
806.392	32.42
806.694	40.12
806.996	39.06
807.298	38.73
807.6	35.83
807.902	31.92
808.203	37.15
808.505	31.92
808.807	34.15
809.108	32.75
809.409	37.11
809.711	30.26
810.012	32.38
810.313	35.72
810.615	36.72
810.916	36.23
811.217	39.72
811.518	31.43
811.819	35.48
812.12	31.07
812.421	37.36
812.722	34.35
813.023	36.45
813.323	35.75
813.624	33.59
813.925	33.01
814.225	38.7
814.526	37.34
814.826	42.07
815.126	34.8
815.427	40.42
815.727	33
816.027	36.75
816.327	37.64
816.627	36.16
816.927	39.64
817.227	43.37
817.527	31.01
817.827	32.17
818.127	31.56
818.427	33.11
818.727	38.26
819.026	37.44
819.326	38.89
819.625	34.93
819.925	30.02
820.224	41.27
820.524	31.61
820.823	39.04
821.122	38.4
821.421	38.47
821.72	35.2
822.019	37.16
822.318	40.29
822.617	40.05
822.916	39.54
823.215	35.47
823.514	39.12
823.813	36.32
824.111	41.5
824.41	39.06
824.709	39.66
825.007	38.63
825.306	38.26
825.604	38.47
825.902	37.38
826.201	39.15
826.499	38.49
826.797	38.63
827.095	38.56
827.393	41.31
827.691	39.4
827.989	38.04
828.287	39.17
828.585	38.44
828.882	39.88
829.18	39.57
829.478	38.42
829.775	41.18
830.073	41.51
830.37	39.66
830.668	37.58
830.965	39.42
831.263	40.24
831.56	42.71
831.857	40.45
832.154	36.84
832.451	38.55
832.748	35.82
833.045	35.59
833.342	40.28
833.639	42.93
833.936	38.94
834.232	36.57
834.529	46.51
834.826	40.34
835.122	36.57
835.419	42.25
835.715	35.67
836.012	40.25
836.308	38.01
836.604	40.16
836.901	38.51
837.197	41.1
837.493	41.49
837.789	41.32
838.085	41.69
838.381	39.52
838.677	39.58
838.972	40.83
839.268	34.06
839.564	40.45
839.86	42.77
840.155	42.62
840.451	44.66
840.746	39.52
841.042	43.83
841.337	25.34
841.632	44.97
841.928	33.38
842.223	38.55
842.518	40
842.813	39.14
843.108	43.31
843.403	38.13
843.698	39.63
843.993	36.83
844.287	33.53
844.582	51.67
844.877	29.62
845.171	29.68
845.466	45.99
845.761	40.48
846.055	27.33
846.349	36.78
846.644	36.54
846.938	48.79
847.232	35.15
847.526	45.35
847.82	35.5
848.114	26.57
848.408	38.7
848.702	28.71
848.996	26.5
849.29	52.61
849.584	37.94
849.877	35.48
850.171	33.75
850.465	56.88
850.758	43.11
851.052	33.03
851.345	40.53
851.638	24.35
851.932	39.03
852.225	27.81
852.518	23.31
852.811	29.36
853.104	45.89
853.397	39.89
853.69	31.52
853.983	35.82
854.276	35.13
854.569	25.08
854.861	57.88
855.154	41.4
855.447	24.22
855.739	29.82
856.032	50.37
856.324	52.73
856.616	50.04
856.909	49.14
857.201	36.97
857.493	44.14
857.785	22.98
858.077	15.86
858.369	44.85
858.661	55.79
858.953	31.67
859.245	21.06
859.537	48.62
859.829	34.27
860.12	37.79
860.412	18.3
860.703	24.47
860.995	28.15
861.286	39.62
861.578	63.18
861.869	34.22
862.16	24.54
862.452	45.07
862.743	76.64
863.034	43.86
863.325	10.43
863.616	29.3
863.907	39.71
864.198	53.4
864.488	48.07
864.779	40.8
865.07	26.51
865.36	39.89
865.651	72.53
865.941	68.23
866.232	39.48
866.522	34.36
866.813	65.55
867.103	36.91
867.393	34.5
867.683	58.51
867.973	44.16
868.263	20.89
868.553	27.1
868.843	34.97
869.133	49.33
869.423	20.41
869.713	33.33
870.002	16.56
870.292	54.5
870.582	56.22
870.871	35.81
871.161	36.73
871.45	11.55
871.739	24.47
872.029	8.53
872.318	26.56
872.607	16.21
872.896	45.81
873.185	13.76
873.474	17.08
873.763	59.5
874.052	38.27
874.341	37.12
874.63	21.72
874.918	54.97
875.207	42.59
875.496	37.64
875.784	-17.88
876.073	38.45
876.361	42.18
876.649	69.34
876.938	38.52
877.226	42.13
877.514	23.15
877.802	66.18
878.09	55.91
878.378	38.71
878.666	44.44
878.954	35.02
879.242	66.62
879.53	67.75
879.817	9.16
880.105	39.66
880.392	52.48
880.68	11.27
880.967	42.93
881.255	52.49
881.542	34.31
881.83	58.13
882.117	64.96
882.404	42.79
882.691	24.72
882.978	50.47
883.265	-1.76
883.552	38.1
883.839	41.18
884.126	39.48
884.413	51.83
884.699	40.17
884.986	43.87
885.273	41.34
885.559	41.34
885.846	41.34
