Data from 0005_chest_Reflection__1__363.txt Node

Date: Thu Dec 15 19:27:43 CST 2022
User: ToomeyLab
Spectrometer: FLMS14357
Trigger mode: 0
Integration Time (sec): 1.000000E-2
Scans to average: 100
Electric dark correction enabled: true
Nonlinearity correction enabled: false
Boxcar width: 0
XAxis mode: Wavelengths
Number of Pixels in Spectrum: 2048
>>>>>Begin Spectral Data<<<<<
189.047	2.71
189.435	2.71
189.823	2.71
190.211	-16.03
190.599	-13.28
190.987	243.19
191.375	-87.6
191.763	64.56
192.151	254.2
192.538	-276.92
192.926	104.49
193.314	384.24
193.702	66.89
194.089	249.19
194.477	50.8
194.864	456.53
195.252	84.88
195.639	56.58
196.027	-114.72
196.414	26.8
196.801	5.01
197.189	461.21
197.576	62.07
197.963	-53.91
198.351	16.52
198.738	16.64
199.125	-57.29
199.512	32.48
199.899	-74.31
200.286	-19.6
200.673	23.72
201.06	-40.34
201.447	8.47
201.833	-35
202.22	64.23
202.607	-2.4
202.994	7.84
203.38	15.1
203.767	-44.14
204.154	-5.29
204.54	-29.11
204.927	-23.57
205.313	14.85
205.699	30.76
206.086	24.9
206.472	14.96
206.858	-8.76
207.245	-5.96
207.631	-15.6
208.017	21.24
208.403	-57.68
208.789	-8.4
209.175	9.83
209.561	-121.54
209.947	-34.04
210.333	-7.24
210.719	7.39
211.105	20.01
211.491	0.58
211.876	-28.91
212.262	2.94
212.648	-12.13
213.034	-20.73
213.419	2.61
213.805	-19.64
214.19	-60.06
214.576	14.35
214.961	8.5
215.346	-43.81
215.732	-8.65
216.117	1.52
216.502	-67.31
216.888	-2.54
217.273	4.97
217.658	-13.04
218.043	-67.36
218.428	-18.88
218.813	24.97
219.198	-36.25
219.583	-19.27
219.968	11.17
220.353	-8.64
220.738	-35.34
221.122	-21.28
221.507	3.12
221.892	-2.06
222.276	-13.29
222.661	-5.32
223.046	-8.89
223.43	9.13
223.815	-3.18
224.199	-2.71
224.583	-9.06
224.968	-3.13
225.352	-16.37
225.736	10.57
226.121	0.3
226.505	-11.24
226.889	0.02
227.273	3.15
227.657	3.81
228.041	1.46
228.425	0.41
228.809	-3.91
229.193	1.91
229.577	2.7
229.961	2.13
230.344	3.26
230.728	4.07
231.112	4.36
231.495	2.17
231.879	2.73
232.263	4.26
232.646	2.37
233.03	3.24
233.413	3.79
233.797	0.22
234.18	1.43
234.563	2.76
234.946	2.43
235.33	3.44
235.713	3.23
236.096	3.95
236.479	4.42
236.862	1.96
237.245	2.23
237.628	4.24
238.011	1.9
238.394	2.02
238.777	3.57
239.16	3.59
239.543	4.16
239.925	0.88
240.308	0.29
240.691	0.59
241.073	1.94
241.456	2.88
241.838	3.15
242.221	3.15
242.603	3.97
242.986	3.31
243.368	3.27
243.75	3.59
244.133	3.67
244.515	3.03
244.897	3.24
245.279	2.43
245.661	2.78
246.043	2.76
246.425	3.73
246.807	2.77
247.189	3.13
247.571	3.17
247.953	3.15
248.335	3.1
248.717	3.35
249.098	3.32
249.48	3.08
249.862	3.18
250.243	3.77
250.625	3.74
251.006	4.13
251.388	2.8
251.769	2.38
252.151	3.25
252.532	2.81
252.913	2.78
253.295	2.72
253.676	3.23
254.057	3.22
254.438	2.83
254.819	3.41
255.2	3.23
255.581	4.06
255.962	3.28
256.343	3.02
256.724	2.81
257.105	2.75
257.486	2.48
257.867	2.55
258.247	2.38
258.628	3.34
259.009	3.28
259.389	2.19
259.77	2.68
260.15	3.74
260.531	3.19
260.911	3.17
261.292	3.32
261.672	2.98
262.052	3.22
262.432	2.69
262.813	3.14
263.193	3.23
263.573	3.3
263.953	2.7
264.333	3.07
264.713	2.7
265.093	2.77
265.473	4.3
265.853	2.9
266.233	2.85
266.612	2.71
266.992	2.69
267.372	2.42
267.752	3.28
268.131	2.57
268.511	2.83
268.89	3.6
269.27	2.57
269.649	2.49
270.029	2.39
270.408	2.91
270.787	2.64
271.167	3.04
271.546	3.33
271.925	2.78
272.304	3.15
272.683	2.59
273.062	2.87
273.441	2.69
273.82	3.05
274.199	2.67
274.578	2.7
274.957	3
275.336	3.37
275.715	3.52
276.093	2.65
276.472	2.61
276.851	3.28
277.229	2.79
277.608	2.59
277.986	2.59
278.365	2.97
278.743	2.92
279.122	2.62
279.5	3.06
279.878	2.79
280.257	2.95
280.635	2.95
281.013	2.49
281.391	2.71
281.769	3.13
282.147	2.85
282.525	2.36
282.903	2.21
283.281	2.79
283.659	3.33
284.037	2.83
284.415	2.7
284.792	3.12
285.17	2.6
285.548	3.05
285.925	2.92
286.303	3.45
286.68	2.91
287.058	2.97
287.435	2.65
287.813	2.65
288.19	2.41
288.567	3.11
288.945	2.47
289.322	2.82
289.699	3.12
290.076	2.79
290.453	2.56
290.83	2.46
291.207	2.63
291.584	3.09
291.961	2.63
292.338	2.58
292.715	2.86
293.092	3
293.469	2.76
293.845	2.93
294.222	3.33
294.599	2.43
294.975	2.2
295.352	3.04
295.728	2.83
296.105	2.33
296.481	2.87
296.858	2.73
297.234	2.34
297.61	2.85
297.986	3
298.363	2.66
298.739	3.13
299.115	2.95
299.491	3.07
299.867	2.74
300.243	2.97
300.619	2.36
300.995	3.2
301.371	3.23
301.746	2.95
302.122	2.45
302.498	2.97
302.874	3.03
303.249	2.53
303.625	2.28
304	3.43
304.376	3.35
304.751	2.52
305.127	2.76
305.502	2.83
305.878	2.91
306.253	2.54
306.628	2.46
307.003	2.57
307.378	2.79
307.754	2.33
308.129	2.38
308.504	3.06
308.879	2.7
309.254	3.26
309.629	2.7
310.003	2.9
310.378	3.07
310.753	2.92
311.128	2.97
311.502	2.68
311.877	2.97
312.252	2.89
312.626	3.24
313.001	2.85
313.375	2.96
313.75	2.9
314.124	2.99
314.498	2.86
314.873	2.62
315.247	3.01
315.621	2.92
315.995	2.64
316.369	2.34
316.743	2.6
317.117	2.61
317.491	2.51
317.865	2.35
318.239	3.12
318.613	2.77
318.987	2.77
319.361	3.07
319.734	2.77
320.108	2.58
320.482	2.82
320.855	2.66
321.229	2.93
321.602	2.9
321.976	2.71
322.349	3.45
322.723	2.58
323.096	2.5
323.469	2.63
323.843	2.59
324.216	2.96
324.589	3.05
324.962	2.6
325.335	2.46
325.708	2.87
326.081	2.74
326.454	2.76
326.827	3.04
327.2	2.41
327.573	3.23
327.945	2.36
328.318	2.24
328.691	2.99
329.063	2.34
329.436	2.8
329.809	3.08
330.181	2.68
330.553	2.87
330.926	2.95
331.298	2.41
331.671	2.81
332.043	2.84
332.415	2.89
332.787	3.08
333.159	2.74
333.532	2.68
333.904	2.88
334.276	3.16
334.648	2.86
335.02	2.52
335.391	2.63
335.763	2.95
336.135	2.76
336.507	2.99
336.879	2.54
337.25	2.89
337.622	2.9
337.993	2.9
338.365	2.86
338.736	2.95
339.108	3.04
339.479	2.38
339.851	3.1
340.222	3.53
340.593	2.98
340.964	3.17
341.336	2.57
341.707	3.06
342.078	2.7
342.449	2.64
342.82	2.83
343.191	2.78
343.562	3.09
343.933	2.5
344.303	2.89
344.674	2.39
345.045	3.04
345.416	3.29
345.786	2.78
346.157	2.77
346.527	3
346.898	2.72
347.268	3.1
347.639	3.01
348.009	2.89
348.38	2.63
348.75	2.92
349.12	2.87
349.49	2.8
349.861	3.31
350.231	2.99
350.601	3.25
350.971	2.72
351.341	3.31
351.711	3.15
352.081	2.68
352.45	2.85
352.82	2.81
353.19	2.86
353.56	2.85
353.929	3.16
354.299	3.15
354.669	2.95
355.038	3.28
355.408	2.73
355.777	3.07
356.147	2.79
356.516	3.01
356.885	3.15
357.254	2.78
357.624	2.65
357.993	2.96
358.362	2.91
358.731	3.23
359.1	3.09
359.469	3.2
359.838	3.12
360.207	3.11
360.576	3.07
360.945	3.07
361.314	3.12
361.682	2.71
362.051	2.96
362.42	3.11
362.788	3.07
363.157	2.91
363.525	3.16
363.894	3.04
364.262	3.09
364.631	3.41
364.999	3.26
365.367	3.33
365.735	2.91
366.104	2.96
366.472	3.07
366.84	3.25
367.208	3.14
367.576	3.33
367.944	3.05
368.312	2.99
368.68	3.3
369.048	3.04
369.416	3.02
369.783	3.05
370.151	3.35
370.519	3.15
370.886	3.14
371.254	3.26
371.621	3.02
371.989	3.35
372.356	3.26
372.724	3.09
373.091	3.09
373.458	3.22
373.826	3.35
374.193	3.15
374.56	3.06
374.927	3.14
375.294	3.19
375.661	3.09
376.028	3.14
376.395	3.25
376.762	2.87
377.129	3.27
377.496	3.32
377.863	3.29
378.229	3.32
378.596	3.33
378.963	3.27
379.329	3.02
379.696	2.91
380.062	3.22
380.429	3.1
380.795	3.26
381.161	2.96
381.528	2.95
381.894	3.08
382.26	3.13
382.626	3.24
382.993	3.27
383.359	3.23
383.725	3.08
384.091	3.26
384.457	3.05
384.823	2.9
385.188	3.35
385.554	3.4
385.92	2.97
386.286	3.25
386.651	3.28
387.017	3.45
387.383	2.93
387.748	3.45
388.114	3.35
388.479	3.31
388.845	2.96
389.21	3.42
389.575	3.34
389.94	3.31
390.306	3.1
390.671	3.26
391.036	3.11
391.401	3.09
391.766	3.19
392.131	3.37
392.496	3.41
392.861	3.23
393.226	3.04
393.591	3.24
393.956	3.5
394.32	3.53
394.685	3.3
395.05	3.15
395.414	3.18
395.779	3.6
396.143	3.33
396.508	3.38
396.872	3.34
397.236	3.5
397.601	3.45
397.965	3.39
398.329	3.48
398.694	3.11
399.058	3.32
399.422	3.23
399.786	3.16
400.15	3.35
400.514	3.51
400.878	3.34
401.242	3.62
401.605	3.46
401.969	3.33
402.333	3.31
402.697	3.5
403.06	3.27
403.424	3.4
403.787	3.32
404.151	3.37
404.514	3.47
404.878	3.31
405.241	3.42
405.604	3.38
405.968	3.42
406.331	3.4
406.694	3.35
407.057	3.25
407.42	3.5
407.783	3.46
408.146	3.45
408.509	3.45
408.872	3.45
409.235	3.51
409.598	3.39
409.961	3.6
410.323	3
410.686	3.34
411.049	3.53
411.411	3.36
411.774	3.51
412.136	3.25
412.499	3.4
412.861	3.22
413.223	3.35
413.586	3.61
413.948	3.63
414.31	3.4
414.672	3.41
415.035	3.89
415.397	3.43
415.759	3.16
416.121	3.6
416.483	3.32
416.845	3.52
417.206	3.49
417.568	3.41
417.93	3.48
418.292	3.22
418.653	3.34
419.015	3.43
419.377	3.31
419.738	3.51
420.1	3.44
420.461	3.4
420.822	3.46
421.184	3.42
421.545	3.55
421.906	3.43
422.267	3.3
422.629	3.41
422.99	3.31
423.351	3.4
423.712	3.33
424.073	3.6
424.434	3.5
424.795	3.37
425.155	3.32
425.516	3.43
425.877	3.35
426.238	3.38
426.598	3.55
426.959	3.51
427.32	3.39
427.68	3.37
428.041	3.48
428.401	3.47
428.761	3.48
429.122	3.43
429.482	3.53
429.842	3.36
430.202	3.49
430.563	3.46
430.923	3.59
431.283	3.51
431.643	3.6
432.003	3.57
432.363	3.62
432.722	3.37
433.082	3.49
433.442	3.53
433.802	3.38
434.161	3.52
434.521	3.69
434.881	3.5
435.24	3.53
435.6	3.55
435.959	3.44
436.319	3.52
436.678	3.53
437.037	3.52
437.396	3.43
437.756	3.5
438.115	3.48
438.474	3.53
438.833	3.55
439.192	3.47
439.551	3.41
439.91	3.69
440.269	3.5
440.628	3.5
440.987	3.49
441.345	3.54
441.704	3.58
442.063	3.52
442.421	3.56
442.78	3.52
443.138	3.57
443.497	3.56
443.855	3.6
444.214	3.37
444.572	3.71
444.93	3.5
445.288	3.64
445.647	3.48
446.005	3.53
446.363	3.53
446.721	3.56
447.079	3.52
447.437	3.57
447.795	3.57
448.153	3.55
448.51	3.53
448.868	3.59
449.226	3.56
449.584	3.53
449.941	3.55
450.299	3.54
450.656	3.53
451.014	3.61
451.371	3.59
451.729	3.56
452.086	3.6
452.443	3.72
452.801	3.69
453.158	3.69
453.515	3.47
453.872	3.55
454.229	3.45
454.586	3.38
454.943	3.59
455.3	3.65
455.657	3.49
456.014	3.72
456.371	3.68
456.727	3.66
457.084	3.8
457.441	3.71
457.797	3.55
458.154	3.68
458.51	3.65
458.867	3.56
459.223	3.48
459.58	3.6
459.936	3.77
460.292	3.43
460.648	3.59
461.005	3.58
461.361	3.57
461.717	3.57
462.073	3.6
462.429	3.73
462.785	3.64
463.141	3.61
463.496	3.81
463.852	3.64
464.208	3.66
464.564	3.5
464.919	3.63
465.275	3.7
465.631	3.85
465.986	3.78
466.342	3.56
466.697	3.66
467.052	3.85
467.408	3.82
467.763	3.68
468.118	3.52
468.473	3.74
468.829	3.63
469.184	3.76
469.539	3.83
469.894	3.61
470.249	3.77
470.603	3.79
470.958	3.75
471.313	3.81
471.668	3.78
472.023	3.8
472.377	3.66
472.732	3.83
473.086	3.73
473.441	3.79
473.795	3.98
474.15	3.75
474.504	3.69
474.859	3.53
475.213	3.8
475.567	3.6
475.921	3.82
476.275	3.65
476.63	3.8
476.984	3.58
477.338	3.8
477.692	3.74
478.045	3.84
478.399	3.71
478.753	3.65
479.107	3.72
479.461	3.66
479.814	3.72
480.168	3.78
480.521	3.9
480.875	3.89
481.228	3.86
481.582	3.76
481.935	3.87
482.289	3.77
482.642	3.86
482.995	3.77
483.348	3.65
483.701	3.75
484.055	3.73
484.408	3.7
484.761	3.63
485.114	3.5
485.466	3.49
485.819	3.51
486.172	3.58
486.525	3.63
486.878	3.67
487.23	3.7
487.583	3.72
487.936	3.66
488.288	3.65
488.641	3.6
488.993	3.59
489.345	3.6
489.698	3.58
490.05	3.62
490.402	3.67
490.754	3.67
491.107	3.68
491.459	3.76
491.811	3.74
492.163	3.74
492.515	3.7
492.866	3.62
493.218	3.6
493.57	3.69
493.922	3.72
494.274	3.8
494.625	3.85
494.977	3.85
495.328	3.92
495.68	3.89
496.031	3.99
496.383	3.93
496.734	3.78
497.086	3.98
497.437	3.87
497.788	3.89
498.139	3.82
498.49	3.88
498.842	3.97
499.193	3.75
499.544	3.93
499.894	3.82
500.245	3.94
500.596	3.97
500.947	3.85
501.298	3.93
501.648	3.98
501.999	3.9
502.35	3.89
502.7	4.06
503.051	3.87
503.401	4.14
503.752	3.95
504.102	3.96
504.452	3.8
504.803	3.93
505.153	3.99
505.503	3.95
505.853	4
506.203	4.01
506.553	3.85
506.903	3.89
507.253	4.03
507.603	4
507.953	4.01
508.303	4.03
508.652	3.82
509.002	3.91
509.352	4.13
509.701	3.96
510.051	4.1
510.4	4.05
510.75	3.94
511.099	3.84
511.449	4.02
511.798	4
512.147	3.93
512.496	3.98
512.846	3.94
513.195	3.97
513.544	4.13
513.893	4
514.242	4
514.591	3.89
514.939	4.08
515.288	4.07
515.637	4.06
515.986	4.13
516.334	4.07
516.683	4.07
517.032	4.11
517.38	4.05
517.729	4.15
518.077	3.97
518.426	4.15
518.774	3.98
519.122	4.02
519.47	3.98
519.819	4.14
520.167	4.01
520.515	3.98
520.863	4
521.211	4
521.559	4.02
521.907	4.08
522.255	3.97
522.602	4.21
522.95	4.12
523.298	4.16
523.645	4.25
523.993	4.12
524.341	4.18
524.688	4.21
525.036	4.16
525.383	4.15
525.73	4.17
526.078	4.28
526.425	4.05
526.772	4.16
527.119	4.05
527.466	4.16
527.814	4.14
528.161	4.12
528.508	4.16
528.854	4.09
529.201	4.09
529.548	4.01
529.895	3.98
530.242	3.94
530.588	3.97
530.935	4.03
531.282	3.99
531.628	4.06
531.975	4.14
532.321	4.18
532.667	4.2
533.014	4.29
533.36	4.22
533.706	4.21
534.052	4.26
534.399	4.15
534.745	4.12
535.091	4.04
535.437	4.17
535.783	4.17
536.129	4.19
536.474	4.32
536.82	4.3
537.166	4.25
537.512	4.37
537.857	4.26
538.203	4.23
538.549	4.22
538.894	4.24
539.239	4.35
539.585	4.3
539.93	4.43
540.276	4.36
540.621	4.4
540.966	4.47
541.311	4.37
541.656	4.34
542.001	4.25
542.346	4.25
542.691	4.25
543.036	4.17
543.381	4.22
543.726	4.31
544.071	4.32
544.415	4.4
544.76	4.34
545.105	4.4
545.449	4.41
545.794	4.46
546.138	4.48
546.483	4.54
546.827	4.5
547.171	4.47
547.516	4.5
547.86	4.59
548.204	4.45
548.548	4.43
548.892	4.54
549.236	4.57
549.58	4.58
549.924	4.68
550.268	4.69
550.612	4.6
550.956	4.86
551.3	4.8
551.643	4.67
551.987	4.83
552.33	4.84
552.674	4.72
553.017	4.71
553.361	4.81
553.704	4.78
554.048	4.7
554.391	4.79
554.734	4.64
555.077	4.87
555.42	4.91
555.764	4.76
556.107	4.95
556.45	4.87
556.793	4.93
557.135	4.91
557.478	4.91
557.821	4.89
558.164	4.97
558.507	4.75
558.849	5.06
559.192	4.95
559.534	5.02
559.877	4.88
560.219	4.99
560.562	4.82
560.904	5.2
561.246	4.8
561.589	5.24
561.931	5.16
562.273	4.97
562.615	4.99
562.957	5.07
563.299	5.09
563.641	4.94
563.983	4.76
564.325	5.17
564.667	5.23
565.008	4.91
565.35	5.08
565.692	4.85
566.033	5.13
566.375	5.15
566.716	5.04
567.058	5.13
567.399	5.25
567.741	5.03
568.082	5.08
568.423	5.07
568.764	5.09
569.105	5.2
569.447	5.08
569.788	5.31
570.129	5.3
570.47	5.21
570.811	5.28
571.151	5.22
571.492	5.22
571.833	5.25
572.174	5.28
572.514	5.42
572.855	5.28
573.195	5.23
573.536	5.35
573.876	5.33
574.217	5.34
574.557	5.29
574.898	5.33
575.238	5.37
575.578	5.56
575.918	5.48
576.258	5.53
576.598	5.37
576.938	5.4
577.278	5.5
577.618	5.39
577.958	5.55
578.298	5.71
578.638	5.65
578.977	5.52
579.317	5.36
579.657	5.46
579.996	5.67
580.336	5.78
580.675	5.65
581.014	5.66
581.354	5.55
581.693	5.77
582.032	5.9
582.372	5.63
582.711	5.64
583.05	5.75
583.389	5.86
583.728	6.08
584.067	5.75
584.406	5.78
584.745	5.76
585.083	5.91
585.422	5.94
585.761	5.92
586.1	5.96
586.438	6.04
586.777	5.9
587.115	6.17
587.454	5.71
587.792	6.11
588.13	6.04
588.469	5.91
588.807	6.27
589.145	6.14
589.483	5.99
589.821	5.94
590.159	6.08
590.497	5.96
590.835	6.31
591.173	6.34
591.511	6.31
591.849	6.2
592.187	6.07
592.524	6.16
592.862	6.15
593.2	6.29
593.537	6.13
593.875	6.29
594.212	6.17
594.55	6.29
594.887	6.41
595.224	6.5
595.561	6.38
595.899	6.35
596.236	6.48
596.573	6.23
596.91	6.22
597.247	6.55
597.584	6.63
597.921	6.46
598.258	6.48
598.594	6.44
598.931	6.35
599.268	6.17
599.604	6.7
599.941	6.39
600.277	6.64
600.614	6.61
600.95	6.54
601.287	6.25
601.623	6.61
601.959	6.81
602.296	6.94
602.632	6.57
602.968	6.62
603.304	6.8
603.64	6.81
603.976	6.46
604.312	6.72
604.648	6.91
604.984	6.71
605.319	6.7
605.655	6.74
605.991	6.79
606.326	6.79
606.662	6.57
606.998	6.9
607.333	6.77
607.668	6.74
608.004	6.95
608.339	6.89
608.674	6.95
609.01	7.37
609.345	7.29
609.68	7.03
610.015	7.08
610.35	7.19
610.685	6.63
611.02	7.04
611.355	7.07
611.689	7.05
612.024	7.18
612.359	7.26
612.694	7.5
613.028	7.04
613.363	7.32
613.697	7.19
614.032	7.25
614.366	7.25
614.7	7.38
615.035	7.32
615.369	7.45
615.703	7.37
616.037	7.48
616.371	7.38
616.705	7.34
617.039	7.4
617.373	7.83
617.707	7.67
618.041	7.41
618.375	7.2
618.709	7.66
619.042	7.42
619.376	7.75
619.71	7.67
620.043	7.66
620.377	7.79
620.71	7.31
621.043	7.89
621.377	8.01
621.71	8.06
622.043	7.94
622.376	8.01
622.709	8.01
623.043	7.91
623.376	7.52
623.709	7.91
624.041	7.68
624.374	7.52
624.707	7.83
625.04	8.12
625.373	8.29
625.705	7.96
626.038	7.83
626.37	7.7
626.703	8.02
627.035	8.03
627.368	8.16
627.7	7.98
628.032	8.04
628.365	8.29
628.697	8.27
629.029	8.12
629.361	7.95
629.693	8.15
630.025	8.33
630.357	8.35
630.689	8.09
631.021	8.44
631.353	8.21
631.684	8.21
632.016	8.26
632.348	8.05
632.679	8.92
633.011	8.37
633.342	8.68
633.674	8.1
634.005	8.52
634.336	8.89
634.668	8.4
634.999	8.39
635.33	8.55
635.661	8.39
635.992	8.68
636.323	8.47
636.654	8.68
636.985	8.6
637.316	8.46
637.647	8.8
637.977	8.62
638.308	9.23
638.639	8.87
638.969	8.6
639.3	8.86
639.63	8.64
639.961	8.97
640.291	8.62
640.622	9.09
640.952	9.15
641.282	8.84
641.612	9.04
641.943	8.67
642.273	8.93
642.603	8.99
642.933	9.57
643.263	8.92
643.592	9.5
643.922	9.57
644.252	8.74
644.582	9.24
644.911	9.03
645.241	9.21
645.571	9.43
645.9	9.11
646.23	9.78
646.559	8.9
646.888	9.32
647.218	9.26
647.547	9.23
647.876	9.24
648.205	9
648.534	9.47
648.863	9.66
649.192	9.37
649.521	9.44
649.85	9.54
650.179	9.75
650.508	9.18
650.837	9.64
651.165	9.68
651.494	9.97
651.822	9.63
652.151	9.39
652.479	9.41
652.808	9.21
653.136	9.81
653.465	9.32
653.793	9.89
654.121	9.53
654.449	9.69
654.777	9.68
655.105	9.82
655.433	10.3
655.761	10.09
656.089	10.19
656.417	10.11
656.745	9.73
657.073	9.77
657.4	9.88
657.728	9.24
658.056	9.97
658.383	10.09
658.711	10.19
659.038	10.67
659.365	10.17
659.693	9.93
660.02	10.24
660.347	10.31
660.674	9.74
661.001	10.05
661.329	10.1
661.656	9.81
661.982	10.28
662.309	10.05
662.636	10.6
662.963	10.47
663.29	10.2
663.616	10.21
663.943	10.36
664.27	10.59
664.596	10.18
664.923	10.73
665.249	10.86
665.576	10.27
665.902	10.22
666.228	10.63
666.554	10.55
666.881	10.32
667.207	10.73
667.533	10.79
667.859	10.12
668.185	10.48
668.511	10.81
668.837	10.67
669.162	10.5
669.488	10.15
669.814	10.7
670.139	10.3
670.465	11.13
670.791	10.52
671.116	10.44
671.442	10.3
671.767	10.49
672.092	10.79
672.418	11.05
672.743	10.86
673.068	10.36
673.393	11.1
673.718	10.32
674.043	10.92
674.368	10.82
674.693	11.44
675.018	11.95
675.343	11.37
675.667	11.2
675.992	11.07
676.317	10.61
676.641	11.33
676.966	11.81
677.29	11.05
677.615	11.09
677.939	11.28
678.264	10.54
678.588	11.33
678.912	11.21
679.236	11.52
679.56	10.89
679.885	11.21
680.209	11.76
680.532	11.72
680.856	11.47
681.18	12.17
681.504	11.51
681.828	11.15
682.152	11.45
682.475	11.96
682.799	11.35
683.122	11.95
683.446	11.07
683.769	12.04
684.093	12.14
684.416	11.18
684.739	11.45
685.062	11.95
685.386	11.8
685.709	12.77
686.032	11.8
686.355	11.97
686.678	12.18
687.001	11.77
687.324	12.12
687.646	12.35
687.969	11.74
688.292	12.19
688.614	12.37
688.937	12
689.26	12.85
689.582	12.05
689.904	12.56
690.227	13
690.549	12.27
690.871	12.13
691.194	12.47
691.516	11.9
691.838	12.2
692.16	12.48
692.482	11.57
692.804	11.97
693.126	12.04
693.448	11.8
693.769	12.29
694.091	11.83
694.413	12.03
694.735	11.95
695.056	12.47
695.378	12.77
695.699	12.43
696.021	12.68
696.342	12.27
696.663	12.48
696.984	11.93
697.306	12.11
697.627	13.12
697.948	12.35
698.269	13.12
698.59	12.1
698.911	12.54
699.232	12.89
699.553	13.12
699.873	12.07
700.194	12.58
700.515	12.64
700.835	12.86
701.156	13.02
701.477	12.97
701.797	13.02
702.117	12.2
702.438	13.47
702.758	13.32
703.078	13.27
703.398	12.26
703.719	13.28
704.039	13.28
704.359	12.8
704.679	12.52
704.999	13.18
705.319	12.41
705.638	13.3
705.958	13.22
706.278	13.19
706.597	13.66
706.917	13.47
707.237	13.48
707.556	12.82
707.876	13.78
708.195	13.42
708.514	13.54
708.834	13.27
709.153	14.61
709.472	14.49
709.791	12.59
710.11	14.11
710.429	12.91
710.748	14.24
711.067	13.9
711.386	14.14
711.705	14.04
712.023	14.51
712.342	14.45
712.661	13.61
712.979	14.03
713.298	14.27
713.616	14.41
713.935	13.77
714.253	13.92
714.572	13.52
714.89	14.08
715.208	12.89
715.526	13.63
715.844	14.25
716.162	15.71
716.48	14
716.798	14
717.116	14.35
717.434	14.63
717.752	13.89
718.069	13.72
718.387	13.82
718.705	14.01
719.022	14.44
719.34	13.13
719.657	15.01
719.975	14.31
720.292	14.08
720.609	13.43
720.927	13.82
721.244	14.68
721.561	13.31
721.878	14.92
722.195	14.25
722.512	14.32
722.829	14.18
723.146	14.87
723.463	13.8
723.779	13.31
724.096	14.69
724.413	15.47
724.729	14.08
725.046	14.73
725.362	14.05
725.679	14.44
725.995	13.31
726.311	13.99
726.628	15.31
726.944	14.85
727.26	14.36
727.576	14.73
727.892	14.23
728.208	13.82
728.524	13.24
728.84	14.62
729.156	13.42
729.472	13.84
729.787	15.61
730.103	14.45
730.419	14.77
730.734	15.09
731.05	15.26
731.365	14.63
731.681	15.19
731.996	16.31
732.311	15.52
732.626	15.92
732.942	15.9
733.257	16.04
733.572	15.73
733.887	15.79
734.202	15.07
734.517	15.41
734.832	15.61
735.146	15.65
735.461	15.4
735.776	15.32
736.091	15.95
736.405	15.96
736.72	15.5
737.034	15.64
737.349	15.48
737.663	17.51
737.977	16.58
738.292	16.78
738.606	15.63
738.92	17.4
739.234	15.24
739.548	16.05
739.862	15.91
740.176	14.69
740.49	15.82
740.804	15.66
741.117	14.41
741.431	15.42
741.745	15.24
742.058	16.09
742.372	15.58
742.685	15.83
742.999	15.36
743.312	15.68
743.626	16.82
743.939	15.4
744.252	16.54
744.565	16.7
744.878	14.62
745.191	15.4
745.505	15.86
745.817	16.95
746.13	15.79
746.443	15.48
746.756	15.92
747.069	16.33
747.381	16.94
747.694	14.9
748.007	15.68
748.319	16.95
748.632	15.45
748.944	15.84
749.256	17.28
749.569	17.9
749.881	16.66
750.193	17.13
750.505	17.26
750.817	16.32
751.129	16.87
751.441	17.29
751.753	16.43
752.065	16.59
752.377	17.6
752.689	15.05
753	16.97
753.312	17
753.624	15.89
753.935	16.55
754.247	16.82
754.558	17.35
754.869	18.25
755.181	16.9
755.492	15.54
755.803	16.78
756.114	16.42
756.425	14.9
756.736	17.42
757.047	16.37
757.358	15.63
757.669	17.4
757.98	16.2
758.291	17.1
758.601	18.37
758.912	16.34
759.223	17.36
759.533	19.3
759.844	17.7
760.154	17.81
760.464	17.48
760.775	17.17
761.085	17.8
761.395	15.57
761.705	15.53
762.016	16.61
762.326	18.21
762.636	18.42
762.945	16.85
763.255	16.05
763.565	18.75
763.875	17.94
764.185	19.71
764.494	17.07
764.804	16.22
765.113	18.77
765.423	19.08
765.732	18.73
766.042	19.67
766.351	19.03
766.66	17.93
766.97	17.88
767.279	18.6
767.588	16.05
767.897	17.42
768.206	19.12
768.515	19.57
768.824	19.07
769.133	16.2
769.441	16.8
769.75	16.88
770.059	20.1
770.367	21.47
770.676	17.72
770.984	16.41
771.293	17.1
771.601	16.56
771.91	17.58
772.218	16.92
772.526	16.16
772.834	14.68
773.142	19.67
773.45	17.63
773.758	18.53
774.066	21.17
774.374	21.13
774.682	20.52
774.99	17.63
775.298	21.02
775.605	14.86
775.913	15.77
776.22	19.12
776.528	18.07
776.835	20.63
777.143	21.04
777.45	17.45
777.757	21.42
778.065	18.11
778.372	18.66
778.679	20.2
778.986	21.56
779.293	16.15
779.6	18.39
779.907	18.08
780.214	17.64
780.52	17.86
780.827	18.57
781.134	16.61
781.44	18.06
781.747	16.42
782.053	18.31
782.36	17.82
782.666	17.49
782.973	17.58
783.279	17.91
783.585	20.31
783.891	19.36
784.197	18.73
784.503	21.15
784.809	19.32
785.115	20.8
785.421	22.77
785.727	20.6
786.033	22.1
786.339	21.38
786.644	18.35
786.95	16.61
787.255	18.61
787.561	16.72
787.866	21.28
788.172	19.81
788.477	16.48
788.782	18.5
789.088	17.31
789.393	21.76
789.698	19.82
790.003	21.41
790.308	19.83
790.613	17.46
790.918	19.87
791.223	21.74
791.527	20.14
791.832	19.26
792.137	22.08
792.441	19
792.746	22.18
793.05	17.36
793.355	18.08
793.659	19.05
793.963	16.2
794.268	22.16
794.572	17.21
794.876	20.32
795.18	21.38
795.484	22.71
795.788	18.85
796.092	14.08
796.396	18.07
796.7	16.73
797.004	18.2
797.307	14.55
797.611	22.83
797.915	15.53
798.218	22.7
798.522	15.5
798.825	22.06
799.128	22.79
799.432	16.14
799.735	16.6
800.038	21.87
800.341	18.56
800.644	20.68
800.947	19.87
801.25	20.28
801.553	19.88
801.856	22.49
802.159	16.3
802.462	22.19
802.764	23.07
803.067	18.76
803.37	22.87
803.672	17.23
803.975	19.03
804.277	20.57
804.579	22.55
804.882	21.88
805.184	21.2
805.486	24.18
805.788	25.3
806.09	16.48
806.392	18.26
806.694	19.62
806.996	22.79
807.298	18.67
807.6	26.16
807.902	20.96
808.203	18.31
808.505	14.86
808.807	18.19
809.108	22.42
809.409	17.69
809.711	17.34
810.012	21.15
810.313	23.41
810.615	18.38
810.916	15.51
811.217	21.46
811.518	14.74
811.819	21.89
812.12	23.51
812.421	22.44
812.722	25.13
813.023	23.43
813.323	19.75
813.624	21.86
813.925	22.8
814.225	23.01
814.526	19.1
814.826	14.32
815.126	21.09
815.427	22.98
815.727	19.75
816.027	22.52
816.327	22.99
816.627	22.66
816.927	24.53
817.227	23.66
817.527	14.3
817.827	19.35
818.127	19.91
818.427	16.11
818.727	15.38
819.026	22.38
819.326	23.45
819.625	20.97
819.925	13.46
820.224	21.34
820.524	20.95
820.823	27.39
821.122	17.73
821.421	14.76
821.72	22.87
822.019	16.18
822.318	22.62
822.617	26.12
822.916	21.81
823.215	21.44
823.514	23.73
823.813	22.33
824.111	23.41
824.41	24.34
824.709	24.44
825.007	24.28
825.306	25.36
825.604	25.51
825.902	25.55
826.201	25.8
826.499	24.32
826.797	25.06
827.095	26.99
827.393	25.16
827.691	27.67
827.989	25.46
828.287	26.54
828.585	25.59
828.882	23.89
829.18	24.21
829.478	25.85
829.775	24.73
830.073	26.55
830.37	25.08
830.668	24.84
830.965	24.33
831.263	24.81
831.56	27.63
831.857	26.66
832.154	25.5
832.451	27
832.748	26.62
833.045	23.57
833.342	20.81
833.639	20.46
833.936	17.92
834.232	24.56
834.529	24.36
834.826	27.38
835.122	20.48
835.419	26.41
835.715	24.57
836.012	25.16
836.308	30.33
836.604	25.32
836.901	20.69
837.197	28.4
837.493	26.01
837.789	25.29
838.085	19.65
838.381	26.14
838.677	26.02
838.972	23.23
839.268	22.1
839.564	28.34
839.86	19.94
840.155	20.67
840.451	24.03
840.746	28.51
841.042	24.47
841.337	31.66
841.632	22.22
841.928	21.92
842.223	20.6
842.518	17.64
842.813	27.43
843.108	25.7
843.403	21.86
843.698	24.24
843.993	31.65
844.287	10.1
844.582	21.98
844.877	23.95
845.171	24.08
845.466	23.78
845.761	27.13
846.055	31.25
846.349	17.95
846.644	21.75
846.938	31.96
847.232	22.71
847.526	29.29
847.82	10.03
848.114	18.74
848.408	36.31
848.702	12.27
848.996	18.62
849.29	36.89
849.584	12.56
849.877	21.96
850.171	17.35
850.465	17.26
850.758	-1.56
851.052	-3.4
851.345	27.82
851.638	2.92
851.932	11.57
852.225	30.16
852.518	41.61
852.811	1.01
853.104	28.76
853.397	5.69
853.69	30.65
853.983	5.48
854.276	9.75
854.569	24.03
854.861	18.08
855.154	39.54
855.447	11.38
855.739	-6.92
856.032	20.43
856.324	-3.07
856.616	27
856.909	8.11
857.201	-8.65
857.493	10.09
857.785	-2.69
858.077	-6.97
858.369	29.22
858.661	27.09
858.953	26.39
859.245	4
859.537	-9.64
859.829	13.71
860.12	34.07
860.412	29.29
860.703	26.72
860.995	25.01
861.286	13
861.578	38.73
861.869	29.17
862.16	6.19
862.452	-7.85
862.743	10.23
863.034	16.07
863.325	21.74
863.616	37.42
863.907	11.81
864.198	-27.8
864.488	19.66
864.779	28.25
865.07	22.57
865.36	26.35
865.651	30.64
865.941	-20.95
866.232	8.14
866.522	11.55
866.813	24.89
867.103	6.11
867.393	16.51
867.683	9.21
867.973	28.37
868.263	0.99
868.553	32.65
868.843	36.32
869.133	20.05
869.423	2.39
869.713	34.54
870.002	21.21
870.292	-2.89
870.582	16.18
870.871	26.05
871.161	-11.73
871.45	18.44
871.739	28.93
872.029	10.31
872.318	-14.93
872.607	17.83
872.896	5.08
873.185	19.25
873.474	-10.68
873.763	57.69
874.052	26.06
874.341	6.45
874.63	12.95
874.918	37.47
875.207	0.01
875.496	22.27
875.784	28.79
876.073	30.03
876.361	29.45
876.649	29.76
876.938	20.21
877.226	26.78
877.514	30.95
877.802	12.67
878.09	46.03
878.378	18.59
878.666	40.98
878.954	46.62
879.242	31.53
879.53	13.59
879.817	1.97
880.105	19.13
880.392	31.72
880.68	24.29
880.967	21.6
881.255	18.86
881.542	34.13
881.83	35.26
882.117	50.25
882.404	-2.66
882.691	32.53
882.978	16.36
883.265	19.66
883.552	14.84
883.839	26
884.126	28.97
884.413	22.73
884.699	31.99
884.986	31.84
885.273	33.68
885.559	33.68
885.846	33.68
