Data from 0005_forehead_Reflection__1__373.txt Node

Date: Thu Dec 15 19:30:49 CST 2022
User: ToomeyLab
Spectrometer: FLMS14357
Trigger mode: 0
Integration Time (sec): 1.000000E-2
Scans to average: 100
Electric dark correction enabled: true
Nonlinearity correction enabled: false
Boxcar width: 0
XAxis mode: Wavelengths
Number of Pixels in Spectrum: 2048
>>>>>Begin Spectral Data<<<<<
189.047	-34.19
189.435	-34.19
189.823	-34.19
190.211	-32.98
190.599	96.03
190.987	400.63
191.375	50.67
191.763	15.84
192.151	-69.96
192.538	-77.83
192.926	-23.46
193.314	856.33
193.702	82.79
194.089	-417.08
194.477	-9.56
194.864	364.26
195.252	54.15
195.639	78.64
196.027	-867.86
196.414	517.19
196.801	3.64
197.189	523.81
197.576	-82.38
197.963	-123.63
198.351	-20.69
198.738	-97.99
199.125	-32.48
199.512	5.58
199.899	-56.36
200.286	-49.32
200.673	46.75
201.06	-15.98
201.447	10.83
201.833	-13.73
202.22	44.18
202.607	-5.89
202.994	96.38
203.38	2.35
203.767	-2.64
204.154	-5
204.54	14.74
204.927	-32.71
205.313	24.27
205.699	11.35
206.086	12.17
206.472	0.6
206.858	-0.73
207.245	-27.26
207.631	-5.07
208.017	26.54
208.403	-61.44
208.789	37.75
209.175	-5.51
209.561	-67.06
209.947	-9.7
210.333	2.53
210.719	-8.3
211.105	28.99
211.491	4.29
211.876	0.86
212.262	20.94
212.648	1.15
213.034	6.52
213.419	24.66
213.805	-13.81
214.19	5.21
214.576	-51.72
214.961	12.12
215.346	-37.7
215.732	-7.93
216.117	-36.44
216.502	-6.78
216.888	-9.94
217.273	6.8
217.658	-5.21
218.043	-21.62
218.428	-52.34
218.813	20.4
219.198	-11.73
219.583	-2.72
219.968	12.66
220.353	13.68
220.738	-2.35
221.122	-7.54
221.507	-12.05
221.892	-33.9
222.276	-21.03
222.661	-8.98
223.046	-2.18
223.43	0.78
223.815	4.71
224.199	11.05
224.583	2.55
224.968	-0.74
225.352	-8.43
225.736	-3.31
226.121	-1.59
226.505	1.78
226.889	-0.46
227.273	0.06
227.657	3.4
228.041	4.46
228.425	1.6
228.809	1.3
229.193	3.98
229.577	2.85
229.961	2.19
230.344	4.11
230.728	4.35
231.112	4.58
231.495	2.32
231.879	3.59
232.263	4.48
232.646	3.49
233.03	5.41
233.413	4.07
233.797	1.94
234.18	2.98
234.563	3.69
234.946	2.04
235.33	4.62
235.713	3.94
236.096	3.42
236.479	3.86
236.862	3.4
237.245	3.43
237.628	4.78
238.011	3.7
238.394	1.68
238.777	5.07
239.16	4.93
239.543	4.4
239.925	4.57
240.308	3.56
240.691	3.51
241.073	3.69
241.456	3.86
241.838	2.76
242.221	3.81
242.603	3.69
242.986	3.43
243.368	3.92
243.75	3.83
244.133	4.31
244.515	3.83
244.897	3.72
245.279	3.9
245.661	3.91
246.043	3.68
246.425	3.88
246.807	3.62
247.189	3.47
247.571	4.2
247.953	4.07
248.335	4.08
248.717	4.11
249.098	3.84
249.48	3.69
249.862	4.19
250.243	3.87
250.625	4.27
251.006	4.47
251.388	3.83
251.769	3.74
252.151	4
252.532	4.01
252.913	3.07
253.295	3.6
253.676	3.98
254.057	3.53
254.438	3.96
254.819	3.94
255.2	4.45
255.581	4.04
255.962	4.1
256.343	3.63
256.724	4.44
257.105	3.74
257.486	2.34
257.867	3.46
258.247	3.39
258.628	4.2
259.009	4.11
259.389	3.55
259.77	3.52
260.15	4.26
260.531	3.76
260.911	3.77
261.292	3.89
261.672	3.83
262.052	3.99
262.432	3.81
262.813	3.91
263.193	3.52
263.573	4.01
263.953	3.54
264.333	3.54
264.713	3.77
265.093	3.48
265.473	4.82
265.853	3.89
266.233	4.25
266.612	3.75
266.992	3.51
267.372	3.55
267.752	4.05
268.131	3.86
268.511	3.64
268.89	4.38
269.27	3.43
269.649	3.59
270.029	3.85
270.408	3.59
270.787	4.01
271.167	3.94
271.546	4.3
271.925	3.67
272.304	3.65
272.683	3.68
273.062	3.86
273.441	3.62
273.82	4
274.199	3.69
274.578	3.99
274.957	3.82
275.336	3.72
275.715	3.88
276.093	3.62
276.472	3.66
276.851	3.44
277.229	3.52
277.608	3.21
277.986	3.52
278.365	4.1
278.743	3.74
279.122	3.5
279.5	3.54
279.878	3.57
280.257	3.79
280.635	3.83
281.013	3.4
281.391	3.54
281.769	3.64
282.147	3.51
282.525	3.27
282.903	3.52
283.281	4.05
283.659	3.79
284.037	3.67
284.415	3.4
284.792	3.98
285.17	4.07
285.548	4.06
285.925	3.68
286.303	4.28
286.68	3.78
287.058	3.99
287.435	3.5
287.813	3.88
288.19	3.39
288.567	3.27
288.945	3.48
289.322	4.07
289.699	3.82
290.076	3.74
290.453	3.49
290.83	3.85
291.207	3.76
291.584	4.23
291.961	3.9
292.338	3.42
292.715	3.91
293.092	4.26
293.469	4.19
293.845	4.17
294.222	4.31
294.599	3.38
294.975	3.32
295.352	4.43
295.728	3.94
296.105	3.72
296.481	4.06
296.858	3.9
297.234	3.65
297.61	4.35
297.986	4.53
298.363	4.22
298.739	4.22
299.115	4.15
299.491	4.54
299.867	4.03
300.243	3.94
300.619	4.08
300.995	4.01
301.371	4.52
301.746	4.78
302.122	4.09
302.498	4.21
302.874	4.79
303.249	4.38
303.625	4.01
304	4.62
304.376	4.47
304.751	4.06
305.127	4.04
305.502	4.39
305.878	4.5
306.253	4.07
306.628	4.83
307.003	4.08
307.378	4.05
307.754	4.7
308.129	4.29
308.504	4.56
308.879	4.53
309.254	4.86
309.629	4.86
310.003	4.67
310.378	4.76
310.753	4.72
311.128	4.45
311.502	5.04
311.877	4.74
312.252	4.88
312.626	5.04
313.001	4.67
313.375	4.97
313.75	5.08
314.124	5.29
314.498	5.15
314.873	4.86
315.247	4.68
315.621	5.05
315.995	5.01
316.369	4.6
316.743	4.56
317.117	4.55
317.491	4.99
317.865	4.68
318.239	5.61
318.613	4.74
318.987	4.48
319.361	5.19
319.734	4.98
320.108	4.75
320.482	4.98
320.855	4.98
321.229	5.06
321.602	5.14
321.976	4.96
322.349	5.85
322.723	5.1
323.096	5.38
323.469	5.1
323.843	5.18
324.216	5.7
324.589	5.44
324.962	5.22
325.335	5.27
325.708	5.5
326.081	5.78
326.454	5.42
326.827	5.27
327.2	4.99
327.573	6.15
327.945	5.22
328.318	5.37
328.691	5.57
329.063	5.34
329.436	5.17
329.809	5.45
330.181	6.14
330.553	5.84
330.926	5.85
331.298	5.42
331.671	5.58
332.043	6.28
332.415	5.53
332.787	5.79
333.159	5.54
333.532	5.84
333.904	5.49
334.276	5.63
334.648	5.93
335.02	5.87
335.391	5.95
335.763	5.83
336.135	5.98
336.507	5.83
336.879	6.25
337.25	5.67
337.622	5.89
337.993	5.99
338.365	6.3
338.736	5.83
339.108	5.99
339.479	5.69
339.851	6.2
340.222	6.42
340.593	6.07
340.964	6.13
341.336	5.64
341.707	6.12
342.078	6.02
342.449	6.21
342.82	6.54
343.191	6.39
343.562	6.69
343.933	6.43
344.303	6.54
344.674	6.3
345.045	6.46
345.416	6.84
345.786	6.29
346.157	6.97
346.527	6.12
346.898	6.08
347.268	6.67
347.639	6.51
348.009	6.47
348.38	6.45
348.75	6.79
349.12	6.86
349.49	6.79
349.861	6.43
350.231	7.14
350.601	7.03
350.971	6.7
351.341	6.79
351.711	6.93
352.081	6.44
352.45	6.49
352.82	6.43
353.19	6.94
353.56	7.27
353.929	7.24
354.299	7.15
354.669	7.37
355.038	7.42
355.408	7.32
355.777	7.25
356.147	6.84
356.516	7.21
356.885	7.36
357.254	6.74
357.624	6.81
357.993	7.13
358.362	7.19
358.731	7.59
359.1	7.24
359.469	7.23
359.838	7.45
360.207	7.26
360.576	7.47
360.945	7.14
361.314	7.31
361.682	7.18
362.051	7.27
362.42	7.5
362.788	7.28
363.157	7.22
363.525	7.43
363.894	7.42
364.262	7.78
364.631	7.78
364.999	7.67
365.367	7.68
365.735	7.32
366.104	7.49
366.472	7.52
366.84	7.92
367.208	7.84
367.576	8.01
367.944	7.89
368.312	7.72
368.68	8.21
369.048	8
369.416	7.88
369.783	7.87
370.151	8.34
370.519	8.36
370.886	8.03
371.254	7.85
371.621	8.37
371.989	8.32
372.356	7.94
372.724	8.18
373.091	8.02
373.458	8.13
373.826	8.47
374.193	8.57
374.56	8.14
374.927	8.41
375.294	8.12
375.661	8.47
376.028	8.18
376.395	8.32
376.762	8.43
377.129	8.34
377.496	8.5
377.863	8.56
378.229	8.85
378.596	8.72
378.963	8.78
379.329	8.8
379.696	8.5
380.062	8.81
380.429	8.46
380.795	8.95
381.161	8.57
381.528	8.43
381.894	8.79
382.26	8.67
382.626	8.72
382.993	9.05
383.359	8.99
383.725	8.72
384.091	9.18
384.457	8.94
384.823	9.06
385.188	9.03
385.554	9.09
385.92	8.88
386.286	9.2
386.651	9.01
387.017	9.38
387.383	9.07
387.748	9.17
388.114	9.37
388.479	9.28
388.845	9.24
389.21	9.44
389.575	9.51
389.94	9.8
390.306	9.33
390.671	9.68
391.036	9.49
391.401	9.83
391.766	9.49
392.131	9.81
392.496	9.73
392.861	9.63
393.226	9.36
393.591	9.71
393.956	9.53
394.32	9.68
394.685	9.85
395.05	9.7
395.414	9.87
395.779	10.14
396.143	9.75
396.508	9.93
396.872	9.79
397.236	10.03
397.601	10.04
397.965	10.24
398.329	10.07
398.694	10.17
399.058	10.1
399.422	10.06
399.786	10.06
400.15	10.19
400.514	10.15
400.878	10.02
401.242	10.33
401.605	10.38
401.969	10.16
402.333	10.28
402.697	10.6
403.06	10.25
403.424	10.32
403.787	10.44
404.151	10.65
404.514	10.62
404.878	10.36
405.241	10.46
405.604	10.52
405.968	10.43
406.331	10.52
406.694	10.79
407.057	10.66
407.42	10.6
407.783	10.87
408.146	10.79
408.509	10.84
408.872	10.87
409.235	11.08
409.598	10.97
409.961	10.88
410.323	11.1
410.686	10.87
411.049	11.08
411.411	11.03
411.774	11.02
412.136	11.03
412.499	11.22
412.861	11.08
413.223	11.08
413.586	11.29
413.948	11.43
414.31	11.29
414.672	11.35
415.035	11.49
415.397	11.09
415.759	11.04
416.121	11.69
416.483	11.47
416.845	11.5
417.206	11.41
417.568	11.29
417.93	11.3
418.292	11.31
418.653	11.18
419.015	11.41
419.377	11.47
419.738	11.47
420.1	11.38
420.461	11.42
420.822	11.6
421.184	11.41
421.545	11.55
421.906	11.46
422.267	11.5
422.629	11.45
422.99	11.56
423.351	11.48
423.712	11.59
424.073	11.72
424.434	11.69
424.795	11.81
425.155	11.73
425.516	11.63
425.877	11.76
426.238	11.73
426.598	11.83
426.959	11.89
427.32	11.9
427.68	12
428.041	12.08
428.401	11.98
428.761	12.2
429.122	12.2
429.482	12.49
429.842	12.28
430.202	12.47
430.563	12.35
430.923	12.56
431.283	12.47
431.643	12.81
432.003	12.73
432.363	12.67
432.722	12.54
433.082	12.51
433.442	12.71
433.802	12.56
434.161	12.6
434.521	12.73
434.881	12.76
435.24	12.73
435.6	12.89
435.959	12.88
436.319	13.06
436.678	13.04
437.037	13
437.396	13.02
437.756	12.93
438.115	12.99
438.474	13.12
438.833	13.09
439.192	13.01
439.551	13.11
439.91	13.19
440.269	13.14
440.628	13.05
440.987	13.18
441.345	13.03
441.704	13.1
442.063	13.16
442.421	13.09
442.78	13.14
443.138	13.27
443.497	13.22
443.855	13.37
444.214	13.2
444.572	13.74
444.93	13.56
445.288	13.63
445.647	13.51
446.005	13.69
446.363	13.58
446.721	13.56
447.079	13.56
447.437	13.54
447.795	13.53
448.153	13.6
448.51	13.52
448.868	13.6
449.226	13.67
449.584	13.73
449.941	13.99
450.299	13.79
450.656	13.94
451.014	14.13
451.371	14.18
451.729	14.19
452.086	14.16
452.443	14.37
452.801	14.27
453.158	14.36
453.515	14.1
453.872	14.23
454.229	14.27
454.586	14.2
454.943	14.37
455.3	14.55
455.657	14.41
456.014	14.42
456.371	14.68
456.727	14.48
457.084	14.94
457.441	14.77
457.797	14.74
458.154	14.66
458.51	14.66
458.867	14.83
459.223	14.86
459.58	14.62
459.936	14.82
460.292	14.75
460.648	14.56
461.005	14.71
461.361	14.62
461.717	14.55
462.073	14.87
462.429	14.93
462.785	15.25
463.141	15.03
463.496	15.26
463.852	15.35
464.208	15.42
464.564	15.24
464.919	15.48
465.275	15.32
465.631	15.62
465.986	15.53
466.342	15.4
466.697	15.47
467.052	15.62
467.408	15.77
467.763	15.65
468.118	15.51
468.473	15.7
468.829	15.7
469.184	15.8
469.539	15.68
469.894	15.78
470.249	15.85
470.603	16.1
470.958	16.15
471.313	15.97
471.668	16.03
472.023	16.15
472.377	15.91
472.732	16.1
473.086	16.08
473.441	16.2
473.795	16.47
474.15	16.27
474.504	16.32
474.859	16.21
475.213	16.4
475.567	16.41
475.921	16.5
476.275	16.4
476.63	16.69
476.984	16.4
477.338	16.57
477.692	16.61
478.045	16.41
478.399	16.42
478.753	16.63
479.107	16.58
479.461	16.88
479.814	16.7
480.168	16.72
480.521	16.8
480.875	16.83
481.228	16.8
481.582	17.01
481.935	17.03
482.289	16.98
482.642	16.94
482.995	16.77
483.348	16.81
483.701	16.82
484.055	16.7
484.408	16.54
484.761	16.4
485.114	16.15
485.466	16.18
485.819	16.19
486.172	16.35
486.525	16.47
486.878	16.69
487.23	16.8
487.583	16.87
487.936	16.87
488.288	16.79
488.641	16.73
488.993	16.67
489.345	16.64
489.698	16.78
490.05	16.86
490.402	16.95
490.754	17.15
491.107	17.29
491.459	17.44
491.811	17.57
492.163	17.46
492.515	17.38
492.866	17.15
493.218	17.08
493.57	17.23
493.922	17.38
494.274	17.55
494.625	17.83
494.977	17.87
495.328	18.01
495.68	18.19
496.031	18.13
496.383	18.14
496.734	18.38
497.086	18.34
497.437	18.28
497.788	18.4
498.139	18.37
498.49	18.26
498.842	18.44
499.193	18.4
499.544	18.4
499.894	18.52
500.245	18.65
500.596	18.81
500.947	18.81
501.298	18.82
501.648	18.81
501.999	18.93
502.35	18.87
502.7	19.04
503.051	19.09
503.401	19.26
503.752	19.01
504.102	19.32
504.452	19.17
504.803	19.16
505.153	19.33
505.503	19.18
505.853	19.35
506.203	19.43
506.553	19.48
506.903	19.28
507.253	19.72
507.603	19.46
507.953	19.59
508.303	19.6
508.652	19.58
509.002	19.7
509.352	19.64
509.701	19.55
510.051	19.74
510.4	19.73
510.75	19.59
511.099	19.62
511.449	19.76
511.798	19.77
512.147	19.79
512.496	19.76
512.846	19.9
513.195	20.07
513.544	19.98
513.893	19.94
514.242	19.96
514.591	19.98
514.939	20.19
515.288	20.29
515.637	20.18
515.986	20.33
516.334	20.36
516.683	20.38
517.032	20.51
517.38	20.5
517.729	20.52
518.077	20.56
518.426	20.67
518.774	20.58
519.122	20.49
519.47	20.41
519.819	20.34
520.167	20.26
520.515	20.33
520.863	20.42
521.211	20.46
521.559	20.56
521.907	20.67
522.255	20.89
522.602	21.1
522.95	21.16
523.298	21.19
523.645	21.15
523.993	21.14
524.341	21.25
524.688	21.31
525.036	21.3
525.383	21.23
525.73	21.28
526.078	21.32
526.425	21.27
526.772	21.06
527.119	21.14
527.466	21.02
527.814	21.17
528.161	21.23
528.508	21.36
528.854	21.26
529.201	21.15
529.548	20.89
529.895	20.65
530.242	20.79
530.588	20.85
530.935	20.93
531.282	21.05
531.628	21.23
531.975	21.3
532.321	21.59
532.667	21.67
533.014	21.75
533.36	21.7
533.706	21.78
534.052	21.79
534.399	21.67
534.745	21.41
535.091	21.5
535.437	21.76
535.783	21.71
536.129	22.03
536.474	22.2
536.82	22.38
537.166	22.3
537.512	22.39
537.857	22.25
538.203	22.26
538.549	22.22
538.894	22.3
539.239	22.52
539.585	22.7
539.93	22.76
540.276	22.66
540.621	22.92
540.966	23.04
541.311	22.99
541.656	22.81
542.001	22.69
542.346	22.49
542.691	22.4
543.036	22.14
543.381	22.36
543.726	22.56
544.071	22.63
544.415	22.81
544.76	22.88
545.105	22.89
545.449	23.09
545.794	23.28
546.138	23.3
546.483	23.35
546.827	23.4
547.171	23.61
547.516	23.48
547.86	23.63
548.204	23.68
548.548	23.56
548.892	23.6
549.236	23.6
549.58	23.86
549.924	24.15
550.268	24.03
550.612	24.13
550.956	24.35
551.3	24.53
551.643	24.44
551.987	24.53
552.33	24.6
552.674	24.66
553.017	24.71
553.361	24.64
553.704	24.77
554.048	24.5
554.391	24.66
554.734	24.6
555.077	24.71
555.42	24.73
555.764	24.7
556.107	24.97
556.45	25.08
556.793	25.04
557.135	25.18
557.478	25.28
557.821	25.21
558.164	25.31
558.507	25.21
558.849	25.42
559.192	25.33
559.534	25.41
559.877	25.47
560.219	25.41
560.562	25.48
560.904	25.66
561.246	25.6
561.589	25.83
561.931	25.62
562.273	25.77
562.615	25.85
562.957	25.72
563.299	25.79
563.641	25.72
563.983	25.75
564.325	25.88
564.667	25.97
565.008	26.11
565.35	25.93
565.692	26.12
566.033	26.09
566.375	26.03
566.716	26.22
567.058	26.02
567.399	26.01
567.741	26.14
568.082	26.07
568.423	26.2
568.764	26.3
569.105	26.38
569.447	26.57
569.788	26.49
570.129	26.42
570.47	26.67
570.811	26.58
571.151	26.73
571.492	26.7
571.833	26.56
572.174	26.77
572.514	26.83
572.855	26.79
573.195	26.42
573.536	26.8
573.876	26.76
574.217	26.72
574.557	26.72
574.898	27.01
575.238	26.94
575.578	26.96
575.918	26.86
576.258	27.28
576.598	27.14
576.938	27.16
577.278	27.33
577.618	27.21
577.958	27.5
578.298	27.32
578.638	27.5
578.977	27.56
579.317	27.72
579.657	27.66
579.996	27.97
580.336	28
580.675	27.87
581.014	28.22
581.354	27.92
581.693	28.23
582.032	28.12
582.372	28.03
582.711	28.4
583.05	28.14
583.389	28.5
583.728	28.68
584.067	28.21
584.406	28.46
584.745	28.31
585.083	28.57
585.422	28.42
585.761	28.69
586.1	28.84
586.438	28.72
586.777	28.59
587.115	28.97
587.454	28.45
587.792	28.68
588.13	28.99
588.469	28.85
588.807	28.92
589.145	28.93
589.483	28.83
589.821	29.06
590.159	28.89
590.497	29.32
590.835	29.21
591.173	29.17
591.511	29.43
591.849	29.35
592.187	29.28
592.524	29.32
592.862	29.25
593.2	29.18
593.537	29.54
593.875	29.25
594.212	29.64
594.55	29.7
594.887	29.58
595.224	29.71
595.561	29.52
595.899	29.84
596.236	29.82
596.573	29.46
596.91	29.71
597.247	29.51
597.584	29.58
597.921	29.46
598.258	29.78
598.594	29.6
598.931	29.31
599.268	29.78
599.604	29.84
599.941	29.91
600.277	30.01
600.614	29.92
600.95	30.3
601.287	30.05
601.623	30.24
601.959	30.51
602.296	30.53
602.632	30.38
602.968	30.47
603.304	30.46
603.64	30.46
603.976	30.31
604.312	30.59
604.648	30.47
604.984	30.46
605.319	30.46
605.655	30.33
605.991	30.63
606.326	30.47
606.662	30.44
606.998	30.61
607.333	30.63
607.668	30.7
608.004	30.72
608.339	30.79
608.674	31.11
609.01	31.08
609.345	31.11
609.68	30.9
610.015	31.32
610.35	31.29
610.685	31.02
611.02	30.79
611.355	31.06
611.689	31.06
612.024	31.28
612.359	31.36
612.694	31.24
613.028	31.47
613.363	31.56
613.697	31.61
614.032	31.44
614.366	31.5
614.7	31.82
615.035	31.89
615.369	31.73
615.703	31.86
616.037	31.92
616.371	32.11
616.705	31.84
617.039	31.92
617.373	32.24
617.707	31.73
618.041	31.72
618.375	31.86
618.709	32.34
619.042	32.53
619.376	32.09
619.71	32.52
620.043	32.44
620.377	32.55
620.71	32.39
621.043	32.63
621.377	32.64
621.71	32.76
622.043	32.47
622.376	32.62
622.709	33.35
623.043	32.27
623.376	32.71
623.709	32.9
624.041	32.84
624.374	33.31
624.707	32.46
625.04	33.06
625.373	33.23
625.705	32.97
626.038	33.34
626.37	32.93
626.703	33.16
627.035	33.05
627.368	33.26
627.7	33.21
628.032	33.09
628.365	33.15
628.697	33.28
629.029	33.01
629.361	33.16
629.693	33.18
630.025	33.28
630.357	33.66
630.689	33.01
631.021	33.33
631.353	33.34
631.684	33.69
632.016	33.68
632.348	33.75
632.679	33.93
633.011	33.48
633.342	33.32
633.674	33.6
634.005	33.89
634.336	33.7
634.668	33.5
634.999	33.95
635.33	33.78
635.661	33.87
635.992	34
636.323	34.41
636.654	34.23
636.985	34.08
637.316	34.48
637.647	34.3
637.977	34.1
638.308	34.28
638.639	34.51
638.969	34.51
639.3	34.45
639.63	34.27
639.961	34.52
640.291	34.38
640.622	34.97
640.952	34.44
641.282	34.74
641.612	34.97
641.943	34.66
642.273	34.67
642.603	34.48
642.933	34.75
643.263	34.72
643.592	35.9
643.922	34.99
644.252	35.14
644.582	35.27
644.911	35.24
645.241	35.04
645.571	35.36
645.9	34.8
646.23	35.69
646.559	34.56
646.888	35.44
647.218	34.93
647.547	35.37
647.876	34.95
648.205	35.28
648.534	35.53
648.863	35.35
649.192	36
649.521	35.62
649.85	35.5
650.179	35.9
650.508	35.8
650.837	36.03
651.165	35.74
651.494	35.56
651.822	36.14
652.151	35.49
652.479	35.67
652.808	36.01
653.136	35.73
653.465	36.06
653.793	35.93
654.121	36.21
654.449	36.08
654.777	35.81
655.105	36.35
655.433	35.99
655.761	36.11
656.089	36.03
656.417	36.57
656.745	36.64
657.073	36.51
657.4	35.69
657.728	36.22
658.056	36.42
658.383	35.99
658.711	36.38
659.038	36.73
659.365	35.74
659.693	36.02
660.02	36.21
660.347	36.42
660.674	36.56
661.001	36.03
661.329	36.54
661.656	36.06
661.982	36.79
662.309	36.69
662.636	36.84
662.963	36.89
663.29	37.22
663.616	37.03
663.943	37.02
664.27	36.84
664.596	37.23
664.923	36.57
665.249	37.14
665.576	37.12
665.902	36.57
666.228	36.75
666.554	37.5
666.881	36.63
667.207	37.74
667.533	37.62
667.859	36.96
668.185	37.34
668.511	37.43
668.837	37.04
669.162	37.26
669.488	37.16
669.814	36.66
670.139	37.12
670.465	37.87
670.791	37.71
671.116	37.57
671.442	38.07
671.767	37.88
672.092	37.32
672.418	38
672.743	37.45
673.068	36.59
673.393	37.76
673.718	37.31
674.043	38.01
674.368	38.11
674.693	38.18
675.018	37.82
675.343	38.62
675.667	37.86
675.992	37.74
676.317	37.86
676.641	38.27
676.966	38.61
677.29	37.71
677.615	37.69
677.939	38.59
678.264	37.64
678.588	38.08
678.912	38.24
679.236	38.17
679.56	38.15
679.885	38.61
680.209	37.94
680.532	39.06
680.856	38.83
681.18	38.57
681.504	38.34
681.828	38.34
682.152	37.99
682.475	38.78
682.799	38.21
683.122	38.76
683.446	38.53
683.769	38.79
684.093	38.46
684.416	38.84
684.739	38.73
685.062	38.88
685.386	39.01
685.709	38.45
686.032	38.32
686.355	38.88
686.678	38.42
687.001	37.89
687.324	38.81
687.646	39.76
687.969	39.58
688.292	39.07
688.614	39.59
688.937	39.33
689.26	39.03
689.582	39.08
689.904	38.63
690.227	39.37
690.549	39.39
690.871	39.58
691.194	39.08
691.516	39.36
691.838	39
692.16	39.81
692.482	39.72
692.804	39.81
693.126	39.6
693.448	40.08
693.769	39.65
694.091	40.31
694.413	39.93
694.735	39.47
695.056	39.83
695.378	39.86
695.699	39.87
696.021	39.71
696.342	39.46
696.663	40.01
696.984	39.34
697.306	38.98
697.627	40.01
697.948	39.2
698.269	40.14
698.59	40.09
698.911	40.37
699.232	39.97
699.553	39.97
699.873	40.22
700.194	40.33
700.515	40.05
700.835	40.15
701.156	40.36
701.477	39.82
701.797	40.24
702.117	40.2
702.438	39.83
702.758	39.97
703.078	40.23
703.398	39.75
703.719	40.72
704.039	40.82
704.359	40.29
704.679	40.64
704.999	40.95
705.319	40.1
705.638	40.63
705.958	40.47
706.278	41.28
706.597	40.11
706.917	40.88
707.237	41.77
707.556	39.44
707.876	41.24
708.195	40.7
708.514	39.63
708.834	41.51
709.153	40.86
709.472	42.18
709.791	41.15
710.11	41
710.429	40.67
710.748	41.31
711.067	41.42
711.386	40.49
711.705	41.24
712.023	42.49
712.342	40.2
712.661	41.76
712.979	41.49
713.298	41.66
713.616	40.96
713.935	41.14
714.253	41.67
714.572	40.67
714.89	41.51
715.208	40.61
715.526	41.33
715.844	40.12
716.162	41.99
716.48	41.29
716.798	41.1
717.116	41
717.434	40.68
717.752	41.36
718.069	41.27
718.387	41.16
718.705	41.33
719.022	40.97
719.34	40.95
719.657	41.38
719.975	40.59
720.292	42.58
720.609	40.44
720.927	41.51
721.244	41.99
721.561	41.32
721.878	40.84
722.195	42.38
722.512	42.45
722.829	41.95
723.146	41.79
723.463	40.69
723.779	41.76
724.096	41.1
724.413	42.25
724.729	42.35
725.046	41.12
725.362	41.48
725.679	41.15
725.995	40.82
726.311	42.08
726.628	41.94
726.944	41.68
727.26	43.33
727.576	41.74
727.892	43.24
728.208	41.67
728.524	41.92
728.84	41.97
729.156	42.89
729.472	42.35
729.787	41.95
730.103	41.88
730.419	41.6
730.734	42.49
731.05	43.19
731.365	43.17
731.681	43.19
731.996	43.28
732.311	42.64
732.626	43.21
732.942	42.71
733.257	42.31
733.572	42.43
733.887	42.69
734.202	42.71
734.517	42.61
734.832	42.68
735.146	41.98
735.461	41.97
735.776	44.08
736.091	44.44
736.405	42.59
736.72	42.02
737.034	41.16
737.349	42.89
737.663	43.01
737.977	43.67
738.292	40.78
738.606	43.69
738.92	41.7
739.234	43.67
739.548	43.36
739.862	43.14
740.176	42.69
740.49	42.56
740.804	43.08
741.117	43.26
741.431	42.12
741.745	42.33
742.058	43.27
742.372	42.19
742.685	43.87
742.999	42.46
743.312	42.46
743.626	44.04
743.939	44.78
744.252	43.76
744.565	43.24
744.878	41.87
745.191	43.22
745.505	43.21
745.817	42.2
746.13	42.86
746.443	42.73
746.756	42.49
747.069	44.89
747.381	43.52
747.694	43.21
748.007	44.06
748.319	43.27
748.632	42.58
748.944	43.13
749.256	43.67
749.569	42.39
749.881	44.08
750.193	43.99
750.505	44.73
750.817	44.06
751.129	44.98
751.441	45.28
751.753	43.14
752.065	43.6
752.377	43.03
752.689	41.98
753	43.48
753.312	43.59
753.624	43.89
753.935	43.98
754.247	43
754.558	43.48
754.869	44.72
755.181	44.78
755.492	44.29
755.803	45.1
756.114	44.01
756.425	44.15
756.736	43.88
757.047	45.82
757.358	43.96
757.669	45.62
757.98	45.4
758.291	43.38
758.601	44.51
758.912	43.64
759.223	42.84
759.533	42.87
759.844	45.1
760.154	46.17
760.464	44.52
760.775	45.76
761.085	42.86
761.395	45.16
761.705	44.94
762.016	45.65
762.326	45.6
762.636	46.39
762.945	44.74
763.255	44.69
763.565	45.75
763.875	45.44
764.185	44.05
764.494	44.73
764.804	45.38
765.113	44.92
765.423	44.85
765.732	44.17
766.042	44.68
766.351	45.76
766.66	44.32
766.97	46.32
767.279	44.78
767.588	43.61
767.897	44.13
768.206	46.31
768.515	45.12
768.824	44.57
769.133	44.4
769.441	44.49
769.75	44.53
770.059	45.12
770.367	44.77
770.676	43.9
770.984	43.94
771.293	44.68
771.601	44.75
771.91	44.81
772.218	43.55
772.526	43.88
772.834	42.36
773.142	43.37
773.45	45.64
773.758	45.11
774.066	45.84
774.374	45.02
774.682	48.44
774.99	45.18
775.298	41.05
775.605	45.8
775.913	45.38
776.22	46.76
776.528	44.39
776.835	46.94
777.143	45.39
777.45	45.04
777.757	43.94
778.065	45.22
778.372	46.29
778.679	45.96
778.986	46.45
779.293	44.2
779.6	47.82
779.907	44.55
780.214	45.18
780.52	44.23
780.827	43.66
781.134	44.95
781.44	46.39
781.747	43.71
782.053	45.68
782.36	44.61
782.666	44.16
782.973	45.29
783.279	44.96
783.585	43.98
783.891	47.01
784.197	48.42
784.503	43.64
784.809	50.68
785.115	46.07
785.421	48.58
785.727	44.66
786.033	43.87
786.339	42.93
786.644	44.2
786.95	42.49
787.255	43.95
787.561	42.45
787.866	42.88
788.172	44.09
788.477	42.48
788.782	39.63
789.088	42.95
789.393	48.53
789.698	46.47
790.003	49.48
790.308	43.62
790.613	44.81
790.918	42.53
791.223	44.73
791.527	47.69
791.832	45.14
792.137	48.5
792.441	46.09
792.746	47.22
793.05	44.95
793.355	46.41
793.659	47.42
793.963	41.02
794.268	44.42
794.572	44.56
794.876	42.96
795.18	42.35
795.484	48.76
795.788	44.04
796.092	47.53
796.396	42.07
796.7	39.13
797.004	47.96
797.307	48
797.611	48.05
797.915	43.3
798.218	45.64
798.522	42.51
798.825	47.21
799.128	47.33
799.432	44.28
799.735	42.79
800.038	43.13
800.341	41.82
800.644	42.87
800.947	45.6
801.25	43.78
801.553	45.89
801.856	46.67
802.159	44.62
802.462	42.26
802.764	48.49
803.067	42.54
803.37	48.77
803.672	42.58
803.975	41.78
804.277	46.69
804.579	51.01
804.882	44.49
805.184	44.06
805.486	47.63
805.788	49.53
806.09	42.34
806.392	43.81
806.694	42.29
806.996	51.04
807.298	44.59
807.6	49.07
807.902	41.52
808.203	46.7
808.505	42.22
808.807	48.83
809.108	49.77
809.409	44.36
809.711	41.68
810.012	47.4
810.313	42.93
810.615	45.98
810.916	45.84
811.217	48.49
811.518	44.85
811.819	46.14
812.12	51.86
812.421	44.53
812.722	48.02
813.023	50.53
813.323	39.47
813.624	48.41
813.925	46.23
814.225	45.64
814.526	34.87
814.826	42.04
815.126	45.38
815.427	44.14
815.727	47.87
816.027	48.04
816.327	45
816.627	45.85
816.927	43.5
817.227	42.73
817.527	44.35
817.827	48.54
818.127	41.49
818.427	46.31
818.727	44.07
819.026	44.12
819.326	43.23
819.625	45.95
819.925	46.92
820.224	52.65
820.524	38.92
820.823	46.45
821.122	43.96
821.421	45.05
821.72	45.31
822.019	40.35
822.318	46.29
822.617	49.78
822.916	43.41
823.215	47.11
823.514	49.04
823.813	48.42
824.111	48.53
824.41	48.79
824.709	48.78
825.007	48.71
825.306	49.86
825.604	49.37
825.902	49.86
826.201	48.77
826.499	48.84
826.797	48.97
827.095	50.19
827.393	49.65
827.691	50.18
827.989	49.2
828.287	49.99
828.585	50.65
828.882	47.19
829.18	49.49
829.478	51.24
829.775	50.03
830.073	49.06
830.37	47.68
830.668	48.13
830.965	49.67
831.263	51.04
831.56	49.77
831.857	52.74
832.154	49.43
832.451	46.96
832.748	47.38
833.045	49.27
833.342	44.74
833.639	47.9
833.936	46.78
834.232	43.44
834.529	49.71
834.826	53.02
835.122	47.85
835.419	50.94
835.715	43.68
836.012	49.73
836.308	51.96
836.604	48.33
836.901	47.35
837.197	47.52
837.493	50.72
837.789	51.03
838.085	49.74
838.381	50.73
838.677	48.46
838.972	50.31
839.268	47.26
839.564	41.41
839.86	44.64
840.155	48.09
840.451	43.22
840.746	47.7
841.042	37.48
841.337	39.56
841.632	47.44
841.928	47.2
842.223	51.4
842.518	51.42
842.813	38.89
843.108	49.6
843.403	48.31
843.698	37.25
843.993	62.72
844.287	48.28
844.582	46.36
844.877	51.93
845.171	53.14
845.466	38.19
845.761	40.63
846.055	39.27
846.349	52.34
846.644	43.61
846.938	39.4
847.232	56.1
847.526	48.05
847.82	35
848.114	48.65
848.408	38.79
848.702	51.19
848.996	45.4
849.29	49.59
849.584	42.25
849.877	48.39
850.171	35.14
850.465	46.56
850.758	25.19
851.052	35.08
851.345	40.15
851.638	25.18
851.932	34.33
852.225	56.37
852.518	36.19
852.811	30.08
853.104	31.38
853.397	45.33
853.69	43.91
853.983	36.11
854.276	41.85
854.569	25.76
854.861	30.5
855.154	48.67
855.447	28.5
855.739	32.5
856.032	32.24
856.324	50.47
856.616	45.96
856.909	23.95
857.201	32.54
857.493	31.4
857.785	22.38
858.077	53.53
858.369	47.49
858.661	43.71
858.953	32.84
859.245	26.62
859.537	52.69
859.829	38.67
860.12	21.25
860.412	49.72
860.703	75.82
860.995	58.1
861.286	28.79
861.578	47.16
861.869	23.11
862.16	38.92
862.452	11.84
862.743	23.4
863.034	38.4
863.325	56
863.616	47.23
863.907	50.76
864.198	12.43
864.488	47.66
864.779	33.66
865.07	39.22
865.36	51.91
865.651	41.01
865.941	37.71
866.232	49.8
866.522	18.74
866.813	35.59
867.103	21.88
867.393	62.37
867.683	48.41
867.973	63.87
868.263	29.14
868.553	20.1
868.843	41.44
869.133	36.06
869.423	29.07
869.713	29.63
870.002	34.87
870.292	44.72
870.582	49.3
870.871	61.4
871.161	21.35
871.45	52.34
871.739	43.93
872.029	46.25
872.318	29.95
872.607	48.32
872.896	50.8
873.185	32.98
873.474	52.21
873.763	40.9
874.052	45.56
874.341	31.07
874.63	23.66
874.918	65.92
875.207	45.84
875.496	57.71
875.784	12.44
876.073	53.05
876.361	33.5
876.649	39.17
876.938	36.9
877.226	40.5
877.514	56.05
877.802	33.9
878.09	32.84
878.378	33.7
878.666	59.03
878.954	56.75
879.242	34.61
879.53	23.69
879.817	20.46
880.105	45.47
880.392	38.71
880.68	57.42
880.967	49.05
881.255	49.82
881.542	34.99
881.83	37.5
882.117	59.35
882.404	19.49
882.691	48.18
882.978	44.48
883.265	55.51
883.552	29.45
883.839	52.74
884.126	45.1
884.413	44.38
884.699	51.1
884.986	51.57
885.273	52.03
885.559	52.03
885.846	52.03
