Data from 815646_crown_Reflection__2__69.txt Node

Date: Fri Sep 16 15:03:52 CDT 2022
User: ToomeyLab
Spectrometer: FLMS14357
Trigger mode: 0
Integration Time (sec): 1.000000E-2
Scans to average: 100
Electric dark correction enabled: true
Nonlinearity correction enabled: false
Boxcar width: 0
XAxis mode: Wavelengths
Number of Pixels in Spectrum: 2048
>>>>>Begin Spectral Data<<<<<
189.047	254.4
189.435	254.4
189.823	254.4
190.211	247.47
190.599	-65.57
190.987	49.68
191.375	218.15
191.763	-252.26
192.151	-241.22
192.538	-89.29
192.926	15.9
193.314	14.03
193.702	717.34
194.089	57.29
194.477	362.97
194.864	-170.36
195.252	-243.32
195.639	2524.52
196.027	117.84
196.414	15.68
196.801	27.41
197.189	370.39
197.576	-49.1
197.963	-817.48
198.351	-46.24
198.738	10.58
199.125	5.79
199.512	-131.32
199.899	25.77
200.286	-33.15
200.673	-35.57
201.06	-27.83
201.447	-4.12
201.833	-13.69
202.22	47.4
202.607	-10.39
202.994	26.71
203.38	8.87
203.767	-41.33
204.154	4.31
204.54	-32.29
204.927	-24.04
205.313	32.31
205.699	23.38
206.086	-14.14
206.472	-4.86
206.858	-11.24
207.245	52.9
207.631	-4.21
208.017	4.82
208.403	-14.53
208.789	-4.83
209.175	9.22
209.561	-24.29
209.947	-26.24
210.333	-8.39
210.719	-5.81
211.105	-1.91
211.491	1.3
211.876	15.5
212.262	22.85
212.648	-20.07
213.034	-8.32
213.419	-53.01
213.805	11.15
214.19	15.29
214.576	-29.86
214.961	3.46
215.346	-15.98
215.732	-64.61
216.117	-1.14
216.502	-17.72
216.888	-23.21
217.273	-30.38
217.658	-10.18
218.043	-58.25
218.428	25.13
218.813	-0.75
219.198	1.38
219.583	-20.74
219.968	-9.48
220.353	-1.77
220.738	-21.4
221.122	-15.98
221.507	15.6
221.892	-7.36
222.276	0.47
222.661	-5.04
223.046	5.55
223.43	9.39
223.815	-22.73
224.199	5.71
224.583	1.97
224.968	5.94
225.352	-3.72
225.736	4.33
226.121	-2.29
226.505	-2.09
226.889	4.09
227.273	3.93
227.657	8.14
228.041	-3
228.425	-5.94
228.809	6.63
229.193	2.65
229.577	1.91
229.961	1.97
230.344	3.57
230.728	2.79
231.112	2.02
231.495	2.1
231.879	3.5
232.263	-0.4
232.646	1.45
233.03	1.83
233.413	4.27
233.797	2.16
234.18	3.58
234.563	2.32
234.946	1.57
235.33	2.32
235.713	1.73
236.096	1.97
236.479	2.41
236.862	2.76
237.245	3.19
237.628	3.91
238.011	3.91
238.394	3.06
238.777	4.33
239.16	3.09
239.543	3.29
239.925	3.14
240.308	2.57
240.691	3.26
241.073	1.92
241.456	1.01
241.838	1.92
242.221	2.03
242.603	2.74
242.986	2.41
243.368	2.25
243.75	2.26
244.133	2.6
244.515	2.79
244.897	3.06
245.279	2.49
245.661	2.66
246.043	2.1
246.425	2.04
246.807	2.84
247.189	2.69
247.571	1.58
247.953	2.22
248.335	2.43
248.717	2.58
249.098	2.68
249.48	2.6
249.862	2.62
250.243	2.73
250.625	2.64
251.006	2.98
251.388	2.46
251.769	1.53
252.151	3.35
252.532	2.54
252.913	2.74
253.295	2.84
253.676	2.23
254.057	2.21
254.438	2
254.819	1.9
255.2	1.87
255.581	1.72
255.962	1.96
256.343	2.83
256.724	2.05
257.105	1.21
257.486	2.49
257.867	1.22
258.247	2.84
258.628	2.71
259.009	1.95
259.389	2.67
259.77	1.41
260.15	2.41
260.531	2.2
260.911	1.98
261.292	2.11
261.672	2.24
262.052	2.27
262.432	2.39
262.813	3.08
263.193	1.94
263.573	2.67
263.953	2.32
264.333	2.51
264.713	2.15
265.093	1.82
265.473	2.35
265.853	2.21
266.233	1.6
266.612	3.11
266.992	0.67
267.372	1.61
267.752	1.39
268.131	2.61
268.511	2.57
268.89	3.14
269.27	2.21
269.649	1.87
270.029	1.87
270.408	2.81
270.787	2.01
271.167	2.22
271.546	2.48
271.925	2.56
272.304	2.64
272.683	2.01
273.062	1.74
273.441	2.5
273.82	1.95
274.199	2.46
274.578	1.96
274.957	2.6
275.336	2.48
275.715	2.71
276.093	2.1
276.472	1.89
276.851	1.93
277.229	1.73
277.608	2.51
277.986	2
278.365	1.69
278.743	2.1
279.122	2.09
279.5	1.85
279.878	2.43
280.257	2.63
280.635	2.62
281.013	1.94
281.391	2.33
281.769	2.27
282.147	2.03
282.525	1.46
282.903	2.31
283.281	1.54
283.659	2.01
284.037	2.32
284.415	2.49
284.792	2.2
285.17	2.87
285.548	2.07
285.925	1.77
286.303	2.36
286.68	1.56
287.058	2
287.435	2.34
287.813	2.44
288.19	1.84
288.567	1.92
288.945	2
289.322	2.4
289.699	1.96
290.076	1.79
290.453	2.34
290.83	2.2
291.207	2.27
291.584	1.55
291.961	2.21
292.338	2.13
292.715	1.85
293.092	2.24
293.469	2.12
293.845	2.17
294.222	2.1
294.599	1.95
294.975	1.55
295.352	2.26
295.728	1.82
296.105	2.22
296.481	1.78
296.858	1.96
297.234	1.59
297.61	2.25
297.986	2.15
298.363	1.77
298.739	2.19
299.115	2.29
299.491	2.45
299.867	1.91
300.243	1.87
300.619	2.08
300.995	2.17
301.371	2.16
301.746	1.7
302.122	2.54
302.498	1.81
302.874	2.12
303.249	2.19
303.625	1.92
304	2.42
304.376	1.81
304.751	2.31
305.127	1.6
305.502	1.93
305.878	2.19
306.253	2.52
306.628	2.08
307.003	1.62
307.378	2.54
307.754	2.41
308.129	2.65
308.504	2.87
308.879	2.24
309.254	2.18
309.629	1.86
310.003	2.04
310.378	1.6
310.753	2.02
311.128	2.02
311.502	1.74
311.877	2.03
312.252	2.28
312.626	2.38
313.001	1.97
313.375	2.45
313.75	2.2
314.124	2.05
314.498	2.2
314.873	2.08
315.247	2.32
315.621	2.42
315.995	2.27
316.369	2.05
316.743	2.52
317.117	2.02
317.491	1.89
317.865	2.46
318.239	2.37
318.613	1.62
318.987	1.81
319.361	1.67
319.734	2.29
320.108	2.32
320.482	2.51
320.855	1.93
321.229	2.03
321.602	2.32
321.976	1.93
322.349	2.65
322.723	1.49
323.096	1.75
323.469	2.17
323.843	2.1
324.216	2.29
324.589	2.4
324.962	1.77
325.335	2.7
325.708	1.96
326.081	2.29
326.454	2.46
326.827	2.43
327.2	2.17
327.573	1.73
327.945	2.31
328.318	2.2
328.691	2.22
329.063	1.99
329.436	1.93
329.809	1.5
330.181	1.69
330.553	2.85
330.926	2.17
331.298	2.33
331.671	2.22
332.043	2.08
332.415	2.54
332.787	2.37
333.159	2.39
333.532	2.77
333.904	2.3
334.276	1.97
334.648	2.29
335.02	2.72
335.391	2.2
335.763	2.02
336.135	1.78
336.507	2.37
336.879	2.47
337.25	1.75
337.622	2.4
337.993	2.53
338.365	2.49
338.736	2.79
339.108	2.85
339.479	2.51
339.851	2.31
340.222	2.47
340.593	2.1
340.964	2.37
341.336	2.41
341.707	2.15
342.078	2.57
342.449	2.51
342.82	2.2
343.191	2.33
343.562	2.51
343.933	2.13
344.303	2.81
344.674	1.83
345.045	2.42
345.416	2.32
345.786	2.32
346.157	2.23
346.527	2.29
346.898	2.18
347.268	2.28
347.639	1.98
348.009	2.24
348.38	2.47
348.75	1.97
349.12	2.45
349.49	2.38
349.861	2.77
350.231	2.34
350.601	2.34
350.971	2.25
351.341	2.38
351.711	2.59
352.081	2.17
352.45	2.27
352.82	2.5
353.19	2.15
353.56	2.34
353.929	2.38
354.299	2.21
354.669	2.18
355.038	2.4
355.408	2.48
355.777	2.18
356.147	2.48
356.516	2.38
356.885	2.2
357.254	2.2
357.624	2.14
357.993	2.01
358.362	2.58
358.731	2.68
359.1	2.35
359.469	2.37
359.838	2.3
360.207	2.46
360.576	2.52
360.945	2.26
361.314	2.01
361.682	1.78
362.051	2.64
362.42	2.48
362.788	2.76
363.157	2.47
363.525	2.33
363.894	2.46
364.262	2.42
364.631	2.76
364.999	2.19
365.367	2.46
365.735	2.65
366.104	2.54
366.472	2.67
366.84	2.79
367.208	2.68
367.576	2.45
367.944	2.14
368.312	2.53
368.68	2.48
369.048	2.61
369.416	2.51
369.783	2.67
370.151	2.56
370.519	2.24
370.886	2.41
371.254	2.28
371.621	2.58
371.989	2.66
372.356	2.67
372.724	2.65
373.091	2.24
373.458	2.28
373.826	2.53
374.193	2.96
374.56	2.44
374.927	2.38
375.294	2.57
375.661	2.43
376.028	3.05
376.395	2.09
376.762	2.85
377.129	2.64
377.496	2.63
377.863	2.47
378.229	2.72
378.596	2.3
378.963	2.53
379.329	2.51
379.696	2.64
380.062	2.42
380.429	2.81
380.795	2.59
381.161	2.84
381.528	2.94
381.894	2.61
382.26	2.63
382.626	2.77
382.993	2.47
383.359	2.39
383.725	2.61
384.091	2.59
384.457	2.31
384.823	2.12
385.188	2.45
385.554	2.48
385.92	2.61
386.286	2.7
386.651	2.6
387.017	2.48
387.383	2.37
387.748	2.18
388.114	2.11
388.479	2.66
388.845	2.39
389.21	3.07
389.575	2.61
389.94	2.7
390.306	2.7
390.671	2.77
391.036	2.36
391.401	2.69
391.766	2.68
392.131	2.62
392.496	2.33
392.861	2.52
393.226	2.74
393.591	2.79
393.956	2.49
394.32	2.93
394.685	2.53
395.05	2.71
395.414	2.43
395.779	2.61
396.143	2.72
396.508	2.67
396.872	2.9
397.236	2.68
397.601	2.5
397.965	2.45
398.329	2.57
398.694	2.75
399.058	2.9
399.422	2.7
399.786	2.73
400.15	2.66
400.514	2.69
400.878	2.77
401.242	2.73
401.605	2.4
401.969	2.45
402.333	2.57
402.697	2.61
403.06	2.75
403.424	2.81
403.787	2.56
404.151	2.68
404.514	2.71
404.878	2.61
405.241	2.51
405.604	2.73
405.968	2.7
406.331	2.74
406.694	2.73
407.057	2.55
407.42	2.48
407.783	2.88
408.146	2.9
408.509	2.7
408.872	2.75
409.235	2.9
409.598	2.71
409.961	2.81
410.323	2.55
410.686	3.09
411.049	2.73
411.411	2.54
411.774	2.69
412.136	2.47
412.499	2.62
412.861	2.87
413.223	2.94
413.586	2.78
413.948	2.84
414.31	2.76
414.672	2.53
415.035	2.87
415.397	2.56
415.759	2.65
416.121	2.55
416.483	2.69
416.845	2.88
417.206	2.99
417.568	2.85
417.93	2.83
418.292	2.82
418.653	2.51
419.015	2.64
419.377	2.87
419.738	2.54
420.1	2.73
420.461	2.68
420.822	2.66
421.184	2.69
421.545	2.69
421.906	2.61
422.267	2.7
422.629	2.57
422.99	2.57
423.351	2.66
423.712	2.54
424.073	2.75
424.434	2.77
424.795	2.7
425.155	2.72
425.516	2.76
425.877	2.67
426.238	2.62
426.598	2.68
426.959	2.64
427.32	2.69
427.68	2.83
428.041	2.72
428.401	2.77
428.761	2.94
429.122	2.93
429.482	2.65
429.842	2.69
430.202	2.81
430.563	2.72
430.923	2.89
431.283	2.87
431.643	2.74
432.003	2.71
432.363	2.86
432.722	2.98
433.082	2.81
433.442	2.92
433.802	2.78
434.161	2.59
434.521	2.81
434.881	2.73
435.24	2.8
435.6	2.83
435.959	2.91
436.319	2.75
436.678	2.89
437.037	2.81
437.396	2.91
437.756	2.95
438.115	2.76
438.474	2.85
438.833	2.85
439.192	2.6
439.551	2.81
439.91	2.83
440.269	2.94
440.628	2.71
440.987	2.77
441.345	2.75
441.704	2.7
442.063	2.79
442.421	2.69
442.78	2.68
443.138	2.8
443.497	2.84
443.855	2.86
444.214	2.71
444.572	2.83
444.93	2.87
445.288	2.73
445.647	2.75
446.005	2.66
446.363	2.83
446.721	2.82
447.079	2.7
447.437	2.79
447.795	2.73
448.153	2.84
448.51	2.72
448.868	2.78
449.226	2.81
449.584	2.89
449.941	2.78
450.299	2.85
450.656	2.89
451.014	2.87
451.371	2.93
451.729	2.86
452.086	2.83
452.443	2.91
452.801	3.01
453.158	2.82
453.515	2.75
453.872	2.75
454.229	2.77
454.586	2.8
454.943	2.73
455.3	3.1
455.657	2.78
456.014	2.85
456.371	2.67
456.727	2.89
457.084	3.06
457.441	2.84
457.797	2.85
458.154	2.96
458.51	2.98
458.867	2.82
459.223	2.66
459.58	2.98
459.936	2.8
460.292	2.79
460.648	2.79
461.005	2.86
461.361	2.73
461.717	2.73
462.073	2.81
462.429	2.86
462.785	2.94
463.141	2.9
463.496	2.83
463.852	2.88
464.208	2.93
464.564	2.9
464.919	2.78
465.275	3.06
465.631	2.85
465.986	2.83
466.342	2.82
466.697	2.88
467.052	2.9
467.408	2.93
467.763	2.94
468.118	2.85
468.473	2.9
468.829	2.89
469.184	2.9
469.539	2.88
469.894	2.92
470.249	3.23
470.603	3.03
470.958	2.66
471.313	3.12
471.668	2.92
472.023	2.84
472.377	3.08
472.732	2.96
473.086	2.69
473.441	2.78
473.795	2.85
474.15	2.83
474.504	2.91
474.859	2.88
475.213	3.02
475.567	2.62
475.921	3.03
476.275	3.11
476.63	2.9
476.984	3.07
477.338	2.84
477.692	2.98
478.045	3.01
478.399	2.87
478.753	2.89
479.107	2.81
479.461	2.94
479.814	2.97
480.168	2.84
480.521	2.9
480.875	3.01
481.228	2.84
481.582	3.02
481.935	2.86
482.289	2.94
482.642	2.96
482.995	2.77
483.348	2.94
483.701	2.86
484.055	2.72
484.408	2.91
484.761	2.73
485.114	2.59
485.466	2.56
485.819	2.61
486.172	2.77
486.525	2.89
486.878	2.91
487.23	2.96
487.583	2.9
487.936	2.82
488.288	2.86
488.641	2.75
488.993	2.76
489.345	2.75
489.698	2.75
490.05	2.8
490.402	2.83
490.754	2.93
491.107	2.92
491.459	3.06
491.811	2.91
492.163	2.91
492.515	2.8
492.866	2.7
493.218	2.67
493.57	2.71
493.922	2.8
494.274	2.99
494.625	2.96
494.977	2.91
495.328	2.96
495.68	2.96
496.031	2.97
496.383	3.01
496.734	3
497.086	3.08
497.437	3.02
497.788	2.96
498.139	2.84
498.49	2.92
498.842	2.95
499.193	2.94
499.544	2.91
499.894	2.94
500.245	2.96
500.596	2.96
500.947	2.93
501.298	2.92
501.648	3.02
501.999	2.97
502.35	3
502.7	3.12
503.051	3.02
503.401	2.91
503.752	2.95
504.102	3.02
504.452	3.05
504.803	3.07
505.153	3.03
505.503	3.04
505.853	2.95
506.203	2.98
506.553	3.02
506.903	2.99
507.253	2.98
507.603	3.12
507.953	3.05
508.303	2.98
508.652	3.02
509.002	3.04
509.352	3
509.701	3.01
510.051	3.05
510.4	2.93
510.75	2.9
511.099	3.04
511.449	2.86
511.798	2.95
512.147	2.95
512.496	2.99
512.846	2.91
513.195	3
513.544	2.99
513.893	2.94
514.242	3
514.591	3.09
514.939	3.1
515.288	3.08
515.637	3.07
515.986	2.91
516.334	3.01
516.683	3.02
517.032	3.02
517.38	3.19
517.729	3.04
518.077	3.12
518.426	2.96
518.774	3
519.122	3.04
519.47	3.03
519.819	2.89
520.167	3.03
520.515	2.92
520.863	3.02
521.211	3.1
521.559	3.06
521.907	3.06
522.255	3.06
522.602	3.13
522.95	3.13
523.298	3.08
523.645	3.14
523.993	3.13
524.341	3.12
524.688	3.1
525.036	3.01
525.383	3.08
525.73	3.06
526.078	2.99
526.425	2.93
526.772	2.98
527.119	2.77
527.466	3.03
527.814	2.97
528.161	3
528.508	3.04
528.854	3.02
529.201	2.95
529.548	2.83
529.895	2.79
530.242	2.74
530.588	2.83
530.935	2.91
531.282	3.01
531.628	3.05
531.975	3.03
532.321	3.06
532.667	3.09
533.014	3.16
533.36	2.99
533.706	3.03
534.052	2.98
534.399	3
534.745	2.94
535.091	2.89
535.437	2.88
535.783	3.02
536.129	3.08
536.474	3.1
536.82	2.98
537.166	3.11
537.512	3.12
537.857	3.03
538.203	2.86
538.549	2.95
538.894	2.9
539.239	3.14
539.585	3.18
539.93	3.03
540.276	3.17
540.621	3.2
540.966	3.04
541.311	3.07
541.656	3.04
542.001	2.97
542.346	2.95
542.691	2.92
543.036	2.85
543.381	2.83
543.726	2.95
544.071	3.04
544.415	3.06
544.76	3.03
545.105	3.1
545.449	3.08
545.794	3.11
546.138	3.16
546.483	3.19
546.827	3.26
547.171	3.14
547.516	2.92
547.86	3.16
548.204	3.09
548.548	2.98
548.892	2.96
549.236	3.03
549.58	3.24
549.924	3.16
550.268	3.13
550.612	3.25
550.956	3.15
551.3	3.35
551.643	3.28
551.987	3.25
552.33	2.98
552.674	3
553.017	3.16
553.361	3.09
553.704	3.22
554.048	3.14
554.391	3.14
554.734	3.11
555.077	3.27
555.42	3.21
555.764	3.25
556.107	3.33
556.45	3.02
556.793	3.24
557.135	3.1
557.478	3.15
557.821	3.24
558.164	3.28
558.507	3.24
558.849	3.08
559.192	3.08
559.534	3.38
559.877	3.09
560.219	3.12
560.562	3.18
560.904	3.26
561.246	3.24
561.589	3.08
561.931	3.32
562.273	3.13
562.615	3.25
562.957	3.1
563.299	3.22
563.641	3.3
563.983	3.41
564.325	3.13
564.667	3.06
565.008	3.21
565.35	3.13
565.692	3.28
566.033	3.41
566.375	3.16
566.716	3.05
567.058	3.11
567.399	3.25
567.741	3.17
568.082	3.28
568.423	3.01
568.764	3.16
569.105	3.22
569.447	3.31
569.788	3.21
570.129	3.19
570.47	3.36
570.811	3.32
571.151	3.12
571.492	3.05
571.833	3.13
572.174	3.4
572.514	3.23
572.855	3.08
573.195	3.17
573.536	3.24
573.876	3.22
574.217	3.16
574.557	3.19
574.898	3.23
575.238	3.36
575.578	3.18
575.918	3.3
576.258	3.16
576.598	3.11
576.938	3.2
577.278	3.09
577.618	3.2
577.958	3.19
578.298	3.23
578.638	3.22
578.977	3.16
579.317	3.3
579.657	3.25
579.996	3.41
580.336	3.29
580.675	3.25
581.014	3.42
581.354	3.24
581.693	3.03
582.032	3.22
582.372	3.34
582.711	3.43
583.05	3.24
583.389	3.38
583.728	3.29
584.067	3.4
584.406	3.41
584.745	3.39
585.083	3.52
585.422	3.59
585.761	3.33
586.1	3.04
586.438	3.38
586.777	3.11
587.115	3.16
587.454	3.4
587.792	3.1
588.13	3.36
588.469	3.39
588.807	3.24
589.145	3.26
589.483	3.38
589.821	3.4
590.159	3.2
590.497	3.25
590.835	3.42
591.173	3.29
591.511	3.33
591.849	3.22
592.187	3.37
592.524	3.15
592.862	3.45
593.2	3
593.537	3.43
593.875	3.52
594.212	3.5
594.55	3.37
594.887	3.39
595.224	3.15
595.561	3.18
595.899	3.37
596.236	3.65
596.573	3.16
596.91	3.25
597.247	3.35
597.584	3.39
597.921	3.28
598.258	3.11
598.594	3.02
598.931	3.28
599.268	3.18
599.604	3.18
599.941	3.17
600.277	3.19
600.614	3.53
600.95	3.36
601.287	3.42
601.623	3.44
601.959	3.27
602.296	3.18
602.632	3.2
602.968	3.21
603.304	3.34
603.64	3.23
603.976	3.26
604.312	3.5
604.648	3.5
604.984	3.34
605.319	3.58
605.655	3.63
605.991	3.42
606.326	3.24
606.662	3.29
606.998	3.41
607.333	3.36
607.668	3.47
608.004	3.32
608.339	3.27
608.674	3.57
609.01	3.49
609.345	3.31
609.68	3.46
610.015	3.33
610.35	3.44
610.685	3.62
611.02	3.21
611.355	3.47
611.689	3.36
612.024	3.41
612.359	3.41
612.694	3.26
613.028	3.25
613.363	3.41
613.697	3.42
614.032	3.34
614.366	3.16
614.7	3.46
615.035	3.36
615.369	3.29
615.703	3.53
616.037	3.21
616.371	3.35
616.705	3.25
617.039	3.59
617.373	3.32
617.707	3.51
618.041	3.36
618.375	3.52
618.709	3.4
619.042	3.28
619.376	3.07
619.71	3.41
620.043	3.29
620.377	3.54
620.71	3.66
621.043	3.53
621.377	3.55
621.71	2.89
622.043	3.34
622.376	3.5
622.709	3.33
623.043	3.23
623.376	3.23
623.709	2.94
624.041	3.84
624.374	3.23
624.707	3.53
625.04	3.53
625.373	3.17
625.705	3.61
626.038	3.65
626.37	3.46
626.703	3.2
627.035	3.33
627.368	3.74
627.7	3.58
628.032	3.25
628.365	3.47
628.697	3.51
629.029	3.49
629.361	3.29
629.693	3.4
630.025	3.48
630.357	3.49
630.689	3.24
631.021	3.44
631.353	3.51
631.684	3.39
632.016	3.52
632.348	3.41
632.679	3.31
633.011	3.54
633.342	3.22
633.674	3.72
634.005	3.64
634.336	3.53
634.668	3.35
634.999	3.31
635.33	3.5
635.661	3.58
635.992	3.3
636.323	3.37
636.654	3.42
636.985	3.65
637.316	3.5
637.647	3.73
637.977	3.31
638.308	3.6
638.639	3.43
638.969	3.55
639.3	3.72
639.63	3.17
639.961	3.71
640.291	3.8
640.622	2.89
640.952	3.61
641.282	3.48
641.612	3.47
641.943	3.32
642.273	3.2
642.603	3.77
642.933	3.47
643.263	3.16
643.592	3.3
643.922	2.93
644.252	3.58
644.582	3.48
644.911	3.39
645.241	3.59
645.571	3.64
645.9	3.58
646.23	3.33
646.559	2.83
646.888	3.51
647.218	3.5
647.547	3.71
647.876	4.08
648.205	3.57
648.534	3.26
648.863	3.47
649.192	3.65
649.521	3.72
649.85	3.76
650.179	3.61
650.508	3.5
650.837	3.2
651.165	3.66
651.494	3.75
651.822	3.38
652.151	3.66
652.479	3.62
652.808	3.48
653.136	3.44
653.465	3.55
653.793	3.44
654.121	3.58
654.449	3.52
654.777	3.74
655.105	3.77
655.433	3.28
655.761	3.55
656.089	3.61
656.417	3.64
656.745	3.41
657.073	3.77
657.4	3.11
657.728	4.12
658.056	3.1
658.383	3.8
658.711	3.72
659.038	3.2
659.365	3.73
659.693	3.32
660.02	3.5
660.347	3.68
660.674	3.31
661.001	3.6
661.329	3.3
661.656	3.74
661.982	3.83
662.309	3.62
662.636	3.46
662.963	3.58
663.29	3.48
663.616	3.69
663.943	3.57
664.27	3.05
664.596	3.67
664.923	3.54
665.249	3.93
665.576	3.37
665.902	3.72
666.228	2.75
666.554	4.48
666.881	3.98
667.207	3.59
667.533	3.92
667.859	3.95
668.185	3.46
668.511	3.48
668.837	3.39
669.162	4.18
669.488	4.17
669.814	4.04
670.139	3.18
670.465	3.6
670.791	3.51
671.116	3.61
671.442	3.9
671.767	3.44
672.092	3.17
672.418	3.65
672.743	3.54
673.068	4.06
673.393	3.12
673.718	3.93
674.043	2.71
674.368	3.72
674.693	4.48
675.018	3.71
675.343	3.9
675.667	3.58
675.992	3.85
676.317	3.31
676.641	2.53
676.966	3.62
677.29	4.08
677.615	3.95
677.939	3.23
678.264	3.57
678.588	3.92
678.912	2.9
679.236	3.15
679.56	4.22
679.885	3.66
680.209	3.35
680.532	3.73
680.856	3.84
681.18	3.3
681.504	3.43
681.828	3.9
682.152	3.5
682.475	4.06
682.799	3.55
683.122	3.27
683.446	3.88
683.769	3.67
684.093	3.77
684.416	3.41
684.739	2.97
685.062	4.15
685.386	3.59
685.709	3.46
686.032	4.56
686.355	3.71
686.678	4.48
687.001	3.48
687.324	3.88
687.646	4.79
687.969	3.75
688.292	3.86
688.614	3.78
688.937	3.95
689.26	4.1
689.582	4.12
689.904	3.61
690.227	3.89
690.549	4.34
690.871	3.82
691.194	3.92
691.516	3.7
691.838	4.2
692.16	4.11
692.482	3.37
692.804	4.02
693.126	4.01
693.448	3.94
693.769	3.16
694.091	3.72
694.413	4.44
694.735	4.36
695.056	4.04
695.378	3.77
695.699	3.83
696.021	4.59
696.342	4.19
696.663	3.32
696.984	3.02
697.306	3.22
697.627	3.95
697.948	3.54
698.269	3.53
698.59	3.91
698.911	4.19
699.232	3.52
699.553	3.4
699.873	3.87
700.194	4.03
700.515	3.58
700.835	3.97
701.156	3.8
701.477	4.29
701.797	3.89
702.117	3.82
702.438	3.16
702.758	3.44
703.078	3.57
703.398	4.17
703.719	4.18
704.039	3.44
704.359	4.51
704.679	3.65
704.999	3.01
705.319	3.78
705.638	2.97
705.958	3.88
706.278	4.06
706.597	4.72
706.917	3.71
707.237	4.48
707.556	3.32
707.876	3.41
708.195	4.75
708.514	4.51
708.834	4.56
709.153	3.97
709.472	3.68
709.791	2.96
710.11	4.46
710.429	3.35
710.748	4.01
711.067	5.04
711.386	3.97
711.705	3.09
712.023	4.24
712.342	3.74
712.661	4.33
712.979	4.62
713.298	3.48
713.616	4.8
713.935	4.36
714.253	3.79
714.572	3.71
714.89	4.48
715.208	4.46
715.526	4.58
715.844	4.52
716.162	4.97
716.48	3.1
716.798	3.55
717.116	4.27
717.434	4.47
717.752	4.85
718.069	3.71
718.387	4.07
718.705	4.63
719.022	3.78
719.34	3.9
719.657	4.02
719.975	3.16
720.292	4.32
720.609	4.43
720.927	4.08
721.244	2.86
721.561	3.3
721.878	3.13
722.195	2.76
722.512	4.27
722.829	4.33
723.146	3.64
723.463	4.43
723.779	3.22
724.096	3.65
724.413	3.84
724.729	2.87
725.046	4.03
725.362	5.17
725.679	4.1
725.995	3.48
726.311	2.6
726.628	3.58
726.944	4.48
727.26	4.21
727.576	4.21
727.892	3.61
728.208	2.7
728.524	3.92
728.84	4.2
729.156	3.69
729.472	4.49
729.787	3.94
730.103	2.78
730.419	3.97
730.734	4.09
731.05	4.66
731.365	5.3
731.681	3.39
731.996	4.61
732.311	3.81
732.626	3.88
732.942	3.89
733.257	5.24
733.572	3.23
733.887	3.79
734.202	4.7
734.517	3.72
734.832	3.06
735.146	4.92
735.461	4.09
735.776	4.52
736.091	3.39
736.405	4.37
736.72	4.17
737.034	5.41
737.349	4.2
737.663	4.81
737.977	3.8
738.292	4.72
738.606	4.13
738.92	4.35
739.234	5.08
739.548	3.38
739.862	3.91
740.176	3.38
740.49	4.46
740.804	4.57
741.117	2.12
741.431	5.39
741.745	6.05
742.058	4.13
742.372	3.72
742.685	2.84
742.999	3.25
743.312	4.58
743.626	5.36
743.939	3.72
744.252	5.45
744.565	4.53
744.878	2.79
745.191	3.8
745.505	3.25
745.817	3.27
746.13	3.77
746.443	3.24
746.756	5.2
747.069	3.45
747.381	3.02
747.694	3.52
748.007	5.99
748.319	4.86
748.632	4.08
748.944	2.82
749.256	3.32
749.569	3.34
749.881	4.18
750.193	3.35
750.505	5.39
750.817	4.79
751.129	2.52
751.441	3.94
751.753	4.78
752.065	2.92
752.377	3.41
752.689	3.81
753	4.19
753.312	3.89
753.624	4.37
753.935	3.11
754.247	4.23
754.558	5.35
754.869	6.63
755.181	3.23
755.492	4.52
755.803	5.02
756.114	4.98
756.425	4.17
756.736	4.57
757.047	4.23
757.358	2.71
757.669	5.21
757.98	4.84
758.291	5.32
758.601	5.01
758.912	5.55
759.223	5.43
759.533	6.44
759.844	4.5
760.154	4.71
760.464	5.69
760.775	3.6
761.085	4.65
761.395	4.93
761.705	4.79
762.016	3.54
762.326	4.85
762.636	3.95
762.945	2.74
763.255	6.41
763.565	4.18
763.875	5.15
764.185	3.12
764.494	5.68
764.804	6.19
765.113	3.7
765.423	3.99
765.732	4.24
766.042	4.86
766.351	5.37
766.66	3.95
766.97	5.46
767.279	4.94
767.588	4.37
767.897	3.7
768.206	3.74
768.515	4.32
768.824	5.66
769.133	4.53
769.441	5.76
769.75	6.66
770.059	5.68
770.367	5.51
770.676	7.55
770.984	4.5
771.293	5.84
771.601	3.84
771.91	7.49
772.218	6.53
772.526	4.87
772.834	6.32
773.142	5.22
773.45	2.65
773.758	4.11
774.066	2.55
774.374	4.54
774.682	8.13
774.99	5.43
775.298	3.55
775.605	2.91
775.913	2.63
776.22	6.2
776.528	7.91
776.835	6.32
777.143	2.48
777.45	2.22
777.757	5.66
778.065	4.36
778.372	4.36
778.679	5.51
778.986	1.9
779.293	6.15
779.6	5.03
779.907	3.64
780.214	7.19
780.52	3.58
780.827	3.16
781.134	7.47
781.44	5.85
781.747	6.16
782.053	2.55
782.36	7.43
782.666	2.09
782.973	-0.19
783.279	3.93
783.585	4.43
783.891	3.69
784.197	7.13
784.503	6.27
784.809	7.6
785.115	0.72
785.421	2.8
785.727	6.79
786.033	2.89
786.339	3.2
786.644	2.77
786.95	3.03
787.255	1.6
787.561	2.99
787.866	6.13
788.172	2.99
788.477	1.77
788.782	7.42
789.088	4.96
789.393	2.73
789.698	2.84
790.003	7.89
790.308	5.68
790.613	4.41
790.918	3.02
791.223	3.86
791.527	4.05
791.832	5.92
792.137	-2.97
792.441	9.03
792.746	1.06
793.05	1.12
793.355	4.06
793.659	7.41
793.963	5.05
794.268	4.81
794.572	1.85
794.876	3.51
795.18	5.26
795.484	5.05
795.788	6.11
796.092	5.2
796.396	4.34
796.7	8.14
797.004	6.32
797.307	4.39
797.611	5.5
797.915	3.42
798.218	4.58
798.522	1.54
798.825	5.5
799.128	1.4
799.432	4.51
799.735	7.35
800.038	6.74
800.341	1.9
800.644	5.95
800.947	6.96
801.25	2.45
801.553	9.16
801.856	3.45
802.159	5.33
802.462	7.22
802.764	2.04
803.067	-0.16
803.37	3.54
803.672	8.31
803.975	6.12
804.277	1.38
804.579	3.81
804.882	8.3
805.184	7.44
805.486	5.57
805.788	5.6
806.09	1.62
806.392	4.15
806.694	6.91
806.996	4.48
807.298	4.24
807.6	3.76
807.902	5.54
808.203	6.9
808.505	3.03
808.807	5.67
809.108	7.76
809.409	2.43
809.711	8.41
810.012	0.15
810.313	8.82
810.615	2.59
810.916	3.97
811.217	5.16
811.518	2.61
811.819	7.6
812.12	4.7
812.421	1.87
812.722	4.67
813.023	5.74
813.323	4.29
813.624	7.49
813.925	4.46
814.225	6.45
814.526	4.68
814.826	3.87
815.126	3.41
815.427	3.78
815.727	7.07
816.027	10.52
816.327	8.51
816.627	3.15
816.927	3.87
817.227	5.19
817.527	2.49
817.827	2.43
818.127	11.12
818.427	4.7
818.727	3.76
819.026	6.78
819.326	9.59
819.625	1.6
819.925	1.11
820.224	5.91
820.524	10.48
820.823	9.51
821.122	5.97
821.421	9.67
821.72	5.8
822.019	6.64
822.318	10.47
822.617	4.44
822.916	3.3
823.215	0.23
823.514	7.45
823.813	8.44
824.111	7.59
824.41	7.54
824.709	6.01
825.007	5.97
825.306	7.42
825.604	6.44
825.902	6.67
826.201	7.05
826.499	7.69
826.797	7.23
827.095	5.95
827.393	7.54
827.691	5.26
827.989	9.17
828.287	8.41
828.585	6.02
828.882	5.6
829.18	4.11
829.478	7.07
829.775	8.42
830.073	7.21
830.37	6.93
830.668	5.73
830.965	6.53
831.263	5.8
831.56	4.37
831.857	9.05
832.154	3.66
832.451	6.99
832.748	5.51
833.045	-2.16
833.342	6.05
833.639	5.5
833.936	3.57
834.232	9.83
834.529	2.22
834.826	6.48
835.122	4.43
835.419	7.51
835.715	3.9
836.012	5.13
836.308	3.35
836.604	3.67
836.901	5.2
837.197	3.83
837.493	5.62
837.789	7.86
838.085	3.69
838.381	5.86
838.677	3.87
838.972	7.95
839.268	7.78
839.564	11.05
839.86	10.18
840.155	5.71
840.451	5.04
840.746	5.29
841.042	1.07
841.337	7.75
841.632	8.45
841.928	8.95
842.223	9.05
842.518	7.68
842.813	4.86
843.108	5.55
843.403	8.91
843.698	-0.03
843.993	0.96
844.287	2.4
844.582	-3.53
844.877	10.09
845.171	7.33
845.466	-6.3
845.761	13.1
846.055	12.23
846.349	1.69
846.644	2.62
846.938	-7.45
847.232	2.89
847.526	25.61
847.82	8.79
848.114	8.36
848.408	1.87
848.702	-27.24
848.996	-1.69
849.29	0.92
849.584	9.54
849.877	0.56
850.171	-5.52
850.465	19.53
850.758	-1.39
851.052	-1.48
851.345	-21.61
851.638	-9.79
851.932	-13.25
852.225	-2.26
852.518	15.76
852.811	-13.21
853.104	9.01
853.397	-16.61
853.69	-10.1
853.983	-17.29
854.276	-5.72
854.569	-3.13
854.861	-6.37
855.154	-17.84
855.447	1.9
855.739	2.65
856.032	8.45
856.324	28.38
856.616	-16.18
856.909	13.8
857.201	10.27
857.493	-4.48
857.785	-1.38
858.077	-33.87
858.369	1.03
858.661	25.12
858.953	-19.4
859.245	3.74
859.537	3.13
859.829	-4.98
860.12	8.05
860.412	-12.85
860.703	-5.91
860.995	18.54
861.286	10.05
861.578	0.9
861.869	9.22
862.16	-6.35
862.452	20.15
862.743	5.25
863.034	21.8
863.325	-2.19
863.616	-6.89
863.907	2.64
864.198	15.57
864.488	-1.06
864.779	12.01
865.07	-12.28
865.36	6.98
865.651	9.39
865.941	8.16
866.232	-4.12
866.522	-17.66
866.813	7.46
867.103	3.56
867.393	8.59
867.683	-6.72
867.973	-2.7
868.263	-3.51
868.553	7.95
868.843	-1.25
869.133	9.37
869.423	14.61
869.713	-7.07
870.002	-17.8
870.292	-13.48
870.582	4.24
870.871	1.55
871.161	5.24
871.45	-14.02
871.739	14.03
872.029	5.68
872.318	13.83
872.607	-12.19
872.896	-15.81
873.185	-20.34
873.474	-18.29
873.763	-8.48
874.052	-24.38
874.341	11.84
874.63	-31.47
874.918	-23.91
875.207	3.31
875.496	-6.77
875.784	-0.03
876.073	-26.99
876.361	0.35
876.649	-28.94
876.938	-5.44
877.226	23.08
877.514	0.32
877.802	-86.36
878.09	4.95
878.378	13.28
878.666	-10.45
878.954	10.93
879.242	-10.89
879.53	-6.93
879.817	17.31
880.105	12.48
880.392	-15.43
880.68	-6.18
880.967	11.41
881.255	9.81
881.542	37.44
881.83	-19.77
882.117	11.04
882.404	-11.87
882.691	-7.69
882.978	18.03
883.265	-0.03
883.552	1.56
883.839	-9.04
884.126	-9.15
884.413	5.95
884.699	10.57
884.986	6.12
885.273	13.37
885.559	13.37
885.846	13.37
