Data from 0034_crown_Reflection__0__187.txt Node

Date: Thu Oct 20 22:23:11 CDT 2022
User: ToomeyLab
Spectrometer: FLMS14357
Trigger mode: 0
Integration Time (sec): 1.000000E-2
Scans to average: 100
Electric dark correction enabled: true
Nonlinearity correction enabled: false
Boxcar width: 0
XAxis mode: Wavelengths
Number of Pixels in Spectrum: 2048
>>>>>Begin Spectral Data<<<<<
189.047	-525.32
189.435	-525.32
189.823	-525.32
190.211	-6.7
190.599	112.49
190.987	-291.36
191.375	212.12
191.763	136.25
192.151	103.12
192.538	-157.8
192.926	29.34
193.314	-362.06
193.702	-34.37
194.089	99.58
194.477	-207.95
194.864	-131.72
195.252	-34.4
195.639	45.76
196.027	5.25
196.414	141.25
196.801	450.79
197.189	308.85
197.576	29.81
197.963	134.11
198.351	29.16
198.738	-5.6
199.125	-40.99
199.512	-34
199.899	-70.01
200.286	-35.62
200.673	-18.86
201.06	13.65
201.447	34.24
201.833	-35.88
202.22	9.79
202.607	26.34
202.994	14.22
203.38	36.87
203.767	10.42
204.154	1.3
204.54	-15.02
204.927	14.77
205.313	5.12
205.699	17.79
206.086	-29.17
206.472	0.35
206.858	-48.43
207.245	30.66
207.631	-71.17
208.017	-2.85
208.403	-101.86
208.789	-6.81
209.175	3.61
209.561	12.89
209.947	36.52
210.333	10.94
210.719	-7.58
211.105	56.53
211.491	-56.81
211.876	-10.9
212.262	-9.92
212.648	-24.64
213.034	13.27
213.419	10.66
213.805	-26.46
214.19	-10.53
214.576	-29.93
214.961	-8.89
215.346	-16.96
215.732	-3.2
216.117	-22.29
216.502	-20.5
216.888	-66.42
217.273	-6.56
217.658	0.35
218.043	10.84
218.428	4
218.813	1.98
219.198	-5.69
219.583	-1.97
219.968	20
220.353	-4.97
220.738	26.3
221.122	14.89
221.507	-5.05
221.892	6.66
222.276	-6.18
222.661	-5.44
223.046	7.57
223.43	2.69
223.815	-5.15
224.199	7.7
224.583	1.4
224.968	-0.16
225.352	9.99
225.736	4.83
226.121	7.31
226.505	5.99
226.889	4.88
227.273	0.01
227.657	8.67
228.041	2.86
228.425	10.42
228.809	11.44
229.193	9.03
229.577	7.84
229.961	9.38
230.344	9.46
230.728	9.72
231.112	9.72
231.495	8.87
231.879	11.15
232.263	9.21
232.646	9.13
233.03	7.44
233.413	6.84
233.797	7.01
234.18	7.29
234.563	9.63
234.946	9.87
235.33	9.44
235.713	9.08
236.096	8.74
236.479	10.05
236.862	9.93
237.245	9.79
237.628	7.46
238.011	9.06
238.394	10.52
238.777	9.72
239.16	9.49
239.543	6.72
239.925	7.51
240.308	8.46
240.691	10.93
241.073	8.05
241.456	9.42
241.838	7.64
242.221	8.98
242.603	8.88
242.986	9.01
243.368	9.23
243.75	9.17
244.133	9.08
244.515	8.88
244.897	8.6
245.279	7.88
245.661	9.46
246.043	9.19
246.425	8.48
246.807	8.81
247.189	8.68
247.571	9.45
247.953	8.77
248.335	8.75
248.717	8.52
249.098	8.53
249.48	8.55
249.862	8.87
250.243	7.99
250.625	8.81
251.006	8.24
251.388	8.11
251.769	7.52
252.151	7.86
252.532	8.01
252.913	8.53
253.295	8.58
253.676	8.39
254.057	7.3
254.438	8.45
254.819	7.49
255.2	8.54
255.581	7.61
255.962	7.84
256.343	7.01
256.724	6.6
257.105	7.77
257.486	8.01
257.867	8.37
258.247	9.08
258.628	9.2
259.009	7.77
259.389	8.08
259.77	7.78
260.15	8.3
260.531	8.07
260.911	8.05
261.292	8.26
261.672	7.85
262.052	7.82
262.432	7.64
262.813	7.24
263.193	8.36
263.573	7.84
263.953	7.7
264.333	7.7
264.713	7.59
265.093	7.26
265.473	7.4
265.853	7.74
266.233	7.09
266.612	8.24
266.992	6.49
267.372	7.74
267.752	7.64
268.131	7.66
268.511	7.71
268.89	7.27
269.27	7.85
269.649	6.87
270.029	6.42
270.408	7.37
270.787	7.31
271.167	7.44
271.546	7.24
271.925	7.6
272.304	7.64
272.683	7.1
273.062	7.42
273.441	7.31
273.82	7.72
274.199	6.9
274.578	6.81
274.957	7
275.336	7.1
275.715	6.91
276.093	7.56
276.472	7.96
276.851	7.66
277.229	7.25
277.608	6.62
277.986	7.13
278.365	6.58
278.743	6.58
279.122	6.96
279.5	6.9
279.878	7.74
280.257	7.1
280.635	6.96
281.013	6.74
281.391	6.64
281.769	7.26
282.147	6.32
282.525	6.31
282.903	6.9
283.281	6.73
283.659	6.82
284.037	6.32
284.415	6.4
284.792	6.3
285.17	7.31
285.548	6.24
285.925	6.58
286.303	6.4
286.68	7.18
287.058	6.68
287.435	7.01
287.813	6.7
288.19	6.26
288.567	6.27
288.945	6.79
289.322	6.64
289.699	6.32
290.076	6.34
290.453	5.93
290.83	6.68
291.207	6.44
291.584	5.77
291.961	6.49
292.338	6
292.715	6.47
293.092	6.19
293.469	5.98
293.845	6.05
294.222	6.63
294.599	6.87
294.975	6.27
295.352	6.51
295.728	5.92
296.105	6.14
296.481	6.02
296.858	5.93
297.234	6.42
297.61	6.03
297.986	5.84
298.363	5.73
298.739	6.23
299.115	5.94
299.491	5.9
299.867	5.81
300.243	5.97
300.619	5.98
300.995	5.63
301.371	6.09
301.746	5.95
302.122	6.03
302.498	6.14
302.874	6.45
303.249	6.36
303.625	5.72
304	6.22
304.376	5.95
304.751	5.86
305.127	5.28
305.502	6.17
305.878	6.07
306.253	5.43
306.628	5.66
307.003	5.33
307.378	5.21
307.754	6.37
308.129	5.79
308.504	5.66
308.879	5.53
309.254	5.89
309.629	5.32
310.003	5.53
310.378	5.55
310.753	5.76
311.128	5.52
311.502	5.34
311.877	5.61
312.252	5.13
312.626	5.14
313.001	5.93
313.375	5.85
313.75	5.22
314.124	5.27
314.498	5.4
314.873	5.33
315.247	5.76
315.621	5.19
315.995	5.32
316.369	5.76
316.743	5.16
317.117	5.52
317.491	5.86
317.865	5.23
318.239	5.27
318.613	5.94
318.987	4.9
319.361	5.39
319.734	4.7
320.108	5.68
320.482	5.51
320.855	5.28
321.229	5.43
321.602	4.98
321.976	5.47
322.349	5.21
322.723	5.32
323.096	4.95
323.469	5.41
323.843	5.53
324.216	5.78
324.589	5.49
324.962	5.33
325.335	5.46
325.708	5.69
326.081	5.61
326.454	4.93
326.827	5.1
327.2	5.47
327.573	5.7
327.945	5.29
328.318	4.68
328.691	5.38
329.063	5.26
329.436	5.05
329.809	5.4
330.181	4.97
330.553	4.86
330.926	5.18
331.298	5.19
331.671	5.56
332.043	5.84
332.415	5.8
332.787	5.61
333.159	5.68
333.532	5.43
333.904	5.19
334.276	5.33
334.648	5.16
335.02	5.6
335.391	5.47
335.763	5.23
336.135	5.53
336.507	4.66
336.879	6
337.25	5.28
337.622	5.57
337.993	5.1
338.365	5.28
338.736	5.17
339.108	5.51
339.479	5.67
339.851	5.18
340.222	5.16
340.593	5.25
340.964	5.76
341.336	5.15
341.707	5.05
342.078	5.12
342.449	5.3
342.82	5.48
343.191	4.95
343.562	5.31
343.933	5.41
344.303	5.23
344.674	5.64
345.045	5.81
345.416	5.42
345.786	5.41
346.157	5.27
346.527	5.53
346.898	5.41
347.268	5.33
347.639	5.42
348.009	5.45
348.38	5.5
348.75	4.57
349.12	5.52
349.49	5.69
349.861	5.71
350.231	5.28
350.601	5.37
350.971	5.39
351.341	5.82
351.711	5.72
352.081	5.36
352.45	5.55
352.82	5.57
353.19	5.66
353.56	5.88
353.929	5.48
354.299	5.53
354.669	5.51
355.038	5.53
355.408	5.48
355.777	5.71
356.147	5.8
356.516	5.56
356.885	5.48
357.254	5.65
357.624	5.43
357.993	5.4
358.362	5.72
358.731	5.99
359.1	5.32
359.469	5.63
359.838	5.7
360.207	6.07
360.576	5.58
360.945	6
361.314	5.58
361.682	5.96
362.051	5.68
362.42	5.74
362.788	5.71
363.157	5.57
363.525	5.66
363.894	5.68
364.262	5.46
364.631	5.53
364.999	5.89
365.367	5.95
365.735	5.68
366.104	5.48
366.472	5.65
366.84	6.06
367.208	5.56
367.576	5.43
367.944	6.15
368.312	5.47
368.68	6.02
369.048	5.67
369.416	5.71
369.783	5.82
370.151	6.24
370.519	6.16
370.886	5.62
371.254	5.77
371.621	5.48
371.989	5.93
372.356	5.48
372.724	6.12
373.091	5.92
373.458	5.61
373.826	6
374.193	5.91
374.56	5.43
374.927	5.84
375.294	5.75
375.661	6.15
376.028	5.48
376.395	6.22
376.762	5.92
377.129	5.84
377.496	5.99
377.863	6.11
378.229	5.98
378.596	6.03
378.963	6.21
379.329	6.12
379.696	5.83
380.062	5.96
380.429	6.45
380.795	6.18
381.161	6.27
381.528	6.25
381.894	5.96
382.26	6.06
382.626	6.26
382.993	5.95
383.359	6.06
383.725	6.11
384.091	6.17
384.457	5.93
384.823	6.12
385.188	6.17
385.554	5.62
385.92	5.93
386.286	6.18
386.651	5.91
387.017	6.32
387.383	6.15
387.748	6.3
388.114	6.19
388.479	6.07
388.845	6.3
389.21	6.39
389.575	6.21
389.94	6.3
390.306	6.5
390.671	6.37
391.036	6.21
391.401	6.34
391.766	6.44
392.131	6.25
392.496	5.84
392.861	6.05
393.226	6.32
393.591	6.29
393.956	6.34
394.32	6.38
394.685	6.7
395.05	6.3
395.414	6.36
395.779	6.3
396.143	6.46
396.508	6.35
396.872	6.57
397.236	6.15
397.601	6.69
397.965	6.32
398.329	6.24
398.694	6.62
399.058	6.22
399.422	6.58
399.786	6.33
400.15	6.41
400.514	6.59
400.878	6.29
401.242	6.37
401.605	6.64
401.969	6.24
402.333	6.23
402.697	6.49
403.06	6.27
403.424	6.55
403.787	6.46
404.151	6.24
404.514	6.27
404.878	6.47
405.241	6.42
405.604	6.54
405.968	6.52
406.331	6.46
406.694	6.39
407.057	6.37
407.42	6.58
407.783	6.47
408.146	6.41
408.509	6.49
408.872	6.51
409.235	6.34
409.598	6.4
409.961	6.52
410.323	6.67
410.686	6.5
411.049	6.35
411.411	6.49
411.774	6.46
412.136	6.6
412.499	6.63
412.861	6.54
413.223	6.24
413.586	6.47
413.948	6.45
414.31	6.4
414.672	6.47
415.035	6.73
415.397	6.6
415.759	6.61
416.121	6.65
416.483	6.42
416.845	6.63
417.206	6.49
417.568	6.54
417.93	6.58
418.292	6.63
418.653	6.65
419.015	6.61
419.377	6.63
419.738	6.54
420.1	6.55
420.461	6.69
420.822	6.45
421.184	6.42
421.545	6.45
421.906	6.42
422.267	6.51
422.629	6.43
422.99	6.51
423.351	6.53
423.712	6.38
424.073	6.47
424.434	6.56
424.795	6.47
425.155	6.52
425.516	6.59
425.877	6.54
426.238	6.6
426.598	6.6
426.959	6.48
427.32	6.49
427.68	6.52
428.041	6.52
428.401	6.52
428.761	6.6
429.122	6.55
429.482	6.53
429.842	6.72
430.202	6.76
430.563	6.61
430.923	6.78
431.283	6.67
431.643	6.62
432.003	6.55
432.363	6.88
432.722	6.86
433.082	6.68
433.442	6.57
433.802	6.67
434.161	6.65
434.521	6.58
434.881	6.6
435.24	6.5
435.6	6.73
435.959	6.65
436.319	6.69
436.678	6.58
437.037	6.75
437.396	6.82
437.756	6.69
438.115	6.56
438.474	6.7
438.833	6.56
439.192	6.71
439.551	6.68
439.91	6.66
440.269	6.62
440.628	6.61
440.987	6.59
441.345	6.69
441.704	6.58
442.063	6.85
442.421	6.56
442.78	6.64
443.138	6.68
443.497	6.63
443.855	6.61
444.214	6.69
444.572	6.73
444.93	6.64
445.288	6.71
445.647	6.77
446.005	6.7
446.363	6.6
446.721	6.67
447.079	6.69
447.437	6.59
447.795	6.6
448.153	6.55
448.51	6.63
448.868	6.69
449.226	6.65
449.584	6.63
449.941	6.77
450.299	6.68
450.656	6.64
451.014	6.79
451.371	6.78
451.729	6.69
452.086	6.9
452.443	6.67
452.801	6.84
453.158	6.99
453.515	6.88
453.872	6.68
454.229	6.68
454.586	6.78
454.943	6.7
455.3	6.78
455.657	6.82
456.014	6.77
456.371	6.67
456.727	6.77
457.084	6.56
457.441	6.72
457.797	6.8
458.154	6.81
458.51	6.62
458.867	6.95
459.223	7
459.58	6.75
459.936	6.86
460.292	6.81
460.648	6.79
461.005	6.67
461.361	6.63
461.717	6.7
462.073	6.74
462.429	6.74
462.785	6.78
463.141	6.77
463.496	6.89
463.852	6.78
464.208	6.99
464.564	6.93
464.919	6.79
465.275	6.92
465.631	6.84
465.986	6.89
466.342	6.73
466.697	6.77
467.052	6.71
467.408	6.8
467.763	6.77
468.118	6.98
468.473	6.87
468.829	6.94
469.184	6.81
469.539	6.84
469.894	6.89
470.249	6.88
470.603	6.76
470.958	6.88
471.313	6.84
471.668	6.78
472.023	6.82
472.377	6.86
472.732	6.81
473.086	6.87
473.441	6.8
473.795	6.95
474.15	7.01
474.504	6.65
474.859	6.9
475.213	7.08
475.567	7.01
475.921	6.71
476.275	6.94
476.63	6.89
476.984	6.94
477.338	6.84
477.692	6.79
478.045	6.84
478.399	6.96
478.753	6.67
479.107	6.86
479.461	6.97
479.814	6.76
480.168	7.01
480.521	6.88
480.875	6.83
481.228	6.74
481.582	6.76
481.935	6.87
482.289	6.81
482.642	6.67
482.995	6.8
483.348	6.84
483.701	6.77
484.055	6.79
484.408	6.65
484.761	6.66
485.114	6.5
485.466	6.49
485.819	6.45
486.172	6.43
486.525	6.42
486.878	6.45
487.23	6.55
487.583	6.62
487.936	6.65
488.288	6.64
488.641	6.65
488.993	6.58
489.345	6.53
489.698	6.48
490.05	6.54
490.402	6.58
490.754	6.61
491.107	6.6
491.459	6.72
491.811	6.73
492.163	6.74
492.515	6.69
492.866	6.71
493.218	6.62
493.57	6.61
493.922	6.56
494.274	6.65
494.625	6.66
494.977	6.68
495.328	6.73
495.68	6.73
496.031	6.91
496.383	6.81
496.734	6.83
497.086	6.81
497.437	6.82
497.788	6.85
498.139	6.82
498.49	6.8
498.842	6.64
499.193	6.81
499.544	6.84
499.894	6.82
500.245	6.87
500.596	6.77
500.947	6.89
501.298	6.83
501.648	6.76
501.999	6.82
502.35	6.86
502.7	6.92
503.051	7.01
503.401	6.82
503.752	6.81
504.102	6.85
504.452	6.77
504.803	6.88
505.153	6.79
505.503	7.01
505.853	6.81
506.203	6.89
506.553	6.84
506.903	6.8
507.253	6.98
507.603	6.95
507.953	6.84
508.303	6.82
508.652	6.79
509.002	6.74
509.352	6.82
509.701	6.87
510.051	6.65
510.4	6.75
510.75	6.66
511.099	6.69
511.449	6.71
511.798	6.83
512.147	6.88
512.496	6.9
512.846	6.91
513.195	6.85
513.544	6.74
513.893	6.81
514.242	6.71
514.591	6.82
514.939	6.83
515.288	6.91
515.637	6.79
515.986	6.84
516.334	6.76
516.683	6.81
517.032	6.8
517.38	6.9
517.729	6.86
518.077	6.71
518.426	6.7
518.774	6.84
519.122	6.83
519.47	6.72
519.819	6.73
520.167	6.7
520.515	6.78
520.863	6.68
521.211	6.58
521.559	6.67
521.907	6.69
522.255	6.75
522.602	6.78
522.95	6.93
523.298	6.79
523.645	6.79
523.993	6.7
524.341	6.84
524.688	6.82
525.036	6.8
525.383	6.94
525.73	6.67
526.078	6.74
526.425	6.79
526.772	6.65
527.119	6.67
527.466	6.71
527.814	6.71
528.161	6.6
528.508	6.59
528.854	6.66
529.201	6.64
529.548	6.6
529.895	6.5
530.242	6.47
530.588	6.45
530.935	6.4
531.282	6.37
531.628	6.43
531.975	6.51
532.321	6.52
532.667	6.52
533.014	6.62
533.36	6.59
533.706	6.62
534.052	6.59
534.399	6.6
534.745	6.55
535.091	6.51
535.437	6.54
535.783	6.49
536.129	6.44
536.474	6.64
536.82	6.62
537.166	6.62
537.512	6.61
537.857	6.64
538.203	6.62
538.549	6.56
538.894	6.59
539.239	6.61
539.585	6.7
539.93	6.73
540.276	6.72
540.621	6.73
540.966	6.64
541.311	6.8
541.656	6.74
542.001	6.55
542.346	6.52
542.691	6.5
543.036	6.4
543.381	6.44
543.726	6.39
544.071	6.43
544.415	6.46
544.76	6.37
545.105	6.54
545.449	6.57
545.794	6.59
546.138	6.64
546.483	6.62
546.827	6.63
547.171	6.53
547.516	6.59
547.86	6.5
548.204	6.59
548.548	6.51
548.892	6.61
549.236	6.58
549.58	6.69
549.924	6.66
550.268	6.61
550.612	6.74
550.956	6.55
551.3	6.75
551.643	6.65
551.987	6.74
552.33	6.76
552.674	6.68
553.017	6.64
553.361	6.77
553.704	6.68
554.048	6.77
554.391	6.71
554.734	6.68
555.077	6.49
555.42	6.61
555.764	6.64
556.107	6.47
556.45	6.55
556.793	6.61
557.135	6.71
557.478	6.64
557.821	6.68
558.164	6.54
558.507	6.57
558.849	6.84
559.192	6.67
559.534	6.79
559.877	6.66
560.219	6.6
560.562	6.72
560.904	6.79
561.246	6.52
561.589	6.8
561.931	6.52
562.273	6.56
562.615	6.69
562.957	6.45
563.299	6.5
563.641	6.46
563.983	6.5
564.325	6.48
564.667	6.54
565.008	6.67
565.35	6.49
565.692	6.55
566.033	6.46
566.375	6.46
566.716	6.69
567.058	6.68
567.399	6.56
567.741	6.5
568.082	6.37
568.423	6.45
568.764	6.26
569.105	6.49
569.447	6.57
569.788	6.34
570.129	6.56
570.47	6.53
570.811	6.34
571.151	6.39
571.492	6.31
571.833	6.43
572.174	6.47
572.514	6.49
572.855	6.6
573.195	6.46
573.536	6.54
573.876	6.3
574.217	6.29
574.557	6.53
574.898	6.42
575.238	6.64
575.578	6.48
575.918	6.52
576.258	6.44
576.598	6.42
576.938	6.4
577.278	6.47
577.618	6.36
577.958	6.3
578.298	6.44
578.638	6.27
578.977	6.6
579.317	6.43
579.657	6.14
579.996	6.49
580.336	6.67
580.675	6.59
581.014	6.43
581.354	6.57
581.693	6.53
582.032	6.38
582.372	6.52
582.711	6.21
583.05	6.41
583.389	6.27
583.728	6.36
584.067	6.48
584.406	6.38
584.745	6.42
585.083	6.12
585.422	6.34
585.761	6.42
586.1	6.45
586.438	6.64
586.777	6.34
587.115	6.38
587.454	6.54
587.792	6.41
588.13	6.41
588.469	6.44
588.807	6.19
589.145	6.47
589.483	6.36
589.821	6.18
590.159	6.47
590.497	6.43
590.835	6.33
591.173	6.3
591.511	6.4
591.849	6.18
592.187	6.17
592.524	6.44
592.862	6.31
593.2	6.25
593.537	6.29
593.875	6.36
594.212	6.15
594.55	6.21
594.887	6.12
595.224	6.45
595.561	6.33
595.899	6.57
596.236	6.26
596.573	6.29
596.91	6.05
597.247	6.35
597.584	6.26
597.921	6.29
598.258	6.11
598.594	6.11
598.931	6.27
599.268	6.21
599.604	6.1
599.941	6.23
600.277	5.97
600.614	6.12
600.95	6.16
601.287	6.31
601.623	6.17
601.959	6.08
602.296	6.1
602.632	5.83
602.968	6.34
603.304	6.14
603.64	6.55
603.976	5.98
604.312	6.1
604.648	6.11
604.984	6.16
605.319	6.27
605.655	6.18
605.991	6.03
606.326	6.18
606.662	6.05
606.998	6.14
607.333	5.93
607.668	6.01
608.004	6
608.339	6.22
608.674	6.33
609.01	6.29
609.345	6.15
609.68	6.12
610.015	6.13
610.35	5.87
610.685	6.16
611.02	5.93
611.355	6.17
611.689	6.01
612.024	5.97
612.359	5.88
612.694	6.05
613.028	5.94
613.363	6.09
613.697	6.26
614.032	6.37
614.366	6.38
614.7	6.15
615.035	6.18
615.369	5.91
615.703	6.09
616.037	5.99
616.371	6.05
616.705	6.08
617.039	5.68
617.373	5.93
617.707	6.2
618.041	5.81
618.375	5.97
618.709	5.9
619.042	6.16
619.376	5.93
619.71	5.94
620.043	5.89
620.377	6.04
620.71	6.24
621.043	6.02
621.377	5.71
621.71	5.68
622.043	5.76
622.376	6.15
622.709	6.43
623.043	6.28
623.376	6.45
623.709	6.12
624.041	5.92
624.374	5.97
624.707	6.08
625.04	6.55
625.373	6.29
625.705	5.82
626.038	6.21
626.37	5.74
626.703	5.95
627.035	6.07
627.368	6.04
627.7	5.79
628.032	5.98
628.365	5.92
628.697	5.96
629.029	6.16
629.361	6.02
629.693	6.09
630.025	5.82
630.357	5.85
630.689	6.05
631.021	6.16
631.353	6.16
631.684	5.86
632.016	5.82
632.348	6.02
632.679	6.1
633.011	6.3
633.342	6.04
633.674	6.04
634.005	6.02
634.336	6.13
634.668	5.93
634.999	6.03
635.33	6.29
635.661	5.97
635.992	6.01
636.323	6.42
636.654	5.92
636.985	6.34
637.316	5.64
637.647	6.03
637.977	6.1
638.308	6
638.639	5.96
638.969	6.04
639.3	6.08
639.63	6.32
639.961	5.91
640.291	5.39
640.622	6.21
640.952	5.88
641.282	6.06
641.612	6.12
641.943	5.92
642.273	6.54
642.603	6.11
642.933	5.96
643.263	5.44
643.592	6.12
643.922	5.91
644.252	5.87
644.582	5.98
644.911	6.04
645.241	6.08
645.571	6.04
645.9	5.79
646.23	5.73
646.559	6.09
646.888	5.81
647.218	5.53
647.547	5.72
647.876	5.44
648.205	5.58
648.534	5.93
648.863	6.06
649.192	5.74
649.521	5.9
649.85	6.18
650.179	5.51
650.508	6.04
650.837	5.85
651.165	5.72
651.494	5.95
651.822	5.99
652.151	5.86
652.479	5.82
652.808	6
653.136	5.46
653.465	6.54
653.793	6.3
654.121	6.3
654.449	5.98
654.777	5.43
655.105	5.87
655.433	5.9
655.761	6.36
656.089	6.2
656.417	5.8
656.745	6.19
657.073	5.67
657.4	5.95
657.728	5.88
658.056	6.21
658.383	5.55
658.711	6.02
659.038	6.14
659.365	5.81
659.693	6.08
660.02	6
660.347	5.82
660.674	6.4
661.001	5.84
661.329	5.79
661.656	5.71
661.982	6
662.309	5.9
662.636	6.18
662.963	5.61
663.29	5.89
663.616	5.96
663.943	6.1
664.27	6.05
664.596	5.69
664.923	5.68
665.249	6.2
665.576	6.2
665.902	5.98
666.228	6.27
666.554	5.65
666.881	5.99
667.207	5.8
667.533	6.18
667.859	5.46
668.185	6.37
668.511	5.83
668.837	6.05
669.162	5.73
669.488	5.62
669.814	5.94
670.139	6.14
670.465	5.94
670.791	6.4
671.116	6.09
671.442	5.74
671.767	6.3
672.092	5.88
672.418	6.4
672.743	5.37
673.068	5.89
673.393	5.71
673.718	5.72
674.043	5.81
674.368	5.73
674.693	6.17
675.018	5.88
675.343	5.52
675.667	5.96
675.992	5.77
676.317	5.93
676.641	6.02
676.966	6.08
677.29	5.66
677.615	6.28
677.939	5.55
678.264	5.4
678.588	6.13
678.912	6.13
679.236	6.67
679.56	5.94
679.885	5.47
680.209	5.62
680.532	6.39
680.856	6.23
681.18	5.82
681.504	5.61
681.828	6.17
682.152	6.52
682.475	5.84
682.799	6.23
683.122	6.35
683.446	5.98
683.769	6.29
684.093	6.04
684.416	5.81
684.739	5.94
685.062	5.52
685.386	5.91
685.709	5.56
686.032	6.13
686.355	5.88
686.678	6.08
687.001	6.06
687.324	6.53
687.646	5.61
687.969	6.07
688.292	6.41
688.614	6.2
688.937	5.68
689.26	5.45
689.582	5.9
689.904	6.13
690.227	5.72
690.549	6.45
690.871	5.17
691.194	6.4
691.516	5.5
691.838	5.4
692.16	6.56
692.482	6.71
692.804	6.1
693.126	6.04
693.448	5.85
693.769	6.39
694.091	5.76
694.413	6.01
694.735	6.16
695.056	5.59
695.378	6.59
695.699	5.52
696.021	6
696.342	6.01
696.663	6.2
696.984	5.25
697.306	6.12
697.627	7.03
697.948	6.16
698.269	6.27
698.59	6.07
698.911	6.36
699.232	6.31
699.553	6.62
699.873	5.78
700.194	6.18
700.515	5.86
700.835	5.89
701.156	6.29
701.477	5.87
701.797	5.51
702.117	5.81
702.438	6.37
702.758	6.54
703.078	6.1
703.398	5.92
703.719	6.28
704.039	7.08
704.359	6.86
704.679	5.31
704.999	6.42
705.319	6.08
705.638	5.41
705.958	5.79
706.278	5.4
706.597	5.75
706.917	5.78
707.237	5.28
707.556	6.86
707.876	6.73
708.195	6.16
708.514	6.3
708.834	6.42
709.153	5.63
709.472	5.31
709.791	6.31
710.11	5.77
710.429	7.25
710.748	5.8
711.067	6.17
711.386	5.6
711.705	7.07
712.023	6.98
712.342	6.12
712.661	6.15
712.979	5.9
713.298	6.28
713.616	5.59
713.935	6.97
714.253	6.49
714.572	6.47
714.89	5.35
715.208	6.51
715.526	5.85
715.844	7.13
716.162	5.9
716.48	6.39
716.798	7.32
717.116	5.49
717.434	6.74
717.752	6.36
718.069	6.39
718.387	5.57
718.705	6.75
719.022	4.9
719.34	6.26
719.657	6.56
719.975	6.43
720.292	5.59
720.609	5.95
720.927	5
721.244	6.29
721.561	6.17
721.878	6.07
722.195	5.74
722.512	6.91
722.829	6.83
723.146	5.49
723.463	6.03
723.779	5.47
724.096	5.13
724.413	6.54
724.729	6.27
725.046	6.34
725.362	8.14
725.679	6.06
725.995	4.98
726.311	6.59
726.628	6.11
726.944	6.63
727.26	5.88
727.576	6.95
727.892	6.13
728.208	5.55
728.524	6.52
728.84	5.14
729.156	7.48
729.472	5.7
729.787	5.6
730.103	6.2
730.419	6.44
730.734	6.89
731.05	6.13
731.365	7.71
731.681	6.85
731.996	6.68
732.311	5.07
732.626	6.28
732.942	6.91
733.257	5.79
733.572	6.06
733.887	6.26
734.202	7.09
734.517	6.92
734.832	5.88
735.146	6.77
735.461	6.01
735.776	6.75
736.091	5.15
736.405	5.57
736.72	5.67
737.034	5.5
737.349	6.75
737.663	5.84
737.977	5.88
738.292	6.92
738.606	5.99
738.92	5.81
739.234	5.97
739.548	5.72
739.862	7.24
740.176	6.66
740.49	6.14
740.804	6.72
741.117	6.85
741.431	5.56
741.745	8.16
742.058	8.9
742.372	5.2
742.685	6.3
742.999	4.01
743.312	7.12
743.626	4.53
743.939	6.29
744.252	6.39
744.565	6.32
744.878	7.49
745.191	7.09
745.505	7.88
745.817	6.15
746.13	7.27
746.443	6.42
746.756	5.87
747.069	8.19
747.381	7
747.694	6.92
748.007	5.98
748.319	8.12
748.632	6.3
748.944	6.28
749.256	6.43
749.569	7.49
749.881	7.27
750.193	6.2
750.505	6.1
750.817	6.39
751.129	6.92
751.441	5.98
751.753	7.61
752.065	6.07
752.377	6.51
752.689	6.26
753	7.76
753.312	7.02
753.624	7.36
753.935	7.15
754.247	5.91
754.558	9.11
754.869	7.49
755.181	6.25
755.492	5.84
755.803	7.35
756.114	7.43
756.425	7.79
756.736	6.2
757.047	5.6
757.358	8.36
757.669	8.45
757.98	7.47
758.291	6.87
758.601	4.82
758.912	6.98
759.223	7.23
759.533	6.31
759.844	6.5
760.154	8.09
760.464	4.9
760.775	7.31
761.085	6.1
761.395	7.18
761.705	6.98
762.016	5.27
762.326	8.35
762.636	7.69
762.945	5.19
763.255	5.28
763.565	8.66
763.875	6.11
764.185	7.38
764.494	8.13
764.804	6.4
765.113	7.38
765.423	7.69
765.732	7.74
766.042	6.66
766.351	7.67
766.66	5.36
766.97	7.12
767.279	7.66
767.588	6.85
767.897	5.88
768.206	7.21
768.515	6.39
768.824	8.17
769.133	5.7
769.441	6.28
769.75	7.37
770.059	6.85
770.367	7.79
770.676	5.35
770.984	9.37
771.293	6.16
771.601	6.41
771.91	7.12
772.218	4.49
772.526	6.47
772.834	7.55
773.142	9.09
773.45	9.21
773.758	5.95
774.066	7.36
774.374	7.21
774.682	6.95
774.99	6.9
775.298	7.31
775.605	9.48
775.913	5.23
776.22	7.39
776.528	6.3
776.835	5.88
777.143	9.66
777.45	6.64
777.757	7.84
778.065	10.87
778.372	4.54
778.679	6.7
778.986	7.6
779.293	5.41
779.6	8.37
779.907	9
780.214	7.74
780.52	7.14
780.827	5.28
781.134	7.84
781.44	7.67
781.747	4.04
782.053	5.47
782.36	8.04
782.666	6.79
782.973	4.88
783.279	10.01
783.585	9.02
783.891	6.27
784.197	2.2
784.503	6.56
784.809	6.08
785.115	3.49
785.421	4.5
785.727	3.92
786.033	7.77
786.339	8.86
786.644	7.09
786.95	9.76
787.255	9.61
787.561	5.83
787.866	6.58
788.172	5.33
788.477	9.19
788.782	7.13
789.088	4.08
789.393	10.5
789.698	6.21
790.003	8.76
790.308	5.73
790.613	5.59
790.918	7.17
791.223	6.12
791.527	6.24
791.832	7.28
792.137	7.88
792.441	10.85
792.746	8
793.05	7.96
793.355	5.26
793.659	8.16
793.963	6.73
794.268	6.04
794.572	6.02
794.876	9
795.18	4.92
795.484	10.77
795.788	7.66
796.092	7.45
796.396	7.46
796.7	8.08
797.004	8.57
797.307	0.81
797.611	7.46
797.915	8.14
798.218	5.63
798.522	4.33
798.825	8.1
799.128	4.59
799.432	11.16
799.735	9.58
800.038	6.42
800.341	8.47
800.644	6.46
800.947	10.33
801.25	5.45
801.553	7.1
801.856	8.11
802.159	6.28
802.462	8.97
802.764	5.05
803.067	8.78
803.37	8.33
803.672	7.01
803.975	7.78
804.277	7.4
804.579	9.36
804.882	8.56
805.184	4.56
805.486	8.86
805.788	7
806.09	8.22
806.392	5.84
806.694	7.45
806.996	7.76
807.298	6.59
807.6	7.52
807.902	5.01
808.203	9.68
808.505	6.37
808.807	9.82
809.108	9.69
809.409	9.29
809.711	12.61
810.012	7.79
810.313	5.75
810.615	6.05
810.916	9.84
811.217	7.89
811.518	4.48
811.819	6.16
812.12	8.96
812.421	7.52
812.722	7.47
813.023	7.74
813.323	8.93
813.624	5.34
813.925	11.55
814.225	6.24
814.526	6.04
814.826	7.81
815.126	4.63
815.427	2.54
815.727	9.21
816.027	2.07
816.327	5.87
816.627	7.42
816.927	3.45
817.227	9.62
817.527	5.7
817.827	5.37
818.127	9.37
818.427	9.7
818.727	6.94
819.026	10.99
819.326	5.92
819.625	6.55
819.925	7.17
820.224	5.06
820.524	6.61
820.823	4.8
821.122	4.34
821.421	6.26
821.72	9.48
822.019	8.68
822.318	8.5
822.617	10.05
822.916	9.72
823.215	6.48
823.514	8.96
823.813	9.42
824.111	8.47
824.41	9.35
824.709	9.45
825.007	8.33
825.306	8.39
825.604	8.89
825.902	9.04
826.201	8.61
826.499	7.59
826.797	9.04
827.095	8.56
827.393	8.91
827.691	7.34
827.989	8.13
828.287	10.07
828.585	10.19
828.882	9.34
829.18	6.46
829.478	8.72
829.775	8.39
830.073	7.43
830.37	10.34
830.668	8.47
830.965	7.76
831.263	9.96
831.56	6.44
831.857	8.15
832.154	4.05
832.451	9.91
832.748	7.92
833.045	3.12
833.342	6.21
833.639	8.3
833.936	13.19
834.232	10.2
834.529	6.9
834.826	11.06
835.122	6.03
835.419	5.32
835.715	5.08
836.012	7.77
836.308	8.69
836.604	6.07
836.901	7.2
837.197	10.25
837.493	9.97
837.789	7.18
838.085	11.57
838.381	8.62
838.677	11.29
838.972	7.47
839.268	8.57
839.564	10.28
839.86	7.4
840.155	-2.63
840.451	12.15
840.746	10.09
841.042	7.58
841.337	-1.7
841.632	13.57
841.928	13.78
842.223	11.49
842.518	0.3
842.813	4.82
843.108	12.14
843.403	12.14
843.698	7.23
843.993	9.64
844.287	12.06
844.582	-1.19
844.877	10.85
845.171	10.51
845.466	-8.73
845.761	10.02
846.055	0.7
846.349	15.65
846.644	12.1
846.938	6.3
847.232	9.26
847.526	-2.25
847.82	0.02
848.114	-12.2
848.408	3.05
848.702	3.32
848.996	-9.55
849.29	-12.68
849.584	6.09
849.877	3.89
850.171	-11.17
850.465	16.53
850.758	9.17
851.052	5.88
851.345	15.44
851.638	10.42
851.932	17.19
852.225	9.28
852.518	2.97
852.811	11.12
853.104	-2.12
853.397	0.72
853.69	16.72
853.983	17.27
854.276	-2.98
854.569	-8.99
854.861	-9.43
855.154	-21.83
855.447	5.38
855.739	-5.67
856.032	7.38
856.324	-9.47
856.616	-16.49
856.909	-3.3
857.201	17.36
857.493	17.24
857.785	9.96
858.077	-7.67
858.369	7.63
858.661	10.63
858.953	3.83
859.245	-12.83
859.537	1.45
859.829	13.91
860.12	9.1
860.412	23.48
860.703	15.74
860.995	-4.6
861.286	-7.57
861.578	13.38
861.869	1.59
862.16	-2.39
862.452	-2.64
862.743	15.8
863.034	-9.98
863.325	-3.68
863.616	8.27
863.907	7.15
864.198	-16.19
864.488	-6.11
864.779	17.67
865.07	4.21
865.36	-2.04
865.651	11.6
865.941	25.67
866.232	20.54
866.522	8.1
866.813	-4.98
867.103	-0.04
867.393	-1.46
867.683	8
867.973	-3.52
868.263	-9.82
868.553	-5.74
868.843	-51.89
869.133	2.97
869.423	1.76
869.713	-10.98
870.002	-6.54
870.292	8.68
870.582	-0.21
870.871	2.09
871.161	6.49
871.45	7.94
871.739	24.8
872.029	11.02
872.318	-15
872.607	7.51
872.896	1.51
873.185	-5.6
873.474	3.13
873.763	-8.64
874.052	-12.18
874.341	4.76
874.63	-14.75
874.918	20.91
875.207	14.32
875.496	25.57
875.784	-8.79
876.073	13
876.361	-13.27
876.649	3.9
876.938	-2.91
877.226	11.71
877.514	-14.12
877.802	-15.01
878.09	12.57
878.378	17.08
878.666	3.8
878.954	22.53
879.242	15.56
879.53	-28.83
879.817	7.67
880.105	14.48
880.392	-7.35
880.68	-9.58
880.967	-4.59
881.255	31
881.542	14.93
881.83	22.89
882.117	-17.88
882.404	16.67
882.691	-16.86
882.978	4.54
883.265	27.27
883.552	16.23
883.839	2.92
884.126	22.83
884.413	9.51
884.699	12.13
884.986	6.34
885.273	11.85
885.559	11.85
885.846	11.85
