Data from 0034_forehead_Reflection__2__194.txt Node

Date: Thu Oct 20 22:24:58 CDT 2022
User: ToomeyLab
Spectrometer: FLMS14357
Trigger mode: 0
Integration Time (sec): 1.000000E-2
Scans to average: 100
Electric dark correction enabled: true
Nonlinearity correction enabled: false
Boxcar width: 0
XAxis mode: Wavelengths
Number of Pixels in Spectrum: 2048
>>>>>Begin Spectral Data<<<<<
189.047	-565.73
189.435	-565.73
189.823	-565.73
190.211	332.28
190.599	-121.52
190.987	-631.38
191.375	61.97
191.763	67.2
192.151	63.25
192.538	-104.61
192.926	68.78
193.314	-1220.58
193.702	194.8
194.089	30.42
194.477	-267.99
194.864	80.86
195.252	84.19
195.639	70.78
196.027	32.57
196.414	31.56
196.801	211.76
197.189	183.64
197.576	84.83
197.963	76.28
198.351	13.44
198.738	21.5
199.125	34.43
199.512	53.36
199.899	48.21
200.286	40.99
200.673	45.69
201.06	71.58
201.447	30.93
201.833	58.34
202.22	50.97
202.607	57.47
202.994	49.91
203.38	10.29
203.767	67.24
204.154	33.76
204.54	11.66
204.927	45.87
205.313	46.28
205.699	69.11
206.086	-0.13
206.472	27.27
206.858	127.37
207.245	48.77
207.631	20.07
208.017	-2.29
208.403	-4.56
208.789	34.52
209.175	38.72
209.561	37.89
209.947	23.73
210.333	23.33
210.719	15.41
211.105	41.2
211.491	-25.17
211.876	2.22
212.262	27.45
212.648	-31.87
213.034	20.47
213.419	-4.82
213.805	-0.35
214.19	16.48
214.576	-16.97
214.961	12.13
215.346	45.14
215.732	18.79
216.117	0.84
216.502	-1.42
216.888	49.1
217.273	-1.42
217.658	43.38
218.043	27.37
218.428	29.49
218.813	46.55
219.198	4.91
219.583	34.51
219.968	39.83
220.353	1.31
220.738	16.55
221.122	44.45
221.507	18.83
221.892	11.65
222.276	3
222.661	26.58
223.046	20.7
223.43	-4.36
223.815	17.97
224.199	9.84
224.583	2.94
224.968	15.32
225.352	27.63
225.736	10.91
226.121	5.95
226.505	15.13
226.889	12.09
227.273	10.72
227.657	13.08
228.041	8.31
228.425	7.26
228.809	10.02
229.193	11.91
229.577	7.44
229.961	8.01
230.344	8.46
230.728	7.85
231.112	7.43
231.495	7.01
231.879	9.61
232.263	9.2
232.646	8.72
233.03	8.21
233.413	6.09
233.797	8.62
234.18	10.68
234.563	8.36
234.946	8.65
235.33	8.68
235.713	7.85
236.096	8.09
236.479	9.78
236.862	10.18
237.245	6.52
237.628	8.15
238.011	9.14
238.394	9.07
238.777	10.35
239.16	8.77
239.543	6.04
239.925	8.83
240.308	7.82
240.691	10.77
241.073	7.49
241.456	9.81
241.838	8.09
242.221	8.5
242.603	8.93
242.986	8.41
243.368	8.11
243.75	7.85
244.133	8.29
244.515	7.99
244.897	8.01
245.279	6.5
245.661	7.99
246.043	8.91
246.425	7.76
246.807	8.84
247.189	8.1
247.571	7.97
247.953	7.61
248.335	7.76
248.717	7.56
249.098	7.82
249.48	7.81
249.862	7.73
250.243	7.87
250.625	8.4
251.006	9.15
251.388	8.18
251.769	7.76
252.151	7.64
252.532	7.4
252.913	8.4
253.295	8.17
253.676	8.15
254.057	6.91
254.438	7.76
254.819	8.02
255.2	8.67
255.581	8.59
255.962	9.64
256.343	7.58
256.724	9.45
257.105	8.01
257.486	7.86
257.867	8.25
258.247	8.46
258.628	8.64
259.009	7.3
259.389	8.4
259.77	7.95
260.15	7.84
260.531	7.92
260.911	7.42
261.292	7.75
261.672	7.81
262.052	7.86
262.432	7.84
262.813	8.17
263.193	8.01
263.573	8.12
263.953	7.56
264.333	7.87
264.713	8.07
265.093	8.03
265.473	8.62
265.853	8.77
266.233	8.18
266.612	7.84
266.992	8.23
267.372	8.86
267.752	7.77
268.131	8.19
268.511	7.84
268.89	7.7
269.27	7.61
269.649	7.23
270.029	7.65
270.408	7.22
270.787	7.82
271.167	8.02
271.546	7.3
271.925	8.18
272.304	8.02
272.683	7.66
273.062	7.56
273.441	7.5
273.82	7.98
274.199	7.16
274.578	7.32
274.957	7
275.336	7.62
275.715	7.81
276.093	8.4
276.472	7.7
276.851	8.18
277.229	7.17
277.608	7.58
277.986	7.36
278.365	7.61
278.743	7.4
279.122	8.06
279.5	8.09
279.878	7.85
280.257	7.89
280.635	8.24
281.013	7.89
281.391	8.34
281.769	8.01
282.147	7.52
282.525	7.11
282.903	7.47
283.281	7.6
283.659	7.48
284.037	6.9
284.415	7.32
284.792	7.38
285.17	8.14
285.548	7.82
285.925	7.81
286.303	7.65
286.68	8
287.058	7.52
287.435	7.35
287.813	7.57
288.19	7.44
288.567	7.93
288.945	8.04
289.322	7.74
289.699	7.21
290.076	7.58
290.453	7.64
290.83	7.97
291.207	8.46
291.584	7.65
291.961	8.01
292.338	7.57
292.715	8.13
293.092	8.49
293.469	8.9
293.845	8.51
294.222	8.69
294.599	8.86
294.975	8.89
295.352	9.17
295.728	8.32
296.105	8.58
296.481	8.19
296.858	8.31
297.234	8.39
297.61	8.84
297.986	8.2
298.363	8.26
298.739	8.73
299.115	8.52
299.491	8.8
299.867	8.66
300.243	8.89
300.619	9.22
300.995	9
301.371	9.69
301.746	9.18
302.122	9.84
302.498	9.41
302.874	9.73
303.249	9.93
303.625	9.27
304	10.27
304.376	10.25
304.751	9.8
305.127	9.13
305.502	10.21
305.878	10.11
306.253	9.69
306.628	10.29
307.003	9.69
307.378	10.04
307.754	10.21
308.129	10.73
308.504	10.59
308.879	10.87
309.254	10.43
309.629	10.72
310.003	10.42
310.378	10.47
310.753	11.07
311.128	10.65
311.502	10.87
311.877	10.89
312.252	10.86
312.626	10.98
313.001	10.89
313.375	11.68
313.75	10.79
314.124	11.44
314.498	11.67
314.873	11.51
315.247	11.23
315.621	11.74
315.995	11.74
316.369	12.24
316.743	11.92
317.117	11.86
317.491	11.87
317.865	12.29
318.239	12.31
318.613	12.88
318.987	12.26
319.361	12.29
319.734	12.15
320.108	13.03
320.482	12.43
320.855	13.17
321.229	12.95
321.602	12.19
321.976	12.93
322.349	13.37
322.723	13.5
323.096	12.86
323.469	12.85
323.843	14.11
324.216	13.65
324.589	13.81
324.962	13.64
325.335	13.63
325.708	13.62
326.081	13.84
326.454	13.97
326.827	13.6
327.2	14.23
327.573	14.28
327.945	13.82
328.318	14.08
328.691	14.13
329.063	14.37
329.436	14.47
329.809	14.5
330.181	14.28
330.553	14.85
330.926	14.73
331.298	14.71
331.671	15.31
332.043	14.79
332.415	14.77
332.787	14.88
333.159	14.7
333.532	15.25
333.904	15.37
334.276	15.23
334.648	14.87
335.02	15.31
335.391	15.34
335.763	15.3
336.135	15.81
336.507	15.36
336.879	16.1
337.25	15.38
337.622	15.9
337.993	16.03
338.365	16.35
338.736	15.99
339.108	16.11
339.479	16.48
339.851	15.74
340.222	16.18
340.593	16.74
340.964	16.46
341.336	16.45
341.707	16.22
342.078	16.45
342.449	16.6
342.82	16.43
343.191	16.68
343.562	16.75
343.933	16.94
344.303	17.03
344.674	17.25
345.045	17.05
345.416	16.93
345.786	17.68
346.157	17.28
346.527	17.43
346.898	17.39
347.268	17.34
347.639	17.5
348.009	17.88
348.38	17.6
348.75	17.59
349.12	18.5
349.49	17.93
349.861	18.29
350.231	18.12
350.601	18.63
350.971	18.48
351.341	18.46
351.711	18.64
352.081	18.52
352.45	18.59
352.82	18.26
353.19	18.91
353.56	18.56
353.929	18.86
354.299	19.29
354.669	18.92
355.038	19.1
355.408	18.91
355.777	19.35
356.147	19.21
356.516	19.27
356.885	19.14
357.254	19.95
357.624	19.31
357.993	19.29
358.362	19.83
358.731	19.47
359.1	19.35
359.469	19.79
359.838	19.66
360.207	20.23
360.576	19.71
360.945	20.46
361.314	19.93
361.682	20.19
362.051	20.06
362.42	20.11
362.788	20.41
363.157	20.18
363.525	20.36
363.894	20.21
364.262	20.45
364.631	20.78
364.999	21.07
365.367	21.15
365.735	20.61
366.104	20.85
366.472	20.89
366.84	21.56
367.208	21.38
367.576	21.26
367.944	21.43
368.312	21.38
368.68	21.86
369.048	21.39
369.416	21.56
369.783	21.76
370.151	22.21
370.519	22.14
370.886	21.64
371.254	22.53
371.621	22.17
371.989	22.46
372.356	22.32
372.724	22.47
373.091	22.44
373.458	22.48
373.826	22.54
374.193	22.79
374.56	22.65
374.927	22.54
375.294	22.59
375.661	23.47
376.028	23.03
376.395	23.49
376.762	23.55
377.129	23.39
377.496	23.44
377.863	23.24
378.229	23.33
378.596	23.51
378.963	23.8
379.329	23.56
379.696	23.89
380.062	23.51
380.429	24.33
380.795	24.08
381.161	24.29
381.528	23.91
381.894	24.42
382.26	24.11
382.626	24.46
382.993	24.4
383.359	24.56
383.725	24.29
384.091	24.62
384.457	24.5
384.823	24.72
385.188	24.93
385.554	24.73
385.92	25.03
386.286	25.15
386.651	24.9
387.017	25.21
387.383	25.6
387.748	25.8
388.114	25.73
388.479	25.54
388.845	25.98
389.21	25.69
389.575	25.77
389.94	25.98
390.306	26.16
390.671	25.78
391.036	25.94
391.401	25.87
391.766	26.47
392.131	26.23
392.496	26.43
392.861	26.17
393.226	26.52
393.591	26.54
393.956	26.36
394.32	26.75
394.685	26.95
395.05	26.91
395.414	26.7
395.779	26.87
396.143	27.01
396.508	27.18
396.872	27.11
397.236	27.29
397.601	27.55
397.965	27.15
398.329	27.79
398.694	27.86
399.058	27.83
399.422	28.08
399.786	27.93
400.15	27.92
400.514	27.98
400.878	27.92
401.242	28.16
401.605	28.43
401.969	28.23
402.333	28.11
402.697	28.43
403.06	28.56
403.424	28.78
403.787	28.66
404.151	28.6
404.514	28.77
404.878	28.76
405.241	28.85
405.604	29.07
405.968	29.11
406.331	28.86
406.694	29.07
407.057	29.08
407.42	29.22
407.783	29.27
408.146	29.55
408.509	29.29
408.872	29.67
409.235	29.65
409.598	29.77
409.961	30.11
410.323	30.05
410.686	30.07
411.049	30.22
411.411	30.11
411.774	30.17
412.136	30.33
412.499	30.34
412.861	30.46
413.223	30.47
413.586	30.52
413.948	30.74
414.31	30.7
414.672	31.06
415.035	30.78
415.397	30.9
415.759	31.02
416.121	31.08
416.483	31.54
416.845	31.21
417.206	31.51
417.568	31.41
417.93	31.19
418.292	31.49
418.653	31.42
419.015	31.57
419.377	31.45
419.738	31.43
420.1	31.52
420.461	31.66
420.822	31.45
421.184	31.42
421.545	31.71
421.906	31.51
422.267	31.59
422.629	31.46
422.99	31.6
423.351	31.68
423.712	31.77
424.073	31.93
424.434	32.05
424.795	32.22
425.155	32.17
425.516	32.18
425.877	32.02
426.238	32.3
426.598	32.41
426.959	32.47
427.32	32.78
427.68	32.88
428.041	33
428.401	33.07
428.761	33.29
429.122	33.26
429.482	33.64
429.842	33.74
430.202	34.07
430.563	33.84
430.923	33.76
431.283	33.89
431.643	33.78
432.003	33.96
432.363	33.93
432.722	34.15
433.082	34.21
433.442	34.25
433.802	34.23
434.161	34.53
434.521	34.13
434.881	34.09
435.24	34.4
435.6	34.44
435.959	34.74
436.319	34.76
436.678	34.71
437.037	34.94
437.396	35.35
437.756	35.24
438.115	35.11
438.474	35.34
438.833	35.15
439.192	35
439.551	35.42
439.91	35.49
440.269	35.31
440.628	35.73
440.987	35.5
441.345	35.62
441.704	35.69
442.063	35.61
442.421	35.7
442.78	35.77
443.138	35.8
443.497	35.96
443.855	35.96
444.214	36.21
444.572	36.57
444.93	36.44
445.288	36.7
445.647	36.61
446.005	36.56
446.363	36.51
446.721	36.52
447.079	36.28
447.437	36.37
447.795	36.39
448.153	36.45
448.51	36.49
448.868	36.57
449.226	36.72
449.584	36.88
449.941	37.11
450.299	37.21
450.656	37.53
451.014	37.68
451.371	37.72
451.729	37.63
452.086	38.27
452.443	37.87
452.801	37.97
453.158	38.36
453.515	38.05
453.872	38.14
454.229	38.17
454.586	38.24
454.943	38.21
455.3	38.44
455.657	38.48
456.014	38.45
456.371	38.71
456.727	38.86
457.084	38.57
457.441	38.8
457.797	38.96
458.154	38.99
458.51	38.88
458.867	38.89
459.223	39.33
459.58	39.36
459.936	39.53
460.292	39.31
460.648	39.39
461.005	39.12
461.361	38.97
461.717	38.88
462.073	39.07
462.429	39.15
462.785	39.7
463.141	39.64
463.496	40
463.852	40.04
464.208	40.47
464.564	40.17
464.919	40.43
465.275	40.58
465.631	40.45
465.986	40.73
466.342	40.73
466.697	40.89
467.052	40.71
467.408	40.9
467.763	41.01
468.118	41.04
468.473	41.21
468.829	41.2
469.184	41.24
469.539	41.25
469.894	41.48
470.249	41.34
470.603	41.45
470.958	41.62
471.313	41.67
471.668	41.64
472.023	41.74
472.377	41.77
472.732	42.15
473.086	42.06
473.441	42.37
473.795	42.08
474.15	42.37
474.504	42.53
474.859	42.59
475.213	42.36
475.567	42.48
475.921	42.64
476.275	43.03
476.63	43.02
476.984	43.01
477.338	42.83
477.692	43.22
478.045	42.99
478.399	43.13
478.753	43.06
479.107	43.12
479.461	43.37
479.814	43.24
480.168	43.32
480.521	43.31
480.875	43.57
481.228	43.58
481.582	43.57
481.935	43.77
482.289	43.73
482.642	43.65
482.995	43.7
483.348	43.86
483.701	43.64
484.055	43.51
484.408	43.54
484.761	43.32
485.114	43.62
485.466	43.62
485.819	43.16
486.172	42.96
486.525	42.91
486.878	43.05
487.23	43.37
487.583	43.74
487.936	44.05
488.288	43.93
488.641	44.05
488.993	44.1
489.345	43.99
489.698	43.92
490.05	43.83
490.402	43.9
490.754	44.26
491.107	44.54
491.459	44.89
491.811	45.12
492.163	45.26
492.515	45.23
492.866	45.02
493.218	45.09
493.57	44.73
493.922	44.61
494.274	44.83
494.625	45.2
494.977	45.5
495.328	45.84
495.68	46.36
496.031	46.14
496.383	46.53
496.734	46.73
497.086	46.76
497.437	46.84
497.788	46.83
498.139	46.56
498.49	46.49
498.842	46.44
499.193	46.8
499.544	46.76
499.894	46.84
500.245	47.02
500.596	47.13
500.947	47.32
501.298	47.41
501.648	47.37
501.999	47.64
502.35	47.73
502.7	47.83
503.051	48.05
503.401	47.85
503.752	48.04
504.102	48.26
504.452	48.1
504.803	48.53
505.153	48.22
505.503	48.57
505.853	48.41
506.203	48.47
506.553	48.43
506.903	48.37
507.253	48.68
507.603	48.68
507.953	48.72
508.303	49.06
508.652	48.94
509.002	49.05
509.352	49.06
509.701	48.99
510.051	49.05
510.4	48.92
510.75	48.98
511.099	48.99
511.449	48.95
511.798	49.15
512.147	49.43
512.496	49.38
512.846	49.69
513.195	49.83
513.544	49.54
513.893	49.74
514.242	49.82
514.591	49.9
514.939	50.03
515.288	50.05
515.637	50.23
515.986	50.24
516.334	50.37
516.683	50.33
517.032	50.62
517.38	50.91
517.729	50.79
518.077	50.82
518.426	50.92
518.774	51
519.122	50.69
519.47	50.7
519.819	50.35
520.167	50.4
520.515	50.66
520.863	50.6
521.211	50.83
521.559	50.72
521.907	50.95
522.255	50.95
522.602	51.25
522.95	51.5
523.298	51.55
523.645	51.81
523.993	51.63
524.341	52.05
524.688	52.14
525.036	52.19
525.383	52.4
525.73	52.22
526.078	52.3
526.425	52.45
526.772	52.11
527.119	51.88
527.466	52.05
527.814	51.93
528.161	52.02
528.508	52.02
528.854	52.24
529.201	52.22
529.548	52.1
529.895	52.3
530.242	52.29
530.588	52.01
530.935	51.61
531.282	51.44
531.628	51.64
531.975	51.71
532.321	52.34
532.667	52.53
533.014	52.93
533.36	52.87
533.706	52.97
534.052	53.17
534.399	53.14
534.745	53.15
535.091	53.13
535.437	52.88
535.783	52.88
536.129	53.05
536.474	53.22
536.82	53.71
537.166	53.74
537.512	53.95
537.857	54.01
538.203	54.09
538.549	53.97
538.894	54.03
539.239	54.03
539.585	54.29
539.93	54.51
540.276	54.71
540.621	54.68
540.966	54.98
541.311	55.16
541.656	55.15
542.001	54.99
542.346	54.72
542.691	54.75
543.036	54.56
543.381	54.26
543.726	54.14
544.071	54.08
544.415	54.52
544.76	54.52
545.105	55.01
545.449	55.04
545.794	55.18
546.138	55.61
546.483	55.68
546.827	55.67
547.171	55.87
547.516	55.98
547.86	56.05
548.204	55.89
548.548	55.76
548.892	56.22
549.236	56.03
549.58	56.03
549.924	56.45
550.268	56.41
550.612	56.73
550.956	56.63
551.3	57.1
551.643	56.85
551.987	57.29
552.33	57.13
552.674	57.48
553.017	57.5
553.361	57.65
553.704	57.73
554.048	57.61
554.391	57.37
554.734	57.53
555.077	57.53
555.42	57.47
555.764	57.72
556.107	57.8
556.45	58.01
556.793	57.88
557.135	58.41
557.478	58.31
557.821	58.3
558.164	58.53
558.507	58.5
558.849	58.66
559.192	58.94
559.534	58.67
559.877	58.77
560.219	58.77
560.562	59.07
560.904	59.2
561.246	59.47
561.589	59.56
561.931	58.88
562.273	59.04
562.615	59.19
562.957	59.25
563.299	59.63
563.641	59.58
563.983	59.52
564.325	59.25
564.667	60.02
565.008	59.74
565.35	59.64
565.692	59.81
566.033	60.28
566.375	60.28
566.716	60.34
567.058	60.12
567.399	59.99
567.741	59.91
568.082	59.82
568.423	60.11
568.764	60.03
569.105	60.1
569.447	60.13
569.788	60.31
570.129	60.89
570.47	60.45
570.811	60.75
571.151	60.57
571.492	60.82
571.833	60.74
572.174	61.07
572.514	61.07
572.855	61.35
573.195	60.89
573.536	60.88
573.876	60.73
574.217	60.77
574.557	61.05
574.898	60.89
575.238	61.26
575.578	61.34
575.918	61.48
576.258	61.53
576.598	61.48
576.938	61.54
577.278	61.53
577.618	61.7
577.958	61.6
578.298	61.82
578.638	61.82
578.977	61.76
579.317	62.39
579.657	61.93
579.996	62.32
580.336	62.76
580.675	62.95
581.014	62.92
581.354	63.24
581.693	62.92
582.032	62.47
582.372	63.4
582.711	63.2
583.05	62.92
583.389	63.25
583.728	63.14
584.067	63.08
584.406	63.43
584.745	63.54
585.083	63.54
585.422	63.37
585.761	63.88
586.1	63.86
586.438	63.58
586.777	63.67
587.115	63.85
587.454	64.03
587.792	63.75
588.13	64.36
588.469	64.07
588.807	64
589.145	64.28
589.483	64.26
589.821	63.97
590.159	64.14
590.497	64.62
590.835	63.89
591.173	64.14
591.511	64.24
591.849	64.57
592.187	64.63
592.524	65.02
592.862	64.74
593.2	64.47
593.537	64.83
593.875	65.21
594.212	65.29
594.55	65.02
594.887	64.95
595.224	65.45
595.561	65.47
595.899	65.37
596.236	64.97
596.573	65.83
596.91	65.37
597.247	65.2
597.584	65.55
597.921	65.4
598.258	65.86
598.594	65.91
598.931	65.78
599.268	65.1
599.604	65.43
599.941	65.74
600.277	65.81
600.614	65.84
600.95	65.9
601.287	65.93
601.623	66.11
601.959	66.01
602.296	66.53
602.632	66.34
602.968	66.52
603.304	66.84
603.64	66.16
603.976	66.61
604.312	66.59
604.648	66.82
604.984	66.39
605.319	66.43
605.655	66.96
605.991	66.39
606.326	66.86
606.662	66.56
606.998	66.57
607.333	66.22
607.668	66.79
608.004	67.07
608.339	66.89
608.674	66.88
609.01	67.54
609.345	67.53
609.68	67.58
610.015	67.52
610.35	67.59
610.685	67.24
611.02	67.75
611.355	67.22
611.689	67.71
612.024	67.58
612.359	67.47
612.694	67.76
613.028	68.14
613.363	68.07
613.697	68
614.032	68.41
614.366	68.18
614.7	68.48
615.035	68.58
615.369	68.48
615.703	68.23
616.037	69.22
616.371	68.8
616.705	68.35
617.039	68.51
617.373	68.31
617.707	68.79
618.041	68.79
618.375	68.45
618.709	69.11
619.042	68.52
619.376	69.1
619.71	69.66
620.043	69.16
620.377	69.29
620.71	69.56
621.043	69.72
621.377	69
621.71	69.53
622.043	69.71
622.376	69.79
622.709	69.59
623.043	69.67
623.376	70.09
623.709	69.48
624.041	70.1
624.374	69.73
624.707	70.12
625.04	70.17
625.373	70.36
625.705	70.16
626.038	70.27
626.37	70.03
626.703	70.38
627.035	70.57
627.368	70.26
627.7	70.68
628.032	70.55
628.365	70.88
628.697	70.88
629.029	70.6
629.361	70.45
629.693	70.37
630.025	70.86
630.357	70.79
630.689	70.65
631.021	71.18
631.353	70.69
631.684	71.44
632.016	71.17
632.348	71.32
632.679	71.55
633.011	71.71
633.342	71.12
633.674	71.82
634.005	71.7
634.336	72.12
634.668	71.74
634.999	71.6
635.33	71.25
635.661	72.28
635.992	72.31
636.323	71.8
636.654	71.78
636.985	71.88
637.316	71.96
637.647	71.98
637.977	71.83
638.308	71.9
638.639	72.34
638.969	72.22
639.3	72.48
639.63	72.67
639.961	72.45
640.291	72.58
640.622	72.55
640.952	72.35
641.282	72.25
641.612	72.55
641.943	72.51
642.273	72.76
642.603	72.52
642.933	72.89
643.263	72.8
643.592	72.91
643.922	72.63
644.252	73.07
644.582	73.47
644.911	72.81
645.241	72.62
645.571	73.35
645.9	73.49
646.23	73.29
646.559	74
646.888	73.89
647.218	72.74
647.547	73.97
647.876	73.56
648.205	73.87
648.534	73.42
648.863	73.51
649.192	73.48
649.521	74.53
649.85	73.33
650.179	74.34
650.508	73.85
650.837	73.52
651.165	73.98
651.494	73.76
651.822	74.54
652.151	74.09
652.479	74.28
652.808	74.13
653.136	74.51
653.465	75.11
653.793	74.8
654.121	74.48
654.449	74.52
654.777	74.25
655.105	74.85
655.433	74.39
655.761	74.73
656.089	74.49
656.417	75.11
656.745	74.32
657.073	74.72
657.4	75
657.728	74.78
658.056	74.82
658.383	74.46
658.711	74.75
659.038	75.31
659.365	75.09
659.693	75.37
660.02	75.56
660.347	75.88
660.674	75.95
661.001	75.53
661.329	74.98
661.656	74.92
661.982	75.05
662.309	75.53
662.636	75.23
662.963	75.44
663.29	75.3
663.616	75.24
663.943	75.94
664.27	75.91
664.596	75.46
664.923	76.07
665.249	76.35
665.576	76.92
665.902	76.25
666.228	76.57
666.554	76.15
666.881	75.76
667.207	76.45
667.533	76.63
667.859	76.36
668.185	76.67
668.511	76.41
668.837	76.86
669.162	76.12
669.488	75.94
669.814	76.74
670.139	76.2
670.465	76.01
670.791	76.53
671.116	76.62
671.442	77.38
671.767	76.13
672.092	76.87
672.418	76.82
672.743	77.11
673.068	77.48
673.393	76.47
673.718	76.89
674.043	76.82
674.368	77.39
674.693	77.12
675.018	76.89
675.343	76.91
675.667	77.44
675.992	77.17
676.317	77.76
676.641	77.12
676.966	78.27
677.29	77.35
677.615	78.15
677.939	77.89
678.264	77.68
678.588	78.48
678.912	77.48
679.236	77.82
679.56	78.41
679.885	78.04
680.209	77.73
680.532	78.64
680.856	77.98
681.18	78.83
681.504	77.94
681.828	78.01
682.152	78.22
682.475	78.15
682.799	77.91
683.122	78.85
683.446	78.49
683.769	78.45
684.093	78.11
684.416	79.15
684.739	79.03
685.062	78.01
685.386	78.23
685.709	78.69
686.032	79.14
686.355	78.13
686.678	78.68
687.001	78.5
687.324	78.91
687.646	79.04
687.969	78.97
688.292	79.07
688.614	78.36
688.937	79.5
689.26	79.1
689.582	78.52
689.904	79.56
690.227	78.85
690.549	79.84
690.871	78.54
691.194	79.54
691.516	79.5
691.838	79.65
692.16	78.72
692.482	78.98
692.804	78.65
693.126	78.93
693.448	79.33
693.769	79.48
694.091	79.95
694.413	79.09
694.735	79.27
695.056	79.89
695.378	78.47
695.699	80.61
696.021	79.77
696.342	79.37
696.663	79.92
696.984	80.23
697.306	79.37
697.627	80.09
697.948	80.56
698.269	80.73
698.59	79.91
698.911	79.73
699.232	80.26
699.553	81.3
699.873	80.38
700.194	80.66
700.515	80.5
700.835	79.99
701.156	80.82
701.477	80.3
701.797	79.23
702.117	80.03
702.438	80.98
702.758	79.68
703.078	80.52
703.398	80.5
703.719	80.83
704.039	80.57
704.359	80.82
704.679	80.67
704.999	79.54
705.319	80.14
705.638	80.69
705.958	79.92
706.278	80.33
706.597	81.29
706.917	81.54
707.237	80.83
707.556	82.36
707.876	80.42
708.195	81.44
708.514	80.31
708.834	81.31
709.153	81.34
709.472	80.82
709.791	81.5
710.11	81.8
710.429	81.53
710.748	80.88
711.067	82.25
711.386	80.51
711.705	82.44
712.023	81.58
712.342	81.84
712.661	80.69
712.979	81.84
713.298	82.02
713.616	82.28
713.935	81.95
714.253	80.72
714.572	81.42
714.89	81.91
715.208	81.59
715.526	81.8
715.844	82.61
716.162	81.6
716.48	81.6
716.798	81.68
717.116	81.8
717.434	81.07
717.752	82.81
718.069	82.99
718.387	81.7
718.705	81.99
719.022	82.15
719.34	82.58
719.657	83.07
719.975	81.52
720.292	82.16
720.609	82.85
720.927	82.5
721.244	81.85
721.561	82.38
721.878	82.64
722.195	81.68
722.512	82.35
722.829	82.76
723.146	81.77
723.463	83.15
723.779	81.93
724.096	81.23
724.413	81.8
724.729	83.64
725.046	82.26
725.362	83.4
725.679	82.25
725.995	81.58
726.311	83.7
726.628	81.11
726.944	84.36
727.26	85.29
727.576	83.38
727.892	83.62
728.208	82.39
728.524	80.83
728.84	83.13
729.156	83.38
729.472	83.54
729.787	82.03
730.103	82.57
730.419	83.99
730.734	83.57
731.05	83.45
731.365	83.47
731.681	83.69
731.996	82.55
732.311	83.21
732.626	83.6
732.942	82.9
733.257	83.54
733.572	84.08
733.887	83.79
734.202	82.78
734.517	84
734.832	85.16
735.146	83.28
735.461	84.06
735.776	83.55
736.091	83.38
736.405	83.4
736.72	84.11
737.034	83.14
737.349	84.78
737.663	83.84
737.977	82.69
738.292	84.13
738.606	84.12
738.92	85.01
739.234	83.42
739.548	85.14
739.862	83.89
740.176	84.32
740.49	84.88
740.804	83.81
741.117	85.76
741.431	84.15
741.745	83.62
742.058	85.63
742.372	84.63
742.685	86.36
742.999	82.19
743.312	85.8
743.626	82.93
743.939	83.31
744.252	84.74
744.565	85.12
744.878	83.93
745.191	85.21
745.505	85.35
745.817	84.97
746.13	85.84
746.443	83.89
746.756	83.19
747.069	85.31
747.381	84.17
747.694	83.85
748.007	85.82
748.319	85.39
748.632	84.34
748.944	85.15
749.256	83.75
749.569	85.45
749.881	84.4
750.193	85.28
750.505	85.46
750.817	84.19
751.129	84.33
751.441	85.28
751.753	82.9
752.065	83.73
752.377	88.16
752.689	86.16
753	86.88
753.312	86.11
753.624	83.33
753.935	84.63
754.247	86.17
754.558	86.47
754.869	86.1
755.181	84.34
755.492	83.35
755.803	85.33
756.114	86.28
756.425	84.87
756.736	85.02
757.047	86.43
757.358	85.46
757.669	84.14
757.98	84.35
758.291	85.9
758.601	84.32
758.912	86.37
759.223	87.35
759.533	84.96
759.844	85.08
760.154	86.86
760.464	86.41
760.775	84.75
761.085	85.73
761.395	85.44
761.705	86.99
762.016	86.68
762.326	84.74
762.636	87.93
762.945	85.85
763.255	86.41
763.565	85.79
763.875	86.59
764.185	86.55
764.494	85.49
764.804	85.19
765.113	86.33
765.423	88.18
765.732	86.14
766.042	85.61
766.351	86.85
766.66	87.27
766.97	85.89
767.279	86.28
767.588	87.41
767.897	85.35
768.206	85.38
768.515	87.24
768.824	87.99
769.133	85.78
769.441	88.08
769.75	86.61
770.059	86.45
770.367	89.46
770.676	86.24
770.984	87.75
771.293	85.29
771.601	85.4
771.91	86.74
772.218	84.61
772.526	87.1
772.834	87.11
773.142	86.3
773.45	86.46
773.758	86
774.066	85.49
774.374	90.04
774.682	90.32
774.99	87.41
775.298	87.97
775.605	86.94
775.913	86.46
776.22	84.73
776.528	84.13
776.835	86.64
777.143	84.68
777.45	88.19
777.757	86.32
778.065	83.07
778.372	86.97
778.679	88.03
778.986	85.6
779.293	87.27
779.6	84.53
779.907	88.42
780.214	85.26
780.52	88.4
780.827	84.24
781.134	87.32
781.44	91.47
781.747	88.55
782.053	87.16
782.36	86.86
782.666	86.62
782.973	86.29
783.279	88.58
783.585	89.56
783.891	88.94
784.197	90.38
784.503	87.94
784.809	86.38
785.115	86.3
785.421	87.35
785.727	90.38
786.033	90.39
786.339	87.37
786.644	85.19
786.95	91.13
787.255	87.4
787.561	85.64
787.866	87.77
788.172	86.16
788.477	88.42
788.782	88.11
789.088	88.53
789.393	88.3
789.698	88.6
790.003	90.23
790.308	92.56
790.613	84.84
790.918	90.53
791.223	90.48
791.527	91.82
791.832	88.87
792.137	89.83
792.441	86.4
792.746	86.59
793.05	88.7
793.355	89.61
793.659	88.86
793.963	83.49
794.268	92.97
794.572	85.26
794.876	87.65
795.18	88.93
795.484	93.56
795.788	85.85
796.092	92.23
796.396	88.1
796.7	87.26
797.004	86.02
797.307	82.31
797.611	86.16
797.915	88.82
798.218	84.43
798.522	88.91
798.825	87.08
799.128	88.4
799.432	88.23
799.735	90.39
800.038	90.13
800.341	88.31
800.644	91.45
800.947	85.8
801.25	87.97
801.553	91.22
801.856	89.84
802.159	88.29
802.462	89.54
802.764	86.68
803.067	86.87
803.37	88.22
803.672	85.09
803.975	88.77
804.277	88.27
804.579	91.71
804.882	90.53
805.184	86.29
805.486	91.67
805.788	92.87
806.09	84.42
806.392	90.77
806.694	91.77
806.996	84.7
807.298	88.18
807.6	90.8
807.902	86.97
808.203	88.98
808.505	88.19
808.807	90.9
809.108	90.88
809.409	89.59
809.711	92.28
810.012	86.71
810.313	85.05
810.615	90.71
810.916	90.94
811.217	86.2
811.518	87.74
811.819	83.34
812.12	92.19
812.421	86.2
812.722	88.59
813.023	86.98
813.323	89.8
813.624	90.01
813.925	96.07
814.225	93.31
814.526	88.56
814.826	90.8
815.126	89.73
815.427	83.84
815.727	88.23
816.027	91.63
816.327	89.34
816.627	97.43
816.927	90.02
817.227	81.72
817.527	89.22
817.827	88.49
818.127	86.69
818.427	87.21
818.727	97.83
819.026	94.83
819.326	87.96
819.625	89.08
819.925	96.15
820.224	85.47
820.524	86.92
820.823	84.36
821.122	88.39
821.421	89.37
821.72	95.31
822.019	90.29
822.318	88.26
822.617	88.24
822.916	90.37
823.215	91.83
823.514	89.97
823.813	90.45
824.111	92.08
824.41	90.35
824.709	90.46
825.007	91.08
825.306	90.05
825.604	89.47
825.902	90.39
826.201	89.39
826.499	88.67
826.797	88.1
827.095	89.01
827.393	89.89
827.691	88.15
827.989	89.64
828.287	89.5
828.585	90.46
828.882	88.43
829.18	91.18
829.478	90.73
829.775	92.31
830.073	91.29
830.37	91.88
830.668	91.68
830.965	87.94
831.263	88.82
831.56	93.18
831.857	91.03
832.154	87.87
832.451	90.19
832.748	88.88
833.045	90.06
833.342	93.57
833.639	93.75
833.936	88.22
834.232	91.29
834.529	87.86
834.826	92.04
835.122	88.84
835.419	91.22
835.715	87.95
836.012	86.55
836.308	90.39
836.604	90.27
836.901	89.7
837.197	86.37
837.493	93.12
837.789	92.59
838.085	86.38
838.381	92.8
838.677	91.97
838.972	87.11
839.268	88.32
839.564	88.77
839.86	91.17
840.155	90.01
840.451	94.26
840.746	95.59
841.042	92.3
841.337	86.31
841.632	91.78
841.928	86.75
842.223	83.06
842.518	81.63
842.813	86.35
843.108	79.37
843.403	92.96
843.698	97.53
843.993	90.41
844.287	94.72
844.582	100.35
844.877	88.63
845.171	100.32
845.466	89.26
845.761	92.53
846.055	77.6
846.349	82.51
846.644	93.14
846.938	96.22
847.232	83.53
847.526	101.51
847.82	86.59
848.114	74.13
848.408	100.7
848.702	90.7
848.996	100.81
849.29	78.43
849.584	74.34
849.877	83.93
850.171	89.73
850.465	98.1
850.758	84.41
851.052	75.27
851.345	97.99
851.638	109
851.932	83.99
852.225	92.97
852.518	111.65
852.811	96.36
853.104	84.77
853.397	83.89
853.69	110.88
853.983	84.78
854.276	102.68
854.569	84.86
854.861	89.39
855.154	104.03
855.447	99.86
855.739	76.31
856.032	83.25
856.324	91.88
856.616	70.38
856.909	77.01
857.201	106.46
857.493	99.05
857.785	82.78
858.077	113.09
858.369	105.5
858.661	80.72
858.953	87.59
859.245	71.21
859.537	87.38
859.829	85.56
860.12	89.93
860.412	99.84
860.703	94.09
860.995	93.02
861.286	92.94
861.578	83.55
861.869	63.22
862.16	101.05
862.452	93.08
862.743	89.65
863.034	63.02
863.325	96.68
863.616	113.09
863.907	106.25
864.198	110.63
864.488	79.46
864.779	95.91
865.07	80.32
865.36	94.99
865.651	91.57
865.941	98.33
866.232	85.38
866.522	95.6
866.813	66.27
867.103	80.96
867.393	116.81
867.683	91.02
867.973	81.73
868.263	92.96
868.553	75.34
868.843	74.25
869.133	73.46
869.423	96.11
869.713	99.3
870.002	107.09
870.292	74.19
870.582	87.7
870.871	75.7
871.161	114.09
871.45	77.32
871.739	114.4
872.029	70.83
872.318	78.68
872.607	91.47
872.896	69.38
873.185	60.39
873.474	86.76
873.763	103.42
874.052	102.16
874.341	82.78
874.63	93.36
874.918	88.88
875.207	72.38
875.496	95.47
875.784	95.64
876.073	68.88
876.361	86.46
876.649	101.48
876.938	75.01
877.226	99.38
877.514	79.2
877.802	79.54
878.09	60.83
878.378	88.76
878.666	99.85
878.954	115.01
879.242	90.77
879.53	60.59
879.817	82.76
880.105	93.05
880.392	102.13
880.68	88.24
880.967	84.96
881.255	101.02
881.542	107.72
881.83	98.03
882.117	67.52
882.404	74.4
882.691	87.56
882.978	96.67
883.265	88.74
883.552	82.49
883.839	85.81
884.126	82.66
884.413	89.51
884.699	93.47
884.986	93.56
885.273	89.2
885.559	89.2
885.846	89.2
