Data from 0006_forehead_Reflection__1__403.txt Node

Date: Thu Dec 15 19:42:19 CST 2022
User: ToomeyLab
Spectrometer: FLMS14357
Trigger mode: 0
Integration Time (sec): 1.000000E-2
Scans to average: 100
Electric dark correction enabled: true
Nonlinearity correction enabled: false
Boxcar width: 0
XAxis mode: Wavelengths
Number of Pixels in Spectrum: 2048
>>>>>Begin Spectral Data<<<<<
189.047	0.15
189.435	0.15
189.823	0.15
190.211	344.41
190.599	194.56
190.987	-9718.68
191.375	-135.67
191.763	93.66
192.151	1853.52
192.538	357.32
192.926	250.46
193.314	207.5
193.702	45.36
194.089	-437.75
194.477	-61.83
194.864	25.8
195.252	6.13
195.639	185.82
196.027	125.37
196.414	172.87
196.801	47.27
197.189	249.97
197.576	-121.98
197.963	58.01
198.351	-51.6
198.738	-104.79
199.125	1.98
199.512	21.14
199.899	-40.58
200.286	-148.5
200.673	17.19
201.06	11.66
201.447	36.18
201.833	-27.26
202.22	0.75
202.607	-86.56
202.994	-21.29
203.38	-40.71
203.767	-4.73
204.154	9.43
204.54	-20.15
204.927	25.47
205.313	1.23
205.699	17.61
206.086	56.12
206.472	18.23
206.858	4.11
207.245	-18.26
207.631	8.56
208.017	34.24
208.403	-40.63
208.789	-6.11
209.175	-7.55
209.561	-81.12
209.947	-13.11
210.333	-6.79
210.719	13.58
211.105	48.55
211.491	8.88
211.876	-36.19
212.262	-19.81
212.648	-20.09
213.034	-0.55
213.419	3.12
213.805	-50.3
214.19	-60.29
214.576	-48.14
214.961	21.89
215.346	-46.06
215.732	-4.98
216.117	-5.53
216.502	-24.85
216.888	11.96
217.273	-8.92
217.658	-27.73
218.043	-2.01
218.428	-41.71
218.813	8.98
219.198	-38.2
219.583	-26.44
219.968	-8.7
220.353	-28.26
220.738	-21.93
221.122	-14.23
221.507	-39.4
221.892	-46.3
222.276	-31.21
222.661	-27.76
223.046	-8.15
223.43	14.21
223.815	2.35
224.199	-9.39
224.583	-7.33
224.968	-5.09
225.352	-3.75
225.736	10.51
226.121	-2.01
226.505	-7.1
226.889	-2.28
227.273	-7.27
227.657	-0.98
228.041	1.21
228.425	0.19
228.809	-3.41
229.193	2.94
229.577	1.05
229.961	0.75
230.344	1.95
230.728	1.88
231.112	1.84
231.495	0.1
231.879	1.01
232.263	1.56
232.646	0.85
233.03	3.68
233.413	2.81
233.797	0.05
234.18	1.7
234.563	0.74
234.946	1.91
235.33	1.99
235.713	1.56
236.096	2.36
236.479	1.83
236.862	-0.03
237.245	0.53
237.628	2.5
238.011	1.74
238.394	-0.58
238.777	0.98
239.16	4.12
239.543	2.96
239.925	1.31
240.308	1.94
240.691	0.95
241.073	1.12
241.456	1.54
241.838	1.74
242.221	1.35
242.603	1.89
242.986	1.9
243.368	1.82
243.75	1.95
244.133	2.04
244.515	1.47
244.897	1.65
245.279	1.53
245.661	1.91
246.043	2.63
246.425	2.12
246.807	1.51
247.189	1.66
247.571	1.51
247.953	1.5
248.335	1.99
248.717	2.08
249.098	1.93
249.48	1.77
249.862	1.97
250.243	1.77
250.625	1.93
251.006	1.86
251.388	1.38
251.769	1.41
252.151	3.05
252.532	0.89
252.913	2.04
253.295	1.64
253.676	1.91
254.057	2.04
254.438	1.72
254.819	1.65
255.2	2.65
255.581	1.99
255.962	1.57
256.343	2.18
256.724	1.26
257.105	1.4
257.486	0.26
257.867	0.84
258.247	1.55
258.628	2
259.009	1.46
259.389	1.12
259.77	1.91
260.15	2.15
260.531	2.06
260.911	1.87
261.292	2.11
261.672	1.91
262.052	2.07
262.432	1.86
262.813	1.9
263.193	2.01
263.573	2.07
263.953	1.8
264.333	1.76
264.713	1.97
265.093	1.56
265.473	2.1
265.853	1.51
266.233	1.63
266.612	2.32
266.992	1.8
267.372	2.24
267.752	2.5
268.131	1.64
268.511	1.37
268.89	2.32
269.27	1.72
269.649	1.67
270.029	2.36
270.408	1.54
270.787	1.65
271.167	1.92
271.546	2.13
271.925	1.8
272.304	1.95
272.683	1.58
273.062	1.87
273.441	1.81
273.82	1.64
274.199	1.79
274.578	2.03
274.957	2.12
275.336	2.23
275.715	1.77
276.093	1.56
276.472	1.57
276.851	1.9
277.229	1.8
277.608	1.57
277.986	1.7
278.365	1.77
278.743	1.94
279.122	1.45
279.5	1.75
279.878	0.94
280.257	1.99
280.635	1.69
281.013	1.54
281.391	2.07
281.769	2.58
282.147	1.76
282.525	1.64
282.903	1.54
283.281	2.1
283.659	2.14
284.037	1.72
284.415	1.86
284.792	2.12
285.17	1.83
285.548	1.69
285.925	1.83
286.303	2.47
286.68	2.07
287.058	2.12
287.435	1.9
287.813	1.82
288.19	1.85
288.567	1.82
288.945	1.69
289.322	2.08
289.699	2.02
290.076	1.77
290.453	1.64
290.83	2.49
291.207	1.35
291.584	2.37
291.961	2.1
292.338	2.06
292.715	1.92
293.092	2.26
293.469	1.74
293.845	1.83
294.222	2.1
294.599	1.91
294.975	2.01
295.352	2.31
295.728	1.98
296.105	2.37
296.481	2.16
296.858	2.29
297.234	2.07
297.61	2.3
297.986	2.58
298.363	2.39
298.739	2.71
299.115	2.44
299.491	2.64
299.867	2.41
300.243	2.31
300.619	2.21
300.995	2.54
301.371	2.63
301.746	2.49
302.122	2.2
302.498	2.23
302.874	2.83
303.249	2.45
303.625	1.83
304	2.63
304.376	2.54
304.751	3.11
305.127	2.32
305.502	2.74
305.878	2.69
306.253	2.68
306.628	3.08
307.003	2.56
307.378	2.37
307.754	3.01
308.129	2.4
308.504	2.91
308.879	2.89
309.254	3.32
309.629	2.57
310.003	2.71
310.378	3.14
310.753	3
311.128	2.77
311.502	2.99
311.877	2.82
312.252	3.28
312.626	3.27
313.001	3.13
313.375	3.28
313.75	3.54
314.124	3.59
314.498	3.24
314.873	2.77
315.247	2.96
315.621	3.01
315.995	3.45
316.369	3.02
316.743	3.12
317.117	3.25
317.491	3.26
317.865	2.74
318.239	3.95
318.613	3.41
318.987	3.25
319.361	3.93
319.734	3.46
320.108	3.86
320.482	3.84
320.855	4.13
321.229	3.75
321.602	3.56
321.976	2.84
322.349	4.19
322.723	3.81
323.096	3.6
323.469	3.79
323.843	3.44
324.216	3.57
324.589	3.78
324.962	3.91
325.335	3.84
325.708	4.06
326.081	4.39
326.454	4.25
326.827	4.52
327.2	4.24
327.573	4.8
327.945	3.8
328.318	3.81
328.691	4.06
329.063	3.86
329.436	3.64
329.809	4.59
330.181	5.11
330.553	4.85
330.926	4.61
331.298	4.49
331.671	4.53
332.043	4.16
332.415	4.44
332.787	4.62
333.159	4.3
333.532	4.59
333.904	4.39
334.276	4.78
334.648	4.57
335.02	4.17
335.391	4.38
335.763	4.61
336.135	4.78
336.507	4.61
336.879	4.33
337.25	4.66
337.622	4.83
337.993	4.7
338.365	4.68
338.736	4.8
339.108	4.92
339.479	4.59
339.851	5.11
340.222	5.22
340.593	5.03
340.964	4.87
341.336	4.73
341.707	4.68
342.078	4.67
342.449	4.89
342.82	5.07
343.191	5.05
343.562	4.78
343.933	5.1
344.303	5.47
344.674	5.41
345.045	5.39
345.416	5.45
345.786	5.24
346.157	5.63
346.527	5.46
346.898	5.04
347.268	5.52
347.639	5.01
348.009	5.18
348.38	5.32
348.75	5.68
349.12	5.61
349.49	5.5
349.861	5.63
350.231	5.63
350.601	5.59
350.971	5.42
351.341	5.6
351.711	5.52
352.081	5.52
352.45	5.5
352.82	5.61
353.19	5.75
353.56	5.81
353.929	5.84
354.299	5.8
354.669	6
355.038	6.17
355.408	5.92
355.777	6.04
356.147	5.71
356.516	5.57
356.885	5.64
357.254	5.99
357.624	5.6
357.993	6.26
358.362	6.09
358.731	6.48
359.1	6.22
359.469	6.37
359.838	6.26
360.207	6.4
360.576	6.39
360.945	6.21
361.314	6.42
361.682	6.04
362.051	6.49
362.42	6.52
362.788	6.33
363.157	6.27
363.525	6.48
363.894	6.43
364.262	6.31
364.631	6.83
364.999	6.3
365.367	6.5
365.735	6.39
366.104	6.75
366.472	6.67
366.84	6.89
367.208	7.03
367.576	6.64
367.944	6.76
368.312	6.88
368.68	7.21
369.048	6.99
369.416	6.96
369.783	6.81
370.151	7.05
370.519	7.23
370.886	7.05
371.254	7.32
371.621	7.32
371.989	7.05
372.356	7.16
372.724	7.09
373.091	6.93
373.458	6.92
373.826	7.54
374.193	7.41
374.56	7.79
374.927	7.27
375.294	7.55
375.661	7.39
376.028	7.4
376.395	7.94
376.762	7.53
377.129	7.61
377.496	7.68
377.863	7.66
378.229	7.63
378.596	7.64
378.963	7.69
379.329	7.75
379.696	7.68
380.062	7.66
380.429	7.37
380.795	7.96
381.161	7.5
381.528	7.59
381.894	7.79
382.26	8
382.626	7.82
382.993	8.21
383.359	7.79
383.725	7.96
384.091	8.16
384.457	8.11
384.823	7.95
385.188	8.18
385.554	8.02
385.92	8.21
386.286	8.33
386.651	8.29
387.017	8.46
387.383	8.42
387.748	8.6
388.114	8.13
388.479	8.42
388.845	8.19
389.21	8.59
389.575	8.75
389.94	8.95
390.306	8.62
390.671	8.66
391.036	8.73
391.401	8.66
391.766	8.76
392.131	8.76
392.496	8.9
392.861	8.66
393.226	8.68
393.591	8.86
393.956	8.95
394.32	8.85
394.685	9.04
395.05	8.81
395.414	8.96
395.779	9.16
396.143	8.83
396.508	8.95
396.872	8.97
397.236	9.31
397.601	9.1
397.965	9.19
398.329	9.29
398.694	8.96
399.058	9.16
399.422	9.17
399.786	9.27
400.15	9.57
400.514	9.48
400.878	9.58
401.242	9.41
401.605	9.46
401.969	9.46
402.333	9.46
402.697	9.76
403.06	9.79
403.424	9.79
403.787	9.64
404.151	9.64
404.514	9.69
404.878	9.51
405.241	9.76
405.604	9.79
405.968	9.68
406.331	9.96
406.694	9.77
407.057	9.82
407.42	10
407.783	9.93
408.146	10.1
408.509	9.99
408.872	10.19
409.235	10.23
409.598	10.06
409.961	10.24
410.323	10.14
410.686	10.27
411.049	10.26
411.411	10.17
411.774	10.39
412.136	10.33
412.499	10.42
412.861	10.03
413.223	10.42
413.586	10.44
413.948	10.57
414.31	10.53
414.672	10.37
415.035	10.95
415.397	10.27
415.759	10.28
416.121	10.5
416.483	10.68
416.845	10.74
417.206	10.6
417.568	10.57
417.93	10.69
418.292	10.52
418.653	10.36
419.015	10.61
419.377	10.61
419.738	10.74
420.1	10.7
420.461	10.58
420.822	10.73
421.184	10.78
421.545	10.78
421.906	10.72
422.267	10.56
422.629	10.63
422.99	10.67
423.351	10.75
423.712	10.82
424.073	10.87
424.434	11.03
424.795	10.92
425.155	10.84
425.516	10.83
425.877	10.85
426.238	10.87
426.598	11.1
426.959	11.11
427.32	11.13
427.68	11.11
428.041	11.33
428.401	11.24
428.761	11.28
429.122	11.55
429.482	11.4
429.842	11.47
430.202	11.62
430.563	11.62
430.923	11.58
431.283	11.49
431.643	11.69
432.003	11.85
432.363	11.75
432.722	11.76
433.082	11.77
433.442	11.86
433.802	11.75
434.161	11.7
434.521	11.72
434.881	11.75
435.24	11.77
435.6	11.91
435.959	11.84
436.319	11.82
436.678	11.97
437.037	12.06
437.396	12.09
437.756	12.05
438.115	11.93
438.474	12.12
438.833	12.05
439.192	12.17
439.551	12.13
439.91	12.12
440.269	12.12
440.628	12.03
440.987	12.23
441.345	12.22
441.704	12.03
442.063	12.22
442.421	12.15
442.78	12.31
443.138	12.26
443.497	12.31
443.855	12.49
444.214	12.25
444.572	12.65
444.93	12.55
445.288	12.44
445.647	12.56
446.005	12.76
446.363	12.57
446.721	12.51
447.079	12.51
447.437	12.51
447.795	12.54
448.153	12.47
448.51	12.63
448.868	12.58
449.226	12.74
449.584	12.75
449.941	12.77
450.299	12.85
450.656	13
451.014	13.04
451.371	13.04
451.729	13.14
452.086	13.08
452.443	13.38
452.801	13.26
453.158	13.18
453.515	13.15
453.872	13.29
454.229	13.08
454.586	13.16
454.943	13.38
455.3	13.37
455.657	13.3
456.014	13.38
456.371	13.52
456.727	13.48
457.084	13.65
457.441	13.57
457.797	13.47
458.154	13.57
458.51	13.56
458.867	13.82
459.223	13.58
459.58	13.79
459.936	13.7
460.292	13.47
460.648	13.47
461.005	13.49
461.361	13.42
461.717	13.5
462.073	13.52
462.429	13.72
462.785	13.94
463.141	13.84
463.496	14.03
463.852	14.09
464.208	14.09
464.564	14.1
464.919	14.03
465.275	14.18
465.631	14.3
465.986	14.31
466.342	14.14
466.697	14.2
467.052	14.32
467.408	14.28
467.763	14.47
468.118	14.21
468.473	14.38
468.829	14.38
469.184	14.46
469.539	14.39
469.894	14.51
470.249	14.54
470.603	14.8
470.958	14.72
471.313	14.73
471.668	14.74
472.023	14.78
472.377	14.6
472.732	14.66
473.086	14.89
473.441	14.72
473.795	14.94
474.15	14.85
474.504	14.77
474.859	14.73
475.213	15.01
475.567	14.96
475.921	15.03
476.275	15.02
476.63	15.2
476.984	14.79
477.338	15.12
477.692	15.18
478.045	15.24
478.399	15.05
478.753	15.16
479.107	15.24
479.461	15.11
479.814	15.23
480.168	15.21
480.521	15.4
480.875	15.33
481.228	15.34
481.582	15.32
481.935	15.49
482.289	15.47
482.642	15.51
482.995	15.26
483.348	15.29
483.701	15.36
484.055	15.23
484.408	15.09
484.761	14.77
485.114	14.59
485.466	14.52
485.819	14.68
486.172	14.75
486.525	14.88
486.878	14.98
487.23	15.08
487.583	15.32
487.936	15.29
488.288	15.19
488.641	15.09
488.993	15.04
489.345	15.08
489.698	15.16
490.05	15.18
490.402	15.3
490.754	15.47
491.107	15.55
491.459	15.7
491.811	15.73
492.163	15.78
492.515	15.62
492.866	15.47
493.218	15.44
493.57	15.48
493.922	15.63
494.274	15.85
494.625	16.14
494.977	16.05
495.328	16.33
495.68	16.48
496.031	16.41
496.383	16.46
496.734	16.65
497.086	16.6
497.437	16.75
497.788	16.68
498.139	16.43
498.49	16.52
498.842	16.57
499.193	16.44
499.544	16.63
499.894	16.7
500.245	16.79
500.596	16.81
500.947	16.83
501.298	16.91
501.648	16.82
501.999	16.93
502.35	17.04
502.7	17.24
503.051	17.16
503.401	17.18
503.752	17.11
504.102	17.08
504.452	17.15
504.803	17.25
505.153	17.27
505.503	17.26
505.853	17.41
506.203	17.43
506.553	17.34
506.903	17.38
507.253	17.54
507.603	17.49
507.953	17.45
508.303	17.64
508.652	17.56
509.002	17.55
509.352	17.52
509.701	17.4
510.051	17.62
510.4	17.48
510.75	17.42
511.099	17.36
511.449	17.63
511.798	17.57
512.147	17.57
512.496	17.71
512.846	17.82
513.195	17.79
513.544	17.68
513.893	17.75
514.242	17.82
514.591	17.93
514.939	18
515.288	18
515.637	18.03
515.986	18.16
516.334	18.18
516.683	18.18
517.032	18.33
517.38	18.2
517.729	18.28
518.077	18.29
518.426	18.21
518.774	18.17
519.122	18.23
519.47	18.25
519.819	17.99
520.167	18.03
520.515	17.98
520.863	18.07
521.211	18.16
521.559	18.1
521.907	18.23
522.255	18.46
522.602	18.51
522.95	18.59
523.298	18.82
523.645	18.62
523.993	18.77
524.341	18.74
524.688	18.79
525.036	18.8
525.383	18.79
525.73	18.91
526.078	18.97
526.425	18.68
526.772	18.62
527.119	18.61
527.466	18.56
527.814	18.52
528.161	18.72
528.508	18.72
528.854	18.7
529.201	18.59
529.548	18.39
529.895	18.15
530.242	18.19
530.588	18.24
530.935	18.35
531.282	18.44
531.628	18.56
531.975	18.71
532.321	18.9
532.667	19.03
533.014	19.12
533.36	19.27
533.706	19.16
534.052	19.13
534.399	18.83
534.745	18.77
535.091	18.81
535.437	18.81
535.783	19.08
536.129	19.15
536.474	19.43
536.82	19.48
537.166	19.37
537.512	19.66
537.857	19.48
538.203	19.38
538.549	19.31
538.894	19.57
539.239	19.65
539.585	19.84
539.93	19.93
540.276	19.95
540.621	20.01
540.966	20.11
541.311	20.16
541.656	20.07
542.001	19.84
542.346	19.69
542.691	19.4
543.036	19.36
543.381	19.36
543.726	19.62
544.071	19.63
544.415	19.8
544.76	19.89
545.105	20.05
545.449	20.05
545.794	20.12
546.138	20.22
546.483	20.45
546.827	20.33
547.171	20.5
547.516	20.46
547.86	20.36
548.204	20.42
548.548	20.37
548.892	20.45
549.236	20.42
549.58	20.51
549.924	20.85
550.268	21.06
550.612	21.02
550.956	20.95
551.3	21.38
551.643	21.31
551.987	21.36
552.33	21.56
552.674	21.32
553.017	21.33
553.361	21.41
553.704	21.38
554.048	21.16
554.391	21.43
554.734	21.08
555.077	21.47
555.42	21.35
555.764	21.52
556.107	21.61
556.45	21.63
556.793	21.74
557.135	21.93
557.478	21.83
557.821	21.58
558.164	21.73
558.507	21.92
558.849	21.84
559.192	22.04
559.534	21.76
559.877	21.94
560.219	21.77
560.562	21.82
560.904	22.27
561.246	22.19
561.589	22.26
561.931	22.12
562.273	22.02
562.615	22.17
562.957	22.27
563.299	22.17
563.641	22.1
563.983	22.1
564.325	22.23
564.667	22.3
565.008	22.39
565.35	22.25
565.692	22.54
566.033	22.37
566.375	22.36
566.716	22.46
567.058	22.51
567.399	22.36
567.741	22.34
568.082	22.35
568.423	22.3
568.764	22.45
569.105	22.59
569.447	22.72
569.788	22.56
570.129	22.72
570.47	22.49
570.811	22.55
571.151	22.8
571.492	22.81
571.833	22.82
572.174	22.92
572.514	22.76
572.855	23.09
573.195	22.99
573.536	22.96
573.876	22.7
574.217	22.72
574.557	22.88
574.898	22.94
575.238	23.16
575.578	23.11
575.918	23.1
576.258	23.46
576.598	23.17
576.938	23.07
577.278	23.35
577.618	23.39
577.958	23.3
578.298	23.36
578.638	23.46
578.977	23.42
579.317	23.64
579.657	23.45
579.996	23.71
580.336	23.83
580.675	23.63
581.014	23.82
581.354	23.75
581.693	23.84
582.032	23.84
582.372	23.96
582.711	24.08
583.05	24
583.389	23.86
583.728	23.89
584.067	23.82
584.406	24.08
584.745	24.12
585.083	23.95
585.422	24.3
585.761	24.37
586.1	24.37
586.438	24.36
586.777	24.43
587.115	24.46
587.454	24.37
587.792	24.14
588.13	24.36
588.469	24.36
588.807	24.6
589.145	24.42
589.483	24.43
589.821	24.39
590.159	24.7
590.497	24.48
590.835	24.57
591.173	24.72
591.511	24.67
591.849	24.76
592.187	24.43
592.524	24.53
592.862	24.73
593.2	24.98
593.537	24.87
593.875	24.8
594.212	24.92
594.55	24.91
594.887	25.13
595.224	25.21
595.561	25.05
595.899	24.91
596.236	25
596.573	25.09
596.91	24.96
597.247	25.11
597.584	25.13
597.921	24.94
598.258	25.16
598.594	24.92
598.931	24.83
599.268	24.8
599.604	24.95
599.941	25.05
600.277	25.27
600.614	25.24
600.95	25.42
601.287	25.16
601.623	25.33
601.959	25.76
602.296	25.32
602.632	25.54
602.968	25.88
603.304	25.71
603.64	25.55
603.976	25.28
604.312	25.67
604.648	25.58
604.984	25.63
605.319	25.45
605.655	25.51
605.991	25.54
606.326	25.36
606.662	25.49
606.998	25.64
607.333	25.57
607.668	25.82
608.004	25.72
608.339	25.97
608.674	26.28
609.01	26.04
609.345	25.82
609.68	26.02
610.015	26.19
610.35	26.16
610.685	25.68
611.02	25.81
611.355	26
611.689	25.87
612.024	26.1
612.359	26.32
612.694	26.29
613.028	26.25
613.363	26.37
613.697	26.03
614.032	26.43
614.366	26.23
614.7	26.52
615.035	26.74
615.369	26.66
615.703	26.53
616.037	26.64
616.371	26.48
616.705	26.31
617.039	27.05
617.373	26.76
617.707	26.84
618.041	26.76
618.375	26.08
618.709	26.95
619.042	26.78
619.376	26.89
619.71	26.65
620.043	27.17
620.377	27.15
620.71	26.74
621.043	27.26
621.377	27.17
621.71	27.57
622.043	27.19
622.376	27.41
622.709	27.36
623.043	27.2
623.376	27.07
623.709	27.44
624.041	27.31
624.374	27.29
624.707	27.34
625.04	27.39
625.373	27.7
625.705	27.3
626.038	27.61
626.37	27.5
626.703	27.15
627.035	27.34
627.368	27.95
627.7	27.55
628.032	27.47
628.365	27.63
628.697	27.76
629.029	27.51
629.361	27.91
629.693	27.59
630.025	27.69
630.357	27.73
630.689	27.91
631.021	28.05
631.353	28.04
631.684	27.78
632.016	27.6
632.348	27.75
632.679	27.88
633.011	28.08
633.342	28.1
633.674	27.82
634.005	27.91
634.336	28.36
634.668	28.3
634.999	28.35
635.33	28.16
635.661	28.09
635.992	28.11
636.323	28.44
636.654	27.89
636.985	28.17
637.316	28.41
637.647	28.41
637.977	28.41
638.308	28.42
638.639	28.52
638.969	28.65
639.3	28.79
639.63	28.5
639.961	28.58
640.291	28.8
640.622	28.96
640.952	28.72
641.282	28.91
641.612	28.51
641.943	28.61
642.273	28.83
642.603	29.18
642.933	29.2
643.263	28.81
643.592	28.88
643.922	29.22
644.252	29.44
644.582	29.09
644.911	28.75
645.241	28.67
645.571	29.22
645.9	29.23
646.23	29.37
646.559	29.06
646.888	29.39
647.218	29.24
647.547	29.77
647.876	28.83
648.205	29.17
648.534	29.16
648.863	28.99
649.192	29.13
649.521	29.54
649.85	29.4
650.179	29.75
650.508	29.35
650.837	29.63
651.165	29.48
651.494	29.85
651.822	29.66
652.151	28.82
652.479	29.13
652.808	29.52
653.136	29.56
653.465	29.38
653.793	29.49
654.121	29.43
654.449	29.62
654.777	29.45
655.105	29.43
655.433	29.96
655.761	29.76
656.089	29.42
656.417	29.98
656.745	30.11
657.073	29.4
657.4	29.96
657.728	29.41
658.056	29.44
658.383	29.66
658.711	30
659.038	30.26
659.365	30.24
659.693	29.96
660.02	30.01
660.347	29.81
660.674	29.79
661.001	30.03
661.329	30.1
661.656	29.95
661.982	29.84
662.309	30.04
662.636	29.94
662.963	29.95
663.29	30.03
663.616	30.1
663.943	30.32
664.27	30.61
664.596	30.48
664.923	30.15
665.249	30.29
665.576	30.19
665.902	30.25
666.228	30.68
666.554	29.95
666.881	30.24
667.207	30.26
667.533	30.72
667.859	30.54
668.185	30.54
668.511	30.72
668.837	30.6
669.162	30.21
669.488	30.3
669.814	30.08
670.139	30.46
670.465	30.75
670.791	30.53
671.116	31.1
671.442	30.3
671.767	30.48
672.092	30.68
672.418	30.28
672.743	30.18
673.068	31.2
673.393	30.48
673.718	30.39
674.043	31.07
674.368	30.9
674.693	30.81
675.018	31.07
675.343	31.65
675.667	31.14
675.992	31.55
676.317	31.12
676.641	31.28
676.966	31.1
677.29	30.66
677.615	31.46
677.939	31.54
678.264	31.64
678.588	31.39
678.912	31.56
679.236	30.87
679.56	31.3
679.885	31.24
680.209	31.6
680.532	31.43
680.856	31.76
681.18	31.74
681.504	32.12
681.828	31.36
682.152	31.23
682.475	31.63
682.799	31.31
683.122	31.55
683.446	31.17
683.769	32.21
684.093	31.28
684.416	31.27
684.739	31.04
685.062	31.9
685.386	31.57
685.709	31.32
686.032	31.47
686.355	31.86
686.678	32.55
687.001	31.38
687.324	31.66
687.646	31.94
687.969	32.62
688.292	31.43
688.614	32.85
688.937	31.96
689.26	32.44
689.582	32.01
689.904	32.66
690.227	32.19
690.549	31.77
690.871	32.01
691.194	32.57
691.516	32.44
691.838	32.6
692.16	32.14
692.482	32.07
692.804	32.5
693.126	31.54
693.448	32.13
693.769	31.4
694.091	32.02
694.413	32.4
694.735	32.31
695.056	32.59
695.378	32.86
695.699	32.29
696.021	32.48
696.342	32.77
696.663	32.74
696.984	32.19
697.306	32.53
697.627	33.45
697.948	31.91
698.269	32.61
698.59	33
698.911	32.06
699.232	32.44
699.553	32.89
699.873	32.71
700.194	32.31
700.515	32.05
700.835	32.17
701.156	33.05
701.477	32.26
701.797	32.17
702.117	32.38
702.438	33.06
702.758	32.3
703.078	32.71
703.398	32.2
703.719	34.15
704.039	33.27
704.359	33.31
704.679	32.88
704.999	33.4
705.319	32.22
705.638	32.37
705.958	32.6
706.278	33.63
706.597	32.8
706.917	33.33
707.237	32.88
707.556	33.91
707.876	33.47
708.195	33.57
708.514	32.78
708.834	32.9
709.153	34.05
709.472	33.76
709.791	32.46
710.11	33.25
710.429	34.23
710.748	33.97
711.067	33.75
711.386	33.64
711.705	32.96
712.023	33.4
712.342	32.73
712.661	33.65
712.979	33.65
713.298	33.31
713.616	34.23
713.935	33.75
714.253	33.79
714.572	32.81
714.89	32.68
715.208	34.05
715.526	33.47
715.844	33.54
716.162	33.66
716.48	33.48
716.798	33.35
717.116	33.48
717.434	33.48
717.752	33.78
718.069	33.66
718.387	33.64
718.705	33.42
719.022	34.31
719.34	33.17
719.657	33.63
719.975	34
720.292	32.85
720.609	33.01
720.927	33.8
721.244	33.71
721.561	33.57
721.878	34.19
722.195	33.3
722.512	34.79
722.829	33.46
723.146	32.78
723.463	34.66
723.779	32.99
724.096	32.91
724.413	33.31
724.729	33.8
725.046	34.17
725.362	34.15
725.679	33.77
725.995	34.07
726.311	34.52
726.628	33.92
726.944	34.76
727.26	33.88
727.576	34.22
727.892	34.81
728.208	33.73
728.524	32.66
728.84	33.89
729.156	33.71
729.472	33.34
729.787	35.09
730.103	33.15
730.419	32.78
730.734	34.74
731.05	33.25
731.365	35.61
731.681	34.11
731.996	34.68
732.311	33.24
732.626	34.86
732.942	33.2
733.257	33.07
733.572	33.82
733.887	34.85
734.202	35.5
734.517	34.42
734.832	34.3
735.146	34.63
735.461	34.35
735.776	34.76
736.091	33.76
736.405	34.15
736.72	33.76
737.034	34.24
737.349	33.96
737.663	35.17
737.977	34.84
738.292	33.62
738.606	35.67
738.92	34.8
739.234	35.17
739.548	36.1
739.862	34.42
740.176	33.46
740.49	35.01
740.804	35.27
741.117	34.89
741.431	34.96
741.745	34.1
742.058	33.2
742.372	33.82
742.685	35.68
742.999	34.52
743.312	32.79
743.626	36.35
743.939	34.6
744.252	34.03
744.565	35.78
744.878	33.83
745.191	34.1
745.505	35.9
745.817	33.85
746.13	34.96
746.443	35.31
746.756	34.4
747.069	34.36
747.381	34.53
747.694	34.68
748.007	34.54
748.319	35.04
748.632	35.54
748.944	36.03
749.256	36.19
749.569	34.73
749.881	35.74
750.193	34.07
750.505	34.93
750.817	35.81
751.129	36.56
751.441	34.96
751.753	35.78
752.065	35.28
752.377	35.01
752.689	33.76
753	34.93
753.312	35.95
753.624	34.29
753.935	35.26
754.247	35.39
754.558	34.11
754.869	34.85
755.181	34.93
755.492	34.47
755.803	35.56
756.114	34.02
756.425	33.08
756.736	36.45
757.047	36.18
757.358	34.71
757.669	35.82
757.98	35.67
758.291	35.99
758.601	35.21
758.912	35.05
759.223	36.25
759.533	36.57
759.844	35.74
760.154	34.82
760.464	35.18
760.775	36.68
761.085	36.89
761.395	34.94
761.705	35.17
762.016	36.89
762.326	36.99
762.636	36.34
762.945	35.83
763.255	34.75
763.565	34.32
763.875	34.85
764.185	37.46
764.494	35.53
764.804	35.08
765.113	36.78
765.423	36.38
765.732	35.7
766.042	36.43
766.351	36.06
766.66	37.31
766.97	35.77
767.279	36.3
767.588	34.67
767.897	34.99
768.206	35.96
768.515	35.55
768.824	35.88
769.133	33.19
769.441	35.68
769.75	35.68
770.059	37.25
770.367	37.2
770.676	35.39
770.984	34.12
771.293	35.97
771.601	35.05
771.91	35.56
772.218	34.83
772.526	36.87
772.834	35.06
773.142	37.54
773.45	36.63
773.758	34.38
774.066	36.22
774.374	37.05
774.682	35.99
774.99	34.19
775.298	35.49
775.605	34.09
775.913	37.39
776.22	34.32
776.528	36.07
776.835	36.25
777.143	39.32
777.45	36.98
777.757	35.49
778.065	34.87
778.372	37.76
778.679	37.83
778.986	34.09
779.293	37.01
779.6	36.28
779.907	35.44
780.214	35.14
780.52	39.34
780.827	34.69
781.134	35.02
781.44	35.31
781.747	36.29
782.053	33.38
782.36	36.42
782.666	33.16
782.973	34.8
783.279	33.78
783.585	34.64
783.891	34.79
784.197	36.59
784.503	34.23
784.809	38.12
785.115	35.69
785.421	36.01
785.727	38.2
786.033	34.45
786.339	37.41
786.644	30.02
786.95	33.27
787.255	37.15
787.561	35.96
787.866	36.79
788.172	36.18
788.477	32.7
788.782	35.08
789.088	32.21
789.393	37.07
789.698	36.13
790.003	33.25
790.308	38.28
790.613	35.17
790.918	37.65
791.223	37.96
791.527	38.89
791.832	41.54
792.137	37.01
792.441	32.85
792.746	36.68
793.05	38.02
793.355	31.67
793.659	34.94
793.963	36.32
794.268	38.11
794.572	33.94
794.876	32.4
795.18	38.25
795.484	37.86
795.788	40.44
796.092	37.34
796.396	28.19
796.7	33.75
797.004	33.77
797.307	33.97
797.611	37.24
797.915	37.14
798.218	34.08
798.522	31.85
798.825	38.67
799.128	37.47
799.432	36.62
799.735	32.85
800.038	39.5
800.341	38.78
800.644	35.02
800.947	42.18
801.25	35.83
801.553	39.03
801.856	40.09
802.159	31.95
802.462	35.63
802.764	35.74
803.067	37.25
803.37	37.32
803.672	31.68
803.975	32.32
804.277	36.44
804.579	40.9
804.882	36.94
805.184	42
805.486	37.73
805.788	35.76
806.09	32
806.392	32.61
806.694	34.37
806.996	38.38
807.298	38.12
807.6	35.17
807.902	37.98
808.203	35.44
808.505	30.38
808.807	38.57
809.108	36.27
809.409	34.26
809.711	33.72
810.012	38.05
810.313	38.74
810.615	36.17
810.916	33.78
811.217	32.54
811.518	34.35
811.819	34.63
812.12	36
812.421	35.08
812.722	33.84
813.023	43.46
813.323	33.69
813.624	35.95
813.925	35.33
814.225	34.18
814.526	35.93
814.826	37.41
815.126	35.16
815.427	29.19
815.727	37.79
816.027	38.39
816.327	37.97
816.627	38.75
816.927	39.85
817.227	34.68
817.527	36.33
817.827	34.83
818.127	36.18
818.427	36.37
818.727	35.32
819.026	33.98
819.326	33.03
819.625	40.39
819.925	39.52
820.224	37.09
820.524	33.39
820.823	41.02
821.122	31.23
821.421	32.43
821.72	40.57
822.019	34.39
822.318	41.57
822.617	38
822.916	36.25
823.215	36
823.514	40.97
823.813	36.27
824.111	38.15
824.41	39.02
824.709	39.06
825.007	39.32
825.306	38.96
825.604	38.51
825.902	39.07
826.201	38.38
826.499	37.97
826.797	38.3
827.095	38.89
827.393	40.58
827.691	40.4
827.989	39.23
828.287	39.32
828.585	38.6
828.882	37.35
829.18	40.58
829.478	39.33
829.775	39.25
830.073	39
830.37	39.8
830.668	37.7
830.965	39.39
831.263	37.58
831.56	40.14
831.857	39.35
832.154	36.45
832.451	39.14
832.748	38.72
833.045	39.02
833.342	36.88
833.639	38.09
833.936	34.23
834.232	35.05
834.529	27.5
834.826	43.68
835.122	36.24
835.419	39.92
835.715	37.14
836.012	36.2
836.308	38.52
836.604	36.43
836.901	37.85
837.197	40.11
837.493	39.52
837.789	36.31
838.085	37.19
838.381	36.34
838.677	41.09
838.972	30.97
839.268	35.16
839.564	37.77
839.86	32.99
840.155	37.14
840.451	31.31
840.746	27.81
841.042	34.63
841.337	30.5
841.632	34.21
841.928	43.92
842.223	35.23
842.518	39.73
842.813	30.1
843.108	37.01
843.403	45.33
843.698	35.85
843.993	42.56
844.287	33.6
844.582	34.25
844.877	29.56
845.171	38.64
845.466	33.99
845.761	28.89
846.055	40.32
846.349	34.47
846.644	31.96
846.938	36.26
847.232	32.5
847.526	34.92
847.82	38.92
848.114	29.75
848.408	33.93
848.702	32.76
848.996	24.27
849.29	45.48
849.584	49.74
849.877	33.01
850.171	21.79
850.465	35.74
850.758	12.71
851.052	25.68
851.345	35.14
851.638	28.21
851.932	27.83
852.225	34.33
852.518	23.81
852.811	8.5
853.104	32.91
853.397	29.91
853.69	40.67
853.983	33.19
854.276	30.38
854.569	32.92
854.861	1.35
855.154	38.24
855.447	15.71
855.739	-7.42
856.032	37.28
856.324	46.19
856.616	27.87
856.909	14.69
857.201	19.46
857.493	14.35
857.785	22.7
858.077	8.73
858.369	18.84
858.661	34.71
858.953	30.05
859.245	38.23
859.537	3.75
859.829	51.01
860.12	21.33
860.412	48.38
860.703	32.63
860.995	32.29
861.286	-3.68
861.578	21.15
861.869	18.73
862.16	25.27
862.452	26.42
862.743	16.39
863.034	19.7
863.325	33.46
863.616	48.95
863.907	32.21
864.198	18.97
864.488	35.53
864.779	38.86
865.07	29.62
865.36	41.96
865.651	59.57
865.941	19.68
866.232	29.52
866.522	37.6
866.813	22.28
867.103	17.26
867.393	45.87
867.683	26.72
867.973	22.72
868.263	27.08
868.553	24.56
868.843	39.7
869.133	15.74
869.423	-1.17
869.713	25.12
870.002	43.62
870.292	-9.81
870.582	9.6
870.871	29.55
871.161	38.32
871.45	9.55
871.739	36.76
872.029	28.45
872.318	17.48
872.607	47.88
872.896	44.55
873.185	43.31
873.474	9.64
873.763	34.36
874.052	26.33
874.341	13.61
874.63	23.29
874.918	34.32
875.207	-19.93
875.496	40.63
875.784	-9.29
876.073	49.41
876.361	25.24
876.649	19.08
876.938	33.46
877.226	40.38
877.514	32.62
877.802	16.39
878.09	36.36
878.378	8.78
878.666	55.91
878.954	53.02
879.242	44.33
879.53	37.25
879.817	22.67
880.105	29.02
880.392	28.96
880.68	25.54
880.967	21.8
881.255	53.34
881.542	6.26
881.83	15.02
882.117	20.58
882.404	6.22
882.691	24.69
882.978	40.55
883.265	43.14
883.552	30.69
883.839	45.87
884.126	35.42
884.413	48.29
884.699	37.15
884.986	38.1
885.273	49.24
885.559	49.24
885.846	49.24
