Data from 0062_crown_Reflection__3__201.txt Node

Date: Fri Dec 16 15:33:55 CST 2022
User: ToomeyLab
Spectrometer: FLMS14357
Trigger mode: 0
Integration Time (sec): 1.000000E-2
Scans to average: 100
Electric dark correction enabled: true
Nonlinearity correction enabled: false
Boxcar width: 0
XAxis mode: Wavelengths
Number of Pixels in Spectrum: 2048
>>>>>Begin Spectral Data<<<<<
189.047	-399.41
189.435	-399.41
189.823	-399.41
190.211	25.44
190.599	97.09
190.987	-18.75
191.375	21.66
191.763	154.9
192.151	-47.67
192.538	70.02
192.926	18.64
193.314	138.36
193.702	122.55
194.089	98.48
194.477	128.27
194.864	592.39
195.252	-12.51
195.639	67.99
196.027	-69.42
196.414	31.54
196.801	519.4
197.189	246.3
197.576	-480.04
197.963	-82.11
198.351	24.81
198.738	20.44
199.125	23.98
199.512	-29.82
199.899	-20.89
200.286	-184.28
200.673	-3.26
201.06	23.76
201.447	28.32
201.833	23.67
202.22	22.29
202.607	-46.02
202.994	14.02
203.38	-13.37
203.767	-47.91
204.154	-65.8
204.54	6.94
204.927	11.62
205.313	44.63
205.699	12.53
206.086	-7.69
206.472	-24
206.858	-1.62
207.245	-17.58
207.631	-23.71
208.017	17.19
208.403	-5.75
208.789	29.58
209.175	36.71
209.561	-3.08
209.947	-18.02
210.333	-67.05
210.719	-9.28
211.105	-44.08
211.491	-41.81
211.876	-1.73
212.262	-62.01
212.648	-53.35
213.034	-5.81
213.419	29.54
213.805	-8.64
214.19	-18.7
214.576	-12.92
214.961	-45.52
215.346	-28.21
215.732	-31.87
216.117	-8.09
216.502	-18.68
216.888	-17.16
217.273	24.59
217.658	-11.36
218.043	0.02
218.428	-5.37
218.813	-9.64
219.198	-47.5
219.583	14.52
219.968	1.64
220.353	0.64
220.738	-11.34
221.122	-6.48
221.507	2.86
221.892	4.14
222.276	6.58
222.661	-7.19
223.046	-6.18
223.43	-3.73
223.815	6.11
224.199	4.15
224.583	-2.71
224.968	3.76
225.352	8.42
225.736	9.5
226.121	-3.23
226.505	1.46
226.889	6.12
227.273	6.95
227.657	3.6
228.041	6.92
228.425	5.95
228.809	5.92
229.193	2.69
229.577	5.03
229.961	5.97
230.344	7.18
230.728	6.15
231.112	5.8
231.495	4.36
231.879	6.99
232.263	5.5
232.646	6.75
233.03	4.76
233.413	6.82
233.797	9.88
234.18	-0.53
234.563	5.09
234.946	7.08
235.33	7.68
235.713	6.6
236.096	5.75
236.479	6.07
236.862	6.31
237.245	6.78
237.628	7.4
238.011	6.38
238.394	7.76
238.777	6.53
239.16	4.7
239.543	6.27
239.925	6.62
240.308	5.79
240.691	5.82
241.073	6.85
241.456	4.44
241.838	6.24
242.221	7.15
242.603	5.39
242.986	7.23
243.368	6.12
243.75	6.11
244.133	6.4
244.515	6.16
244.897	5.61
245.279	5.7
245.661	5.48
246.043	5.79
246.425	6.11
246.807	5.57
247.189	6.38
247.571	6.5
247.953	5.95
248.335	6.38
248.717	6.12
249.098	6.23
249.48	5.73
249.862	6.02
250.243	5.68
250.625	6.26
251.006	5.56
251.388	6.35
251.769	5.91
252.151	5.67
252.532	5.5
252.913	6.66
253.295	6.23
253.676	6.16
254.057	5.65
254.438	5.59
254.819	5.81
255.2	5.4
255.581	5.01
255.962	5.77
256.343	5.71
256.724	4.86
257.105	5.44
257.486	5.15
257.867	4.74
258.247	5.48
258.628	6.29
259.009	5.46
259.389	5.95
259.77	5.7
260.15	6.23
260.531	6.07
260.911	5.77
261.292	5.77
261.672	5.27
262.052	5.69
262.432	5.68
262.813	6.18
263.193	5.26
263.573	5.94
263.953	5.42
264.333	5.22
264.713	4.74
265.093	5.09
265.473	6.63
265.853	6.31
266.233	5.27
266.612	5.94
266.992	5.06
267.372	5.51
267.752	5.61
268.131	5.54
268.511	5.68
268.89	5.56
269.27	5.77
269.649	6.05
270.029	5.74
270.408	5.24
270.787	5.29
271.167	5.56
271.546	5.01
271.925	5.12
272.304	5.62
272.683	5.48
273.062	5.67
273.441	5.74
273.82	5.7
274.199	5.78
274.578	5.1
274.957	5.78
275.336	5.23
275.715	5.85
276.093	6
276.472	5.14
276.851	5.42
277.229	5.95
277.608	5.31
277.986	5.69
278.365	5.23
278.743	5.78
279.122	4.92
279.5	4.62
279.878	4.99
280.257	5.46
280.635	5.03
281.013	5.92
281.391	5.67
281.769	5.2
282.147	5.76
282.525	4.75
282.903	5.51
283.281	5.59
283.659	5.28
284.037	5.08
284.415	5.2
284.792	5.13
285.17	4.81
285.548	4.89
285.925	4.96
286.303	4.97
286.68	5.24
287.058	5.17
287.435	5.05
287.813	5.1
288.19	5.46
288.567	5
288.945	4.81
289.322	4.99
289.699	4.49
290.076	5.15
290.453	5.06
290.83	4.83
291.207	5.25
291.584	4.75
291.961	5.43
292.338	5.03
292.715	5.19
293.092	4.32
293.469	5.17
293.845	5.43
294.222	4.98
294.599	5.04
294.975	5.77
295.352	4.48
295.728	4.93
296.105	5.23
296.481	5.2
296.858	5.39
297.234	4.88
297.61	5.21
297.986	5.14
298.363	4.47
298.739	5.07
299.115	4.71
299.491	5.08
299.867	5.12
300.243	5.09
300.619	5.17
300.995	4.43
301.371	4.99
301.746	4.71
302.122	5.17
302.498	5.25
302.874	5.24
303.249	4.95
303.625	5
304	4.59
304.376	4.86
304.751	4.85
305.127	4.88
305.502	5.36
305.878	4.54
306.253	4.53
306.628	5.05
307.003	5.28
307.378	4.35
307.754	5.07
308.129	4.21
308.504	4.73
308.879	4.5
309.254	4.91
309.629	4.46
310.003	5.19
310.378	4.84
310.753	5.13
311.128	4.74
311.502	4.49
311.877	4.57
312.252	4.44
312.626	5.1
313.001	4.5
313.375	4.71
313.75	4.4
314.124	4.65
314.498	4.6
314.873	4.39
315.247	4.08
315.621	4.62
315.995	4.59
316.369	4.86
316.743	4.95
317.117	4.75
317.491	4.5
317.865	4.22
318.239	4.86
318.613	4.61
318.987	4.42
319.361	4.56
319.734	3.95
320.108	4.46
320.482	4.69
320.855	4.78
321.229	5.02
321.602	4.7
321.976	4.38
322.349	4.26
322.723	3.39
323.096	4.42
323.469	4.64
323.843	4.4
324.216	4.17
324.589	5.2
324.962	4.54
325.335	4.44
325.708	4.61
326.081	5.28
326.454	4.28
326.827	4.82
327.2	4.91
327.573	4.58
327.945	4.35
328.318	4.38
328.691	4.54
329.063	4.25
329.436	4.46
329.809	4.38
330.181	4.41
330.553	4.46
330.926	4.5
331.298	4.19
331.671	4.58
332.043	4.3
332.415	4.57
332.787	4.91
333.159	4.53
333.532	4.19
333.904	4.51
334.276	4.33
334.648	4.36
335.02	4.38
335.391	4.58
335.763	3.94
336.135	4.54
336.507	4.63
336.879	4.51
337.25	3.84
337.622	4.25
337.993	4.74
338.365	4.78
338.736	4.48
339.108	3.96
339.479	4.38
339.851	4.65
340.222	4.4
340.593	4.08
340.964	4.51
341.336	4.24
341.707	4.68
342.078	4.13
342.449	4.88
342.82	4.42
343.191	4.1
343.562	4.68
343.933	4.58
344.303	4.3
344.674	4.5
345.045	4.53
345.416	4.2
345.786	3.86
346.157	4.44
346.527	4.14
346.898	4.42
347.268	4.67
347.639	3.98
348.009	4.51
348.38	4.32
348.75	4.38
349.12	4.26
349.49	4.62
349.861	4.83
350.231	4.42
350.601	4.27
350.971	4.5
351.341	4.39
351.711	4.41
352.081	4.51
352.45	4.46
352.82	4.64
353.19	4.37
353.56	4.68
353.929	4.6
354.299	4.57
354.669	4.53
355.038	4.29
355.408	4.7
355.777	4.12
356.147	4.58
356.516	4.57
356.885	4.72
357.254	4.47
357.624	4.44
357.993	4.53
358.362	4.6
358.731	4.58
359.1	4.63
359.469	4.45
359.838	4.52
360.207	4.17
360.576	4.37
360.945	4.83
361.314	4.6
361.682	4.33
362.051	4.45
362.42	4.85
362.788	4.33
363.157	4.27
363.525	4.38
363.894	4.43
364.262	4.31
364.631	5.16
364.999	4.29
365.367	4.8
365.735	4.1
366.104	4.22
366.472	4.66
366.84	4.54
367.208	4.32
367.576	4.61
367.944	4.59
368.312	4.04
368.68	4.65
369.048	4.51
369.416	4.54
369.783	4.37
370.151	4.32
370.519	4.48
370.886	4.37
371.254	4.69
371.621	4.76
371.989	4.68
372.356	4.47
372.724	4.4
373.091	4.57
373.458	4.36
373.826	4.64
374.193	5.18
374.56	4.19
374.927	4.52
375.294	4.89
375.661	4.55
376.028	4.93
376.395	4.5
376.762	4.97
377.129	4.75
377.496	4.75
377.863	4.81
378.229	4.51
378.596	4.47
378.963	4.67
379.329	4.52
379.696	4.83
380.062	4.81
380.429	4.75
380.795	4.71
381.161	4.42
381.528	4.24
381.894	4.87
382.26	4.45
382.626	4.71
382.993	4.26
383.359	4.45
383.725	4.9
384.091	4.81
384.457	4.82
384.823	4.69
385.188	4.83
385.554	4.85
385.92	4.78
386.286	5.18
386.651	4.72
387.017	4.96
387.383	4.74
387.748	4.5
388.114	4.72
388.479	4.56
388.845	4.74
389.21	4.9
389.575	4.78
389.94	4.74
390.306	4.68
390.671	4.73
391.036	4.73
391.401	4.98
391.766	4.85
392.131	4.82
392.496	4.72
392.861	4.88
393.226	4.98
393.591	5.08
393.956	4.86
394.32	4.97
394.685	5.22
395.05	4.81
395.414	4.9
395.779	4.69
396.143	4.98
396.508	4.92
396.872	5
397.236	4.49
397.601	5.03
397.965	4.8
398.329	4.99
398.694	4.82
399.058	5
399.422	5.06
399.786	4.81
400.15	5
400.514	4.97
400.878	5.09
401.242	5.25
401.605	4.97
401.969	4.93
402.333	4.74
402.697	5.07
403.06	5.01
403.424	4.96
403.787	5.03
404.151	4.7
404.514	4.86
404.878	5.18
405.241	5.11
405.604	5.1
405.968	5
406.331	5.17
406.694	5.13
407.057	5.3
407.42	4.86
407.783	4.83
408.146	5.1
408.509	4.98
408.872	4.87
409.235	5.06
409.598	5.27
409.961	4.97
410.323	5.22
410.686	5.03
411.049	5.23
411.411	4.93
411.774	5.12
412.136	5.17
412.499	5.07
412.861	5.05
413.223	5.27
413.586	4.93
413.948	5.02
414.31	5.02
414.672	4.97
415.035	5.19
415.397	5.19
415.759	5.12
416.121	5.21
416.483	5.39
416.845	5.03
417.206	5.44
417.568	5.09
417.93	5.09
418.292	4.96
418.653	5.32
419.015	5.23
419.377	5.26
419.738	5.05
420.1	5.12
420.461	5.08
420.822	5.16
421.184	5.08
421.545	5.12
421.906	5.11
422.267	4.95
422.629	5.1
422.99	5.06
423.351	5.06
423.712	5.12
424.073	5.19
424.434	5.08
424.795	5.06
425.155	5.18
425.516	5.08
425.877	5.12
426.238	5.06
426.598	5.16
426.959	5.11
427.32	5.24
427.68	5.22
428.041	5.26
428.401	5.08
428.761	5.13
429.122	5.13
429.482	5.22
429.842	5.3
430.202	5.28
430.563	5.18
430.923	5.32
431.283	5.3
431.643	5.23
432.003	5.43
432.363	5.34
432.722	5.26
433.082	5.29
433.442	5.23
433.802	5.27
434.161	5.35
434.521	5.28
434.881	5.41
435.24	5.25
435.6	5.32
435.959	5.29
436.319	5.18
436.678	5.44
437.037	5.37
437.396	5.35
437.756	5.27
438.115	5.42
438.474	5.3
438.833	5.38
439.192	5.6
439.551	5.39
439.91	5.34
440.269	5.53
440.628	5.4
440.987	5.2
441.345	5.36
441.704	5.38
442.063	5.39
442.421	5.34
442.78	5.3
443.138	5.35
443.497	5.19
443.855	5.31
444.214	5.52
444.572	5.26
444.93	5.43
445.288	5.37
445.647	5.46
446.005	5.32
446.363	5.31
446.721	5.22
447.079	5.39
447.437	5.35
447.795	5.36
448.153	5.29
448.51	5.31
448.868	5.45
449.226	5.36
449.584	5.34
449.941	5.49
450.299	5.41
450.656	5.43
451.014	5.5
451.371	5.52
451.729	5.32
452.086	5.33
452.443	5.4
452.801	5.49
453.158	5.33
453.515	5.41
453.872	5.63
454.229	5.42
454.586	5.5
454.943	5.39
455.3	5.52
455.657	5.35
456.014	5.68
456.371	5.56
456.727	5.37
457.084	5.44
457.441	5.39
457.797	5.53
458.154	5.4
458.51	5.46
458.867	5.49
459.223	5.52
459.58	5.51
459.936	5.41
460.292	5.57
460.648	5.35
461.005	5.32
461.361	5.38
461.717	5.36
462.073	5.4
462.429	5.65
462.785	5.63
463.141	5.61
463.496	5.5
463.852	5.6
464.208	5.6
464.564	5.57
464.919	5.53
465.275	5.49
465.631	5.58
465.986	5.52
466.342	5.59
466.697	5.51
467.052	5.63
467.408	5.72
467.763	5.58
468.118	5.55
468.473	5.67
468.829	5.58
469.184	5.66
469.539	5.48
469.894	5.7
470.249	5.64
470.603	5.56
470.958	5.65
471.313	5.48
471.668	5.68
472.023	5.64
472.377	5.51
472.732	5.48
473.086	5.65
473.441	5.63
473.795	5.8
474.15	5.74
474.504	5.6
474.859	5.65
475.213	5.66
475.567	5.56
475.921	5.77
476.275	5.62
476.63	5.84
476.984	5.59
477.338	5.87
477.692	5.62
478.045	5.56
478.399	5.73
478.753	5.61
479.107	5.67
479.461	5.76
479.814	5.64
480.168	5.62
480.521	5.61
480.875	5.81
481.228	5.64
481.582	5.54
481.935	5.71
482.289	5.53
482.642	5.67
482.995	5.72
483.348	5.62
483.701	5.59
484.055	5.53
484.408	5.56
484.761	5.38
485.114	5.4
485.466	5.35
485.819	5.38
486.172	5.41
486.525	5.45
486.878	5.46
487.23	5.56
487.583	5.61
487.936	5.57
488.288	5.56
488.641	5.56
488.993	5.41
489.345	5.49
489.698	5.48
490.05	5.51
490.402	5.59
490.754	5.69
491.107	5.67
491.459	5.73
491.811	5.73
492.163	5.7
492.515	5.64
492.866	5.47
493.218	5.5
493.57	5.58
493.922	5.56
494.274	5.66
494.625	5.66
494.977	5.64
495.328	5.78
495.68	5.87
496.031	5.81
496.383	5.72
496.734	5.89
497.086	5.78
497.437	5.75
497.788	5.71
498.139	5.8
498.49	5.82
498.842	5.7
499.193	5.77
499.544	5.84
499.894	5.77
500.245	5.84
500.596	5.83
500.947	5.77
501.298	5.88
501.648	5.94
501.999	6.01
502.35	6.09
502.7	5.83
503.051	5.99
503.401	5.9
503.752	5.87
504.102	5.81
504.452	5.85
504.803	5.84
505.153	5.82
505.503	5.8
505.853	5.82
506.203	5.99
506.553	5.96
506.903	5.86
507.253	6
507.603	5.85
507.953	6.07
508.303	6.01
508.652	5.9
509.002	5.96
509.352	5.91
509.701	5.79
510.051	5.94
510.4	5.94
510.75	5.91
511.099	5.89
511.449	5.86
511.798	5.97
512.147	5.98
512.496	5.97
512.846	5.93
513.195	5.91
513.544	5.98
513.893	5.79
514.242	5.95
514.591	5.97
514.939	5.88
515.288	6.04
515.637	6.09
515.986	5.89
516.334	6.07
516.683	6.01
517.032	6.04
517.38	6.07
517.729	5.98
518.077	6.1
518.426	6.02
518.774	5.91
519.122	6
519.47	6
519.819	5.92
520.167	5.93
520.515	5.95
520.863	5.87
521.211	5.86
521.559	5.91
521.907	5.87
522.255	6.06
522.602	6.09
522.95	6.12
523.298	6.08
523.645	6.03
523.993	6.18
524.341	5.93
524.688	5.95
525.036	6.09
525.383	6.13
525.73	6.09
526.078	6.09
526.425	5.99
526.772	5.83
527.119	5.9
527.466	5.91
527.814	5.94
528.161	5.96
528.508	6
528.854	5.86
529.201	5.87
529.548	5.82
529.895	5.79
530.242	5.74
530.588	5.8
530.935	5.83
531.282	5.85
531.628	5.89
531.975	5.95
532.321	6.02
532.667	6.03
533.014	6.04
533.36	6.03
533.706	6.04
534.052	5.9
534.399	5.93
534.745	5.86
535.091	5.94
535.437	5.99
535.783	6.02
536.129	5.97
536.474	6.16
536.82	6.05
537.166	6.08
537.512	6.07
537.857	6.04
538.203	6.05
538.549	6.15
538.894	6.06
539.239	6.15
539.585	6.12
539.93	6.22
540.276	6.2
540.621	6.15
540.966	6.26
541.311	6.21
541.656	6.08
542.001	6.18
542.346	6.02
542.691	6
543.036	6.01
543.381	6
543.726	6.07
544.071	6.14
544.415	6.08
544.76	6.06
545.105	6.05
545.449	6.14
545.794	6.14
546.138	6.18
546.483	6.14
546.827	6.25
547.171	6.21
547.516	6.26
547.86	6.26
548.204	6.19
548.548	6.33
548.892	6.27
549.236	6.29
549.58	6.3
549.924	6.34
550.268	6.34
550.612	6.4
550.956	6.38
551.3	6.44
551.643	6.33
551.987	6.27
552.33	6.3
552.674	6.5
553.017	6.39
553.361	6.48
553.704	6.31
554.048	6.45
554.391	6.29
554.734	6.48
555.077	6.47
555.42	6.37
555.764	6.42
556.107	6.4
556.45	6.26
556.793	6.44
557.135	6.6
557.478	6.52
557.821	6.42
558.164	6.57
558.507	6.36
558.849	6.33
559.192	6.68
559.534	6.31
559.877	6.57
560.219	6.53
560.562	6.56
560.904	6.39
561.246	6.56
561.589	6.54
561.931	6.67
562.273	6.49
562.615	6.65
562.957	6.52
563.299	6.58
563.641	6.55
563.983	6.55
564.325	6.33
564.667	6.62
565.008	6.53
565.35	6.46
565.692	6.6
566.033	6.53
566.375	6.43
566.716	6.43
567.058	6.62
567.399	6.7
567.741	6.57
568.082	6.46
568.423	6.44
568.764	6.66
569.105	6.55
569.447	6.55
569.788	6.67
570.129	6.64
570.47	6.71
570.811	6.8
571.151	6.51
571.492	6.65
571.833	6.7
572.174	6.65
572.514	6.55
572.855	6.59
573.195	6.47
573.536	6.44
573.876	6.53
574.217	6.52
574.557	6.68
574.898	6.36
575.238	6.42
575.578	6.63
575.918	6.65
576.258	6.66
576.598	6.53
576.938	6.73
577.278	6.51
577.618	6.6
577.958	6.53
578.298	6.79
578.638	6.56
578.977	6.65
579.317	6.8
579.657	6.74
579.996	6.63
580.336	6.46
580.675	6.7
581.014	6.68
581.354	6.64
581.693	6.58
582.032	6.71
582.372	6.72
582.711	6.59
583.05	6.91
583.389	6.73
583.728	6.81
584.067	6.78
584.406	6.78
584.745	6.62
585.083	6.99
585.422	6.71
585.761	6.73
586.1	6.86
586.438	6.65
586.777	6.81
587.115	6.78
587.454	6.78
587.792	6.6
588.13	7.14
588.469	6.92
588.807	6.91
589.145	6.9
589.483	6.7
589.821	6.78
590.159	6.65
590.497	6.7
590.835	6.73
591.173	6.7
591.511	6.93
591.849	6.81
592.187	6.94
592.524	6.71
592.862	6.94
593.2	6.8
593.537	6.89
593.875	6.85
594.212	6.9
594.55	6.85
594.887	7.09
595.224	6.72
595.561	7.06
595.899	6.59
596.236	6.69
596.573	6.87
596.91	6.96
597.247	6.85
597.584	7
597.921	6.75
598.258	6.91
598.594	6.77
598.931	6.74
599.268	6.87
599.604	6.99
599.941	6.86
600.277	6.77
600.614	6.94
600.95	6.87
601.287	7.03
601.623	6.96
601.959	6.75
602.296	7.16
602.632	7.04
602.968	7.04
603.304	6.69
603.64	6.86
603.976	6.56
604.312	7.08
604.648	6.88
604.984	7.03
605.319	6.9
605.655	6.85
605.991	6.79
606.326	6.74
606.662	6.68
606.998	6.86
607.333	6.77
607.668	6.91
608.004	6.9
608.339	7.16
608.674	6.93
609.01	6.88
609.345	7.12
609.68	6.62
610.015	6.91
610.35	6.79
610.685	6.78
611.02	6.99
611.355	6.83
611.689	6.75
612.024	6.96
612.359	7.1
612.694	7.14
613.028	7.04
613.363	6.98
613.697	6.76
614.032	7.05
614.366	7.14
614.7	7.4
615.035	7.02
615.369	6.94
615.703	7.3
616.037	7.08
616.371	6.93
616.705	7.01
617.039	7.32
617.373	7.05
617.707	6.94
618.041	7.09
618.375	6.88
618.709	7.17
619.042	6.74
619.376	6.95
619.71	7.18
620.043	6.87
620.377	7.16
620.71	7.04
621.043	6.82
621.377	7.01
621.71	7.49
622.043	7.54
622.376	7.05
622.709	7.14
623.043	7.14
623.376	7.08
623.709	7.24
624.041	6.99
624.374	7.14
624.707	6.93
625.04	7.31
625.373	6.91
625.705	6.84
626.038	7.2
626.37	6.83
626.703	7.13
627.035	6.92
627.368	7.29
627.7	7.14
628.032	6.92
628.365	6.88
628.697	6.96
629.029	7.46
629.361	7
629.693	7.55
630.025	7.1
630.357	7.16
630.689	7.42
631.021	7.36
631.353	7.47
631.684	7.26
632.016	6.77
632.348	7.31
632.679	6.98
633.011	7.28
633.342	7.32
633.674	7.27
634.005	7.35
634.336	7.39
634.668	6.93
634.999	7.36
635.33	7.46
635.661	6.98
635.992	7.19
636.323	7.12
636.654	7.52
636.985	7.21
637.316	7.21
637.647	7.49
637.977	7.37
638.308	7.26
638.639	7.13
638.969	7.11
639.3	7.35
639.63	7.44
639.961	7.16
640.291	7.69
640.622	7.64
640.952	7.12
641.282	6.95
641.612	6.85
641.943	7.27
642.273	7.25
642.603	7.29
642.933	7.2
643.263	7.52
643.592	7.5
643.922	7.56
644.252	7.49
644.582	7.41
644.911	7.27
645.241	7.29
645.571	7.17
645.9	7.87
646.23	7.2
646.559	7.55
646.888	6.77
647.218	7.28
647.547	7.42
647.876	7.31
648.205	7.02
648.534	7.33
648.863	7.33
649.192	7.09
649.521	7
649.85	7.97
650.179	7.18
650.508	7.42
650.837	7.19
651.165	7.63
651.494	7.55
651.822	7.78
652.151	7.48
652.479	8.03
652.808	7.18
653.136	7.3
653.465	7.81
653.793	7.59
654.121	7.44
654.449	7.75
654.777	7.43
655.105	7.78
655.433	7.6
655.761	7.46
656.089	7.7
656.417	7.42
656.745	7.95
657.073	7.45
657.4	7.92
657.728	7.41
658.056	7.2
658.383	7.19
658.711	7.45
659.038	7.64
659.365	7.41
659.693	7.48
660.02	7.18
660.347	7.49
660.674	7.55
661.001	7.04
661.329	7.42
661.656	7.67
661.982	7.51
662.309	7.65
662.636	7.53
662.963	7.38
663.29	7.38
663.616	7.61
663.943	7.83
664.27	7.44
664.596	7.77
664.923	7.67
665.249	7.88
665.576	7.81
665.902	7.47
666.228	7.03
666.554	7
666.881	7.76
667.207	7.48
667.533	7.83
667.859	7.75
668.185	7.89
668.511	7.44
668.837	7.58
669.162	7.59
669.488	7.44
669.814	8.31
670.139	8.51
670.465	8.23
670.791	8.42
671.116	7.99
671.442	7.7
671.767	7.34
672.092	7.72
672.418	7.9
672.743	7.32
673.068	7.47
673.393	7.63
673.718	7.83
674.043	7.2
674.368	8.22
674.693	7.89
675.018	7.82
675.343	8.32
675.667	7.8
675.992	7.5
676.317	7.88
676.641	8.51
676.966	8.01
677.29	7.34
677.615	7.45
677.939	7.51
678.264	7.37
678.588	7.88
678.912	7.53
679.236	8.24
679.56	7.39
679.885	7.95
680.209	7.82
680.532	7.84
680.856	8.21
681.18	7.68
681.504	7.42
681.828	7.37
682.152	7.79
682.475	7.89
682.799	8.16
683.122	7.59
683.446	7.64
683.769	7.85
684.093	7.62
684.416	7.61
684.739	7.84
685.062	8.06
685.386	7.77
685.709	8.09
686.032	7.74
686.355	7.99
686.678	7.98
687.001	6.98
687.324	7.15
687.646	7.45
687.969	8.15
688.292	8.27
688.614	8.15
688.937	7.86
689.26	7.4
689.582	7.91
689.904	7.8
690.227	7.63
690.549	7.93
690.871	7.74
691.194	8.36
691.516	7.42
691.838	7.9
692.16	7.83
692.482	7.81
692.804	7.87
693.126	8.56
693.448	7.93
693.769	7.87
694.091	8.49
694.413	8.28
694.735	8.53
695.056	8.43
695.378	8.32
695.699	8.76
696.021	7.77
696.342	8.04
696.663	8.36
696.984	8.34
697.306	7.8
697.627	7.85
697.948	8.09
698.269	7.65
698.59	8.7
698.911	7.97
699.232	8.88
699.553	7.89
699.873	8.84
700.194	8.22
700.515	8
700.835	8.67
701.156	8.43
701.477	8.06
701.797	8.37
702.117	8.23
702.438	7.8
702.758	8.34
703.078	8.06
703.398	8.31
703.719	7.54
704.039	8.75
704.359	8.43
704.679	8.57
704.999	7.52
705.319	8.14
705.638	8.54
705.958	8.63
706.278	8.72
706.597	8.84
706.917	8.59
707.237	8.45
707.556	8.51
707.876	7.38
708.195	7.94
708.514	7.91
708.834	8.5
709.153	9.44
709.472	8.23
709.791	8.4
710.11	7.96
710.429	7.86
710.748	7.93
711.067	7.97
711.386	8.91
711.705	7.49
712.023	8.43
712.342	7.94
712.661	9.39
712.979	9.38
713.298	8.48
713.616	9.47
713.935	8.44
714.253	8.68
714.572	8.76
714.89	8.13
715.208	9.32
715.526	8.81
715.844	8.19
716.162	7.78
716.48	9.01
716.798	8.95
717.116	9.58
717.434	8.99
717.752	7.93
718.069	8.44
718.387	8.34
718.705	8.65
719.022	8.8
719.34	8.09
719.657	8.81
719.975	8.18
720.292	8.18
720.609	9.11
720.927	8.85
721.244	8.81
721.561	8.92
721.878	9.73
722.195	8.85
722.512	8.9
722.829	8.72
723.146	7.94
723.463	9.35
723.779	7.4
724.096	8.3
724.413	9.27
724.729	9.47
725.046	9.17
725.362	7.39
725.679	9.98
725.995	8.83
726.311	8.43
726.628	7.92
726.944	8.58
727.26	8.53
727.576	9.79
727.892	8.14
728.208	8.94
728.524	9.51
728.84	7.52
729.156	8.92
729.472	9.93
729.787	9.35
730.103	9.01
730.419	8.83
730.734	9.09
731.05	9.56
731.365	9.85
731.681	8.85
731.996	8.09
732.311	9.56
732.626	9.4
732.942	8.87
733.257	10.06
733.572	9.84
733.887	9.01
734.202	8.8
734.517	8.57
734.832	8.71
735.146	9.14
735.461	8.05
735.776	9.35
736.091	9.11
736.405	9.63
736.72	8.93
737.034	8.44
737.349	8.27
737.663	8.61
737.977	9.47
738.292	9.45
738.606	9.34
738.92	10.2
739.234	9.34
739.548	9.82
739.862	10.45
740.176	8.77
740.49	9.85
740.804	9.97
741.117	9.65
741.431	9.44
741.745	7.6
742.058	9.05
742.372	8.31
742.685	8.18
742.999	9.48
743.312	8.9
743.626	8.83
743.939	8.94
744.252	8.67
744.565	8.67
744.878	9.6
745.191	9.64
745.505	9.16
745.817	8.73
746.13	9.59
746.443	9.33
746.756	8.22
747.069	9.14
747.381	9.36
747.694	8.16
748.007	11.36
748.319	9.62
748.632	8.5
748.944	10.23
749.256	11.29
749.569	8.99
749.881	9.02
750.193	9.6
750.505	10.36
750.817	9.29
751.129	8.7
751.441	8.87
751.753	10.31
752.065	9.99
752.377	9.06
752.689	11.04
753	8
753.312	8.73
753.624	11.65
753.935	8.65
754.247	10.17
754.558	9.89
754.869	9.69
755.181	10.28
755.492	11.49
755.803	8.86
756.114	7.61
756.425	9.91
756.736	9.2
757.047	10.27
757.358	9.84
757.669	11.52
757.98	9.67
758.291	10.15
758.601	10.69
758.912	8.72
759.223	11
759.533	10.17
759.844	9.51
760.154	10.79
760.464	8.62
760.775	11.12
761.085	9.97
761.395	12.12
761.705	8.74
762.016	10.48
762.326	10.87
762.636	10.4
762.945	10.22
763.255	10.1
763.565	11.25
763.875	9.46
764.185	10.24
764.494	10.27
764.804	9.81
765.113	9.38
765.423	10.28
765.732	8.52
766.042	10.13
766.351	10.55
766.66	10.44
766.97	9.49
767.279	11.57
767.588	10.91
767.897	10.56
768.206	11.17
768.515	8.57
768.824	11.7
769.133	8.84
769.441	11.87
769.75	9.57
770.059	9.94
770.367	10.01
770.676	7.9
770.984	11.02
771.293	10.89
771.601	9.46
771.91	11.66
772.218	8.44
772.526	8.4
772.834	12.98
773.142	11.05
773.45	7.86
773.758	10.3
774.066	7.65
774.374	6.91
774.682	7.7
774.99	9.93
775.298	8.89
775.605	12.71
775.913	11.33
776.22	11.2
776.528	9.76
776.835	9.07
777.143	11.43
777.45	8.41
777.757	9.75
778.065	12.91
778.372	10.56
778.679	10.73
778.986	10.61
779.293	7.39
779.6	8.39
779.907	10.65
780.214	11.44
780.52	11.28
780.827	8.21
781.134	9.34
781.44	7.78
781.747	9.91
782.053	9.54
782.36	7.26
782.666	7.13
782.973	8.81
783.279	10.66
783.585	7.45
783.891	10.69
784.197	10.44
784.503	8.84
784.809	10.73
785.115	6.78
785.421	11.07
785.727	10.35
786.033	8.25
786.339	12.65
786.644	9.57
786.95	13.54
787.255	10.29
787.561	12.46
787.866	8.57
788.172	12.39
788.477	7.08
788.782	6.32
789.088	14.07
789.393	9.93
789.698	9.8
790.003	12.45
790.308	10.2
790.613	12.21
790.918	14.3
791.223	11.65
791.527	10.28
791.832	9.69
792.137	11.3
792.441	12.17
792.746	8.96
793.05	10.55
793.355	15.48
793.659	12.54
793.963	10.73
794.268	8.21
794.572	16.12
794.876	10.08
795.18	9.49
795.484	12.01
795.788	8.34
796.092	13.04
796.396	9.03
796.7	11.42
797.004	14.14
797.307	6.89
797.611	13.99
797.915	9.23
798.218	12.36
798.522	8.94
798.825	12
799.128	11.76
799.432	11.08
799.735	7.94
800.038	7.42
800.341	6.29
800.644	7.24
800.947	11.94
801.25	7.81
801.553	12.07
801.856	8.01
802.159	8.56
802.462	10
802.764	10.34
803.067	9.44
803.37	11.41
803.672	9.65
803.975	11.95
804.277	16.78
804.579	14.09
804.882	8.05
805.184	10.15
805.486	12.34
805.788	10.58
806.09	8.68
806.392	11.68
806.694	9.5
806.996	7.82
807.298	9.84
807.6	11.25
807.902	12.21
808.203	12.89
808.505	9.14
808.807	17.44
809.108	10.55
809.409	12.5
809.711	16.04
810.012	10.15
810.313	15.34
810.615	10.09
810.916	7.01
811.217	11.03
811.518	17.2
811.819	6.51
812.12	10.1
812.421	4.58
812.722	9.42
813.023	11.7
813.323	17.44
813.624	15
813.925	13.47
814.225	11.34
814.526	12.13
814.826	10.48
815.126	10.07
815.427	7.84
815.727	14.31
816.027	14.96
816.327	4.62
816.627	7.65
816.927	7.73
817.227	4.98
817.527	8.23
817.827	12.23
818.127	16.42
818.427	8
818.727	7.82
819.026	11.86
819.326	17.03
819.625	19.05
819.925	14.89
820.224	10.73
820.524	10.18
820.823	6.81
821.122	9.93
821.421	12.99
821.72	13.44
822.019	10.16
822.318	14.02
822.617	10.6
822.916	13.12
823.215	13.11
823.514	12.71
823.813	13.03
824.111	13.39
824.41	12.24
824.709	13.69
825.007	13.58
825.306	13.55
825.604	13.26
825.902	12.97
826.201	14.08
826.499	14.46
826.797	13.44
827.095	12.06
827.393	14.98
827.691	13.25
827.989	14.85
828.287	15.36
828.585	12.1
828.882	12.78
829.18	11.06
829.478	11.52
829.775	13.36
830.073	13.54
830.37	13.9
830.668	10.88
830.965	12.76
831.263	12.61
831.56	14.25
831.857	16.22
832.154	10.34
832.451	14.38
832.748	10.71
833.045	14.98
833.342	9.9
833.639	11.27
833.936	11.12
834.232	7.36
834.529	13.02
834.826	17.72
835.122	13.43
835.419	11.39
835.715	13.46
836.012	13.98
836.308	15.94
836.604	11.87
836.901	19.78
837.197	15.55
837.493	15.45
837.789	15.34
838.085	12.31
838.381	8.2
838.677	11.15
838.972	11.1
839.268	9.13
839.564	15.23
839.86	10.44
840.155	10.04
840.451	11.84
840.746	15.39
841.042	4.54
841.337	3.87
841.632	19.79
841.928	13.45
842.223	5.1
842.518	8.93
842.813	11.29
843.108	5.89
843.403	13.07
843.698	7.04
843.993	9.93
844.287	22.82
844.582	13.18
844.877	18.7
845.171	24.56
845.466	0.67
845.761	19.32
846.055	13
846.349	-20.54
846.644	2.78
846.938	0.15
847.232	12.21
847.526	7.79
847.82	2.99
848.114	8.89
848.408	10.84
848.702	20.06
848.996	2.72
849.29	13.69
849.584	9.63
849.877	8
850.171	19.27
850.465	13.48
850.758	10.98
851.052	19
851.345	20.76
851.638	25.24
851.932	2.25
852.225	3.01
852.518	9.16
852.811	9.93
853.104	18.49
853.397	10.95
853.69	6.71
853.983	9.55
854.276	-2.85
854.569	-10.64
854.861	10.48
855.154	-1.58
855.447	31.27
855.739	16.44
856.032	-14.64
856.324	11.25
856.616	16.44
856.909	20.78
857.201	24.88
857.493	11.52
857.785	-5.78
858.077	-8.07
858.369	4.88
858.661	10.86
858.953	-4.5
859.245	-4.26
859.537	23.4
859.829	6.04
860.12	12.44
860.412	2.29
860.703	12.22
860.995	-0.36
861.286	17.68
861.578	-32.55
861.869	6.57
862.16	11.99
862.452	4.61
862.743	34.22
863.034	12.94
863.325	16.46
863.616	18.78
863.907	2.32
864.198	2.31
864.488	-20.83
864.779	5.91
865.07	24.97
865.36	17.07
865.651	8.31
865.941	33.41
866.232	5.44
866.522	1.33
866.813	21.65
867.103	9.81
867.393	-4.21
867.683	27.45
867.973	-1.63
868.263	-1.12
868.553	27.64
868.843	-36.46
869.133	-1.9
869.423	17.1
869.713	8.75
870.002	-33.98
870.292	10.1
870.582	0.1
870.871	18.93
871.161	-29.31
871.45	28.93
871.739	-19.9
872.029	16.77
872.318	16.45
872.607	13.18
872.896	0.12
873.185	29.99
873.474	-14.48
873.763	9.81
874.052	-8.12
874.341	-74.22
874.63	-12
874.918	1.79
875.207	25.14
875.496	10.2
875.784	37.83
876.073	17.51
876.361	-7.86
876.649	6.08
876.938	11.04
877.226	13.87
877.514	-9.69
877.802	23.69
878.09	3.95
878.378	19.06
878.666	-19.12
878.954	11.45
879.242	19.45
879.53	-9.81
879.817	26.51
880.105	3.21
880.392	12.47
880.68	-4.45
880.967	24.27
881.255	-20.64
881.542	-1.76
881.83	-15.6
882.117	9.9
882.404	14.87
882.691	15.7
882.978	16.53
883.265	14.93
883.552	4.31
883.839	2.38
884.126	10.39
884.413	13.03
884.699	17.62
884.986	13.21
885.273	9.28
885.559	9.28
885.846	9.28
