Data from 0062_forehead_Reflection__1__204.txt Node

Date: Fri Dec 16 15:34:48 CST 2022
User: ToomeyLab
Spectrometer: FLMS14357
Trigger mode: 0
Integration Time (sec): 1.000000E-2
Scans to average: 100
Electric dark correction enabled: true
Nonlinearity correction enabled: false
Boxcar width: 0
XAxis mode: Wavelengths
Number of Pixels in Spectrum: 2048
>>>>>Begin Spectral Data<<<<<
189.047	-582.66
189.435	-582.66
189.823	-582.66
190.211	104.78
190.599	-53.37
190.987	106.24
191.375	29.08
191.763	783
192.151	88.92
192.538	111.66
192.926	3.15
193.314	225.01
193.702	316.23
194.089	45.64
194.477	62.64
194.864	-203.04
195.252	-43.56
195.639	49.63
196.027	128.19
196.414	-112.31
196.801	-24.29
197.189	310.13
197.576	-386.42
197.963	-85.37
198.351	-12.7
198.738	-24.03
199.125	49.85
199.512	-13.85
199.899	-11
200.286	-3.14
200.673	4.22
201.06	41.08
201.447	39.44
201.833	28.97
202.22	41.18
202.607	18.48
202.994	20.79
203.38	-26.65
203.767	-30.56
204.154	47.27
204.54	14.12
204.927	17.81
205.313	22.06
205.699	9.94
206.086	16.61
206.472	-36.74
206.858	-1.06
207.245	9.64
207.631	2.9
208.017	28.87
208.403	47.16
208.789	-3.26
209.175	50.66
209.561	7.93
209.947	-7.48
210.333	-26.35
210.719	5.23
211.105	-38.22
211.491	16.47
211.876	15
212.262	-33.43
212.648	-20.75
213.034	-15.55
213.419	31.3
213.805	-5.72
214.19	42.98
214.576	-11.58
214.961	-11.94
215.346	-64.42
215.732	-5.97
216.117	-9.86
216.502	-1.31
216.888	-34.92
217.273	11.02
217.658	-30.45
218.043	-7.98
218.428	9.26
218.813	23.61
219.198	-30.59
219.583	-5.66
219.968	16.55
220.353	15.69
220.738	-9.57
221.122	7.91
221.507	-20.49
221.892	9.33
222.276	26.98
222.661	-19.14
223.046	6.07
223.43	-0.19
223.815	11.14
224.199	6.54
224.583	-2.54
224.968	-3.09
225.352	-0.48
225.736	8.48
226.121	-11.01
226.505	9.53
226.889	3.63
227.273	2.26
227.657	4.04
228.041	1.7
228.425	3.36
228.809	1.35
229.193	-0.61
229.577	2.2
229.961	2.11
230.344	2.17
230.728	2.05
231.112	2
231.495	-0.21
231.879	2.37
232.263	0.83
232.646	0.74
233.03	-0.99
233.413	0.93
233.797	1.13
234.18	-3.12
234.563	0.2
234.946	1.59
235.33	1.16
235.713	1.75
236.096	1.36
236.479	2.9
236.862	2.1
237.245	2.96
237.628	2.65
238.011	1.99
238.394	3.03
238.777	3.14
239.16	-0.33
239.543	1
239.925	1.46
240.308	3.68
240.691	3.45
241.073	1.77
241.456	2.37
241.838	2.46
242.221	2.07
242.603	2.59
242.986	2.81
243.368	1.38
243.75	1.42
244.133	1.76
244.515	1.59
244.897	1.96
245.279	1.83
245.661	1.52
246.043	2.01
246.425	1.14
246.807	2.64
247.189	2.01
247.571	1.78
247.953	1.6
248.335	1.75
248.717	1.78
249.098	2.05
249.48	1.35
249.862	1.98
250.243	1.4
250.625	2.24
251.006	1.44
251.388	2.43
251.769	1.55
252.151	2.21
252.532	2.05
252.913	1.86
253.295	2.21
253.676	2.23
254.057	2.09
254.438	1.55
254.819	1.94
255.2	1.38
255.581	2.44
255.962	3.52
256.343	1.93
256.724	2.4
257.105	1.57
257.486	2.37
257.867	0.27
258.247	1.64
258.628	2.55
259.009	2.07
259.389	1.92
259.77	1.86
260.15	2.26
260.531	2.06
260.911	1.67
261.292	1.67
261.672	1.86
262.052	1.52
262.432	1.58
262.813	2.41
263.193	1.15
263.573	1.89
263.953	2.12
264.333	2.16
264.713	1.71
265.093	1.32
265.473	2.99
265.853	1.95
266.233	1.46
266.612	1.71
266.992	1.96
267.372	2.27
267.752	1.71
268.131	1.81
268.511	1.87
268.89	2.5
269.27	2.2
269.649	1.73
270.029	1.42
270.408	1.7
270.787	1.49
271.167	2.07
271.546	1.74
271.925	1.69
272.304	1.69
272.683	1.43
273.062	2.26
273.441	2.04
273.82	2.02
274.199	2.12
274.578	1.83
274.957	1.71
275.336	2.08
275.715	2.53
276.093	2.49
276.472	1.68
276.851	1.49
277.229	2.53
277.608	1.35
277.986	1.65
278.365	1.46
278.743	1.79
279.122	1.26
279.5	1.29
279.878	0.98
280.257	2.28
280.635	2.01
281.013	2.12
281.391	2.08
281.769	1.66
282.147	1.91
282.525	1.67
282.903	2.04
283.281	1.23
283.659	1.99
284.037	1.65
284.415	1.81
284.792	1.62
285.17	1.46
285.548	2.05
285.925	1.45
286.303	1.56
286.68	1.89
287.058	1.79
287.435	1.56
287.813	1.96
288.19	2.1
288.567	1.65
288.945	1.65
289.322	1.71
289.699	1.64
290.076	2.3
290.453	2.01
290.83	2.13
291.207	2.15
291.584	2.09
291.961	2.06
292.338	1.88
292.715	1.85
293.092	1.54
293.469	1.91
293.845	2.37
294.222	1.75
294.599	2.22
294.975	2.17
295.352	1.64
295.728	1.93
296.105	2.02
296.481	2.58
296.858	2.28
297.234	2.24
297.61	2.71
297.986	2.07
298.363	1.89
298.739	2.38
299.115	1.95
299.491	2.07
299.867	2.57
300.243	2.03
300.619	1.76
300.995	2.79
301.371	2.49
301.746	2.27
302.122	2.86
302.498	2.44
302.874	2.3
303.249	2.77
303.625	2.11
304	1.93
304.376	2.39
304.751	2.44
305.127	2.43
305.502	2.7
305.878	2.65
306.253	2.66
306.628	3.05
307.003	2.68
307.378	2.63
307.754	2.81
308.129	2.46
308.504	2.38
308.879	2.64
309.254	3.07
309.629	2.86
310.003	3.23
310.378	3.26
310.753	2.87
311.128	2.99
311.502	3.04
311.877	2.93
312.252	3.28
312.626	2.77
313.001	2.96
313.375	3.19
313.75	3.01
314.124	3.64
314.498	3.19
314.873	2.7
315.247	2.99
315.621	3.83
315.995	3.06
316.369	3.54
316.743	3.42
317.117	3.91
317.491	3.86
317.865	2.99
318.239	3.96
318.613	3.49
318.987	4.13
319.361	3.93
319.734	4.08
320.108	4.45
320.482	3.73
320.855	3.97
321.229	4.22
321.602	4.23
321.976	3.9
322.349	3.72
322.723	3.89
323.096	4.15
323.469	3.83
323.843	3.98
324.216	3.88
324.589	4.57
324.962	4.55
325.335	4.31
325.708	4.21
326.081	4.82
326.454	4.11
326.827	4.17
327.2	5.08
327.573	4.5
327.945	4.51
328.318	4.74
328.691	4.95
329.063	4.5
329.436	4.85
329.809	4.38
330.181	4.2
330.553	5.42
330.926	5.01
331.298	4.48
331.671	5.15
332.043	4.67
332.415	4.89
332.787	5.43
333.159	4.44
333.532	5.1
333.904	5.6
334.276	5.01
334.648	5.33
335.02	4.97
335.391	5.17
335.763	4.78
336.135	5.36
336.507	5.32
336.879	5.36
337.25	5.17
337.622	5.01
337.993	5.35
338.365	5.57
338.736	5.44
339.108	5.68
339.479	5.29
339.851	5.32
340.222	5.65
340.593	5.65
340.964	5.37
341.336	5.3
341.707	5.67
342.078	4.99
342.449	5.93
342.82	5.77
343.191	5.16
343.562	5.97
343.933	5.75
344.303	5.79
344.674	5.54
345.045	6.61
345.416	6.11
345.786	5.59
346.157	5.82
346.527	5.96
346.898	5.84
347.268	5.85
347.639	6
348.009	6.37
348.38	6.22
348.75	6.08
349.12	6.28
349.49	6.54
349.861	6.54
350.231	6.68
350.601	6.69
350.971	6.65
351.341	6.59
351.711	6.11
352.081	6.39
352.45	6.68
352.82	6.75
353.19	6.59
353.56	6.83
353.929	6.94
354.299	6.77
354.669	7.09
355.038	6.9
355.408	7.24
355.777	6.92
356.147	7.44
356.516	7.33
356.885	7.18
357.254	7.11
357.624	7.19
357.993	6.85
358.362	7.26
358.731	7.17
359.1	7.38
359.469	7.31
359.838	7.34
360.207	7.15
360.576	7.73
360.945	7.18
361.314	7.67
361.682	7.38
362.051	7.59
362.42	7.75
362.788	7.79
363.157	7.61
363.525	7.65
363.894	7.51
364.262	7.54
364.631	8.35
364.999	7.67
365.367	8.09
365.735	7.6
366.104	8.11
366.472	8.37
366.84	8.29
367.208	7.91
367.576	7.91
367.944	8.18
368.312	8.14
368.68	8.35
369.048	8.31
369.416	8.14
369.783	8.46
370.151	8.46
370.519	8.23
370.886	8.43
371.254	8.36
371.621	8.56
371.989	8.69
372.356	8.5
372.724	8.88
373.091	8.67
373.458	8.99
373.826	8.92
374.193	9.27
374.56	8.74
374.927	9.1
375.294	9.48
375.661	8.86
376.028	9.14
376.395	9.09
376.762	9.49
377.129	9.36
377.496	9.42
377.863	9.34
378.229	9.27
378.596	9.34
378.963	9.21
379.329	9.41
379.696	9.49
380.062	9.71
380.429	9.57
380.795	9.86
381.161	9.65
381.528	9.36
381.894	9.95
382.26	9.88
382.626	9.9
382.993	9.84
383.359	9.65
383.725	10.38
384.091	9.81
384.457	10.08
384.823	10.43
385.188	10.52
385.554	10.23
385.92	10.47
386.286	10.41
386.651	10.36
387.017	10.7
387.383	10.47
387.748	10.07
388.114	10.62
388.479	10.66
388.845	10.77
389.21	10.71
389.575	10.83
389.94	10.78
390.306	10.64
390.671	10.64
391.036	10.86
391.401	11.18
391.766	11.04
392.131	10.94
392.496	10.93
392.861	10.96
393.226	11.19
393.591	11.15
393.956	11.31
394.32	11.27
394.685	11.42
395.05	11.08
395.414	11.18
395.779	11.33
396.143	11.35
396.508	11.54
396.872	11.48
397.236	11.19
397.601	11.54
397.965	11.08
398.329	11.87
398.694	11.51
399.058	11.9
399.422	11.88
399.786	12.01
400.15	11.9
400.514	11.91
400.878	11.94
401.242	11.93
401.605	12.14
401.969	11.76
402.333	11.88
402.697	12.41
403.06	12.3
403.424	12.01
403.787	12.57
404.151	12.18
404.514	12.57
404.878	12.34
405.241	12.42
405.604	12.42
405.968	12.32
406.331	12.37
406.694	12.34
407.057	12.76
407.42	12.41
407.783	12.45
408.146	12.77
408.509	12.63
408.872	12.75
409.235	12.96
409.598	12.92
409.961	13.05
410.323	13.05
410.686	12.86
411.049	12.83
411.411	12.87
411.774	12.87
412.136	13.11
412.499	12.72
412.861	12.86
413.223	13.28
413.586	13.11
413.948	13.37
414.31	13.54
414.672	13.19
415.035	13.2
415.397	13.5
415.759	13.32
416.121	13.62
416.483	13.52
416.845	13.42
417.206	13.63
417.568	13.66
417.93	13.55
418.292	13.65
418.653	13.7
419.015	13.74
419.377	13.69
419.738	13.58
420.1	13.73
420.461	13.64
420.822	13.78
421.184	13.8
421.545	13.77
421.906	13.7
422.267	13.81
422.629	13.87
422.99	13.83
423.351	13.9
423.712	13.99
424.073	13.94
424.434	14.16
424.795	14.13
425.155	14.18
425.516	14.11
425.877	14.23
426.238	14.1
426.598	14.29
426.959	14.43
427.32	14.62
427.68	14.73
428.041	14.74
428.401	14.83
428.761	14.98
429.122	15.07
429.482	14.94
429.842	15.14
430.202	15.09
430.563	15.15
430.923	15.32
431.283	15.39
431.643	15.32
432.003	15.59
432.363	15.6
432.722	15.43
433.082	15.44
433.442	15.63
433.802	15.63
434.161	15.62
434.521	15.59
434.881	15.76
435.24	15.57
435.6	15.79
435.959	15.86
436.319	15.8
436.678	15.93
437.037	16.11
437.396	16.29
437.756	16.17
438.115	16.16
438.474	16.33
438.833	16.39
439.192	16.52
439.551	16.37
439.91	16.19
440.269	16.5
440.628	16.33
440.987	16.44
441.345	16.36
441.704	16.58
442.063	16.47
442.421	16.43
442.78	16.54
443.138	16.53
443.497	16.62
443.855	16.79
444.214	16.98
444.572	16.91
444.93	17.07
445.288	17.19
445.647	17.1
446.005	17.08
446.363	17.26
446.721	17.04
447.079	17.11
447.437	17.16
447.795	17.01
448.153	16.93
448.51	17.1
448.868	17.16
449.226	17.18
449.584	17.32
449.941	17.5
450.299	17.48
450.656	17.75
451.014	17.84
451.371	18.03
451.729	17.89
452.086	17.97
452.443	17.88
452.801	18.19
453.158	18.09
453.515	17.97
453.872	18.31
454.229	18.38
454.586	18.27
454.943	18.41
455.3	18.43
455.657	18.39
456.014	18.37
456.371	18.65
456.727	18.66
457.084	18.63
457.441	18.7
457.797	18.84
458.154	18.64
458.51	18.66
458.867	18.66
459.223	19.07
459.58	18.75
459.936	18.82
460.292	19.07
460.648	18.76
461.005	18.6
461.361	18.69
461.717	18.73
462.073	18.76
462.429	18.89
462.785	19.22
463.141	19.14
463.496	19.34
463.852	19.65
464.208	19.49
464.564	19.62
464.919	19.54
465.275	19.85
465.631	19.84
465.986	19.71
466.342	19.77
466.697	19.91
467.052	19.92
467.408	20.01
467.763	19.83
468.118	20.26
468.473	20.33
468.829	20.17
469.184	20.15
469.539	20.01
469.894	20.16
470.249	20.2
470.603	20.53
470.958	20.44
471.313	20.33
471.668	20.39
472.023	20.8
472.377	20.56
472.732	20.49
473.086	20.53
473.441	20.77
473.795	20.9
474.15	20.85
474.504	21.03
474.859	20.93
475.213	20.76
475.567	20.73
475.921	21.2
476.275	21.1
476.63	21.11
476.984	21.16
477.338	21.55
477.692	21.14
478.045	21.31
478.399	21.2
478.753	21.23
479.107	21.31
479.461	21.44
479.814	21.22
480.168	21.45
480.521	21.4
480.875	21.55
481.228	21.52
481.582	21.53
481.935	21.8
482.289	21.53
482.642	21.57
482.995	21.4
483.348	21.49
483.701	21.26
484.055	21.26
484.408	21.09
484.761	20.93
485.114	20.81
485.466	20.8
485.819	20.65
486.172	20.69
486.525	20.82
486.878	20.98
487.23	21.25
487.583	21.41
487.936	21.43
488.288	21.36
488.641	21.32
488.993	21.13
489.345	21.2
489.698	21.27
490.05	21.33
490.402	21.56
490.754	21.8
491.107	21.94
491.459	22.11
491.811	22.16
492.163	22.16
492.515	22.26
492.866	21.74
493.218	21.81
493.57	21.69
493.922	21.84
494.274	22.05
494.625	22.28
494.977	22.45
495.328	22.77
495.68	23.27
496.031	23.13
496.383	23.03
496.734	23.42
497.086	23.3
497.437	23.35
497.788	23.18
498.139	23.16
498.49	23.16
498.842	23.1
499.193	23.06
499.544	23.41
499.894	23.15
500.245	23.56
500.596	23.42
500.947	23.6
501.298	23.67
501.648	23.73
501.999	23.94
502.35	23.97
502.7	24.1
503.051	24.08
503.401	24.14
503.752	24.01
504.102	24.17
504.452	23.97
504.803	24.1
505.153	24.19
505.503	24.07
505.853	23.98
506.203	24.4
506.553	24.21
506.903	24.25
507.253	24.4
507.603	24.39
507.953	24.63
508.303	24.47
508.652	24.51
509.002	24.37
509.352	24.46
509.701	24.56
510.051	24.46
510.4	24.37
510.75	24.42
511.099	24.43
511.449	24.32
511.798	24.66
512.147	24.54
512.496	24.64
512.846	24.72
513.195	24.86
513.544	24.71
513.893	24.66
514.242	24.87
514.591	24.9
514.939	24.89
515.288	25.04
515.637	25.07
515.986	24.96
516.334	25.29
516.683	25.28
517.032	25.39
517.38	25.43
517.729	25.42
518.077	25.37
518.426	25.29
518.774	25.26
519.122	25.15
519.47	25.12
519.819	25.07
520.167	24.93
520.515	24.84
520.863	25.01
521.211	24.92
521.559	25.16
521.907	25.32
522.255	25.52
522.602	25.52
522.95	25.68
523.298	25.79
523.645	25.69
523.993	25.85
524.341	25.91
524.688	25.82
525.036	25.87
525.383	25.94
525.73	26.02
526.078	26.08
526.425	25.74
526.772	25.59
527.119	25.59
527.466	25.39
527.814	25.34
528.161	25.43
528.508	25.53
528.854	25.51
529.201	25.45
529.548	25.31
529.895	25.22
530.242	25.13
530.588	25.12
530.935	25.02
531.282	25.03
531.628	25.16
531.975	25.48
532.321	25.72
532.667	25.97
533.014	26
533.36	25.97
533.706	26.08
534.052	25.87
534.399	25.79
534.745	25.75
535.091	25.83
535.437	25.82
535.783	25.81
536.129	26.03
536.474	26.15
536.82	26.38
537.166	26.43
537.512	26.48
537.857	26.44
538.203	26.32
538.549	26.44
538.894	26.38
539.239	26.54
539.585	26.75
539.93	26.91
540.276	27.09
540.621	27.19
540.966	27.2
541.311	27.26
541.656	26.99
542.001	26.87
542.346	26.55
542.691	26.43
543.036	26.45
543.381	26.33
543.726	26.34
544.071	26.48
544.415	26.53
544.76	26.69
545.105	26.94
545.449	26.88
545.794	27.15
546.138	27.12
546.483	27.39
546.827	27.32
547.171	27.5
547.516	27.63
547.86	27.45
548.204	27.48
548.548	27.52
548.892	27.57
549.236	27.61
549.58	27.72
549.924	27.88
550.268	28.05
550.612	28.15
550.956	28.15
551.3	28.32
551.643	28.37
551.987	28.51
552.33	28.42
552.674	28.61
553.017	28.63
553.361	28.42
553.704	28.68
554.048	28.49
554.391	28.38
554.734	28.33
555.077	28.42
555.42	28.47
555.764	28.68
556.107	28.68
556.45	28.68
556.793	28.88
557.135	28.76
557.478	28.93
557.821	28.94
558.164	28.93
558.507	29.1
558.849	28.93
559.192	29.31
559.534	28.92
559.877	29.13
560.219	29.24
560.562	29.34
560.904	29.25
561.246	29.45
561.589	29.39
561.931	29.32
562.273	29.41
562.615	29.41
562.957	29.44
563.299	29.3
563.641	29.39
563.983	29.36
564.325	29.16
564.667	29.34
565.008	29.43
565.35	29.91
565.692	29.59
566.033	29.56
566.375	29.22
566.716	29.53
567.058	29.6
567.399	29.39
567.741	29.46
568.082	29.31
568.423	29.36
568.764	29.51
569.105	29.45
569.447	29.7
569.788	29.69
570.129	29.86
570.47	29.98
570.811	29.93
571.151	29.88
571.492	30.11
571.833	29.93
572.174	29.88
572.514	29.83
572.855	29.88
573.195	29.89
573.536	29.82
573.876	29.79
574.217	29.63
574.557	29.73
574.898	29.75
575.238	29.85
575.578	30.16
575.918	29.93
576.258	29.92
576.598	30
576.938	30.2
577.278	30.26
577.618	30.01
577.958	30.1
578.298	30.53
578.638	30.28
578.977	30.45
579.317	30.5
579.657	30.4
579.996	30.59
580.336	30.74
580.675	30.72
581.014	30.86
581.354	31.13
581.693	30.86
582.032	30.43
582.372	30.85
582.711	30.96
583.05	31.23
583.389	30.98
583.728	31.04
584.067	31.29
584.406	31.07
584.745	31.2
585.083	31.2
585.422	31.23
585.761	31.46
586.1	31.31
586.438	31.28
586.777	31.47
587.115	31.28
587.454	31.25
587.792	31.28
588.13	31.47
588.469	31.68
588.807	31.53
589.145	31.6
589.483	31.31
589.821	31.47
590.159	31.52
590.497	31.43
590.835	31.55
591.173	31.63
591.511	31.52
591.849	31.69
592.187	31.4
592.524	31.42
592.862	31.74
593.2	31.67
593.537	31.75
593.875	31.61
594.212	31.77
594.55	31.87
594.887	31.98
595.224	31.9
595.561	31.74
595.899	31.84
596.236	31.95
596.573	31.87
596.91	31.85
597.247	31.78
597.584	31.91
597.921	31.77
598.258	31.76
598.594	31.66
598.931	31.65
599.268	31.76
599.604	31.87
599.941	31.7
600.277	31.97
600.614	32.14
600.95	32.3
601.287	32.34
601.623	32.4
601.959	32.31
602.296	32.66
602.632	32.72
602.968	32.33
603.304	32.22
603.64	32.43
603.976	32.23
604.312	32.42
604.648	32.29
604.984	32.08
605.319	32.18
605.655	32.26
605.991	32.2
606.326	31.78
606.662	32.06
606.998	32.21
607.333	32.14
607.668	32.25
608.004	32.49
608.339	32.23
608.674	32.66
609.01	32.58
609.345	32.61
609.68	32.57
610.015	32.97
610.35	32.58
610.685	32.67
611.02	32.82
611.355	32.58
611.689	32.33
612.024	32.46
612.359	32.85
612.694	32.72
613.028	33.14
613.363	33.01
613.697	33.34
614.032	32.84
614.366	32.95
614.7	33.31
615.035	32.98
615.369	33.17
615.703	33.48
616.037	33.06
616.371	32.96
616.705	33.3
617.039	33.6
617.373	33.25
617.707	33.37
618.041	33.71
618.375	33.22
618.709	33.36
619.042	33.28
619.376	33.14
619.71	33.29
620.043	33.71
620.377	33.64
620.71	33.65
621.043	33.59
621.377	33.69
621.71	33.77
622.043	33.88
622.376	33.1
622.709	33.68
623.043	33.19
623.376	33.94
623.709	33.74
624.041	33.96
624.374	33.73
624.707	33.9
625.04	34.09
625.373	33.91
625.705	33.39
626.038	33.37
626.37	33.75
626.703	33.81
627.035	33.62
627.368	34.39
627.7	34.03
628.032	33.96
628.365	34
628.697	33.83
629.029	34.25
629.361	34.01
629.693	34.18
630.025	34.14
630.357	33.65
630.689	34.19
631.021	34.39
631.353	34.28
631.684	34.07
632.016	34.03
632.348	34
632.679	34.13
633.011	34.09
633.342	34.43
633.674	34.21
634.005	34.87
634.336	34.12
634.668	34.05
634.999	34.62
635.33	34.62
635.661	34.62
635.992	34.62
636.323	34.25
636.654	34.47
636.985	34.32
637.316	34.5
637.647	34.15
637.977	34.59
638.308	34.36
638.639	34.3
638.969	34.52
639.3	35.16
639.63	34.88
639.961	34.89
640.291	35.27
640.622	35.07
640.952	34.41
641.282	34.38
641.612	34.73
641.943	34.93
642.273	34.69
642.603	35.23
642.933	35.04
643.263	35.3
643.592	35.12
643.922	34.85
644.252	34.91
644.582	35.16
644.911	35.17
645.241	34.94
645.571	35.68
645.9	35.34
646.23	35.09
646.559	35.08
646.888	34.9
647.218	35.26
647.547	35.27
647.876	35.55
648.205	35.53
648.534	35.24
648.863	35.4
649.192	35.08
649.521	35.09
649.85	35.6
650.179	35.52
650.508	35.05
650.837	35.32
651.165	35.27
651.494	35.53
651.822	35.72
652.151	35.43
652.479	35.82
652.808	35.22
653.136	35.45
653.465	36.08
653.793	35.53
654.121	35.86
654.449	35.12
654.777	35.72
655.105	35.48
655.433	35.74
655.761	35.49
656.089	36.03
656.417	35.65
656.745	36.7
657.073	35.86
657.4	36.18
657.728	36.09
658.056	35.7
658.383	36.32
658.711	35.41
659.038	36.1
659.365	35.98
659.693	36.09
660.02	36.07
660.347	35.79
660.674	35.67
661.001	35.62
661.329	35.64
661.656	35.91
661.982	35.68
662.309	36.15
662.636	36.28
662.963	36.15
663.29	35.8
663.616	36.44
663.943	36.38
664.27	35.98
664.596	36.03
664.923	36.53
665.249	36.53
665.576	36.03
665.902	36.23
666.228	35.51
666.554	36.31
666.881	37.33
667.207	36.94
667.533	36.64
667.859	36.27
668.185	36.3
668.511	36.95
668.837	35.84
669.162	37.03
669.488	36.48
669.814	36.82
670.139	37.02
670.465	36.61
670.791	36.44
671.116	36.92
671.442	36.58
671.767	36.59
672.092	36.45
672.418	36.5
672.743	36.42
673.068	36.33
673.393	36.99
673.718	36.6
674.043	36.98
674.368	37.08
674.693	37.29
675.018	36.61
675.343	37.07
675.667	36.15
675.992	36.32
676.317	37.1
676.641	37.01
676.966	37.07
677.29	37.5
677.615	37.08
677.939	36.8
678.264	36.9
678.588	36.99
678.912	37.09
679.236	36.73
679.56	36.05
679.885	36.5
680.209	36.63
680.532	36.76
680.856	36.58
681.18	37.49
681.504	37.2
681.828	37.35
682.152	37.12
682.475	36.79
682.799	37.26
683.122	37.33
683.446	37.15
683.769	37.04
684.093	37.1
684.416	36.93
684.739	36.85
685.062	36.81
685.386	37.9
685.709	37.09
686.032	36.72
686.355	36.94
686.678	37.68
687.001	36.62
687.324	36.77
687.646	37.06
687.969	37.79
688.292	37.94
688.614	38.04
688.937	37.07
689.26	36.89
689.582	37.07
689.904	37.1
690.227	36.8
690.549	38.4
690.871	37.75
691.194	37.88
691.516	37.39
691.838	36.52
692.16	37.69
692.482	38
692.804	37.18
693.126	37.64
693.448	36.99
693.769	37.66
694.091	37.43
694.413	37.79
694.735	37.93
695.056	37.58
695.378	36.95
695.699	38.34
696.021	38.22
696.342	37.88
696.663	38.44
696.984	38.23
697.306	38.04
697.627	38.66
697.948	37.53
698.269	37.79
698.59	38.65
698.911	37.69
699.232	38.32
699.553	37.66
699.873	38.32
700.194	37.84
700.515	38.21
700.835	38.19
701.156	37.77
701.477	37.91
701.797	37.88
702.117	38.39
702.438	38.12
702.758	38.2
703.078	38.23
703.398	38.35
703.719	38.64
704.039	38.26
704.359	37.67
704.679	37.94
704.999	37.85
705.319	38.14
705.638	37.95
705.958	38.45
706.278	38.81
706.597	38.85
706.917	38.49
707.237	39.55
707.556	38.77
707.876	38.29
708.195	38.75
708.514	38.38
708.834	38.79
709.153	38.99
709.472	38.46
709.791	38.71
710.11	38.82
710.429	37.26
710.748	38.35
711.067	38.47
711.386	38.96
711.705	38.64
712.023	38.51
712.342	38.23
712.661	38.71
712.979	39.79
713.298	38.41
713.616	38.58
713.935	38.82
714.253	38.78
714.572	38.24
714.89	38.79
715.208	38.83
715.526	39.62
715.844	39.22
716.162	38.65
716.48	38.81
716.798	38.51
717.116	39.64
717.434	38.85
717.752	37.46
718.069	37.19
718.387	38.65
718.705	39.46
719.022	38.92
719.34	38.35
719.657	39.39
719.975	38.22
720.292	38.79
720.609	39.3
720.927	40.24
721.244	40.37
721.561	39.95
721.878	39.05
722.195	38.97
722.512	39.48
722.829	40.2
723.146	39.07
723.463	39.66
723.779	39.83
724.096	38.39
724.413	39.55
724.729	39.11
725.046	39.27
725.362	38.56
725.679	39.12
725.995	39.27
726.311	39.92
726.628	38.84
726.944	39.92
727.26	39.73
727.576	41.13
727.892	39.18
728.208	39.72
728.524	39.5
728.84	38.46
729.156	39.9
729.472	40.12
729.787	39.01
730.103	39.46
730.419	40.68
730.734	39.43
731.05	39.71
731.365	39.38
731.681	39.33
731.996	38.24
732.311	38.24
732.626	39.71
732.942	40.18
733.257	39.63
733.572	39.41
733.887	39.47
734.202	38.92
734.517	39.16
734.832	40.41
735.146	38.47
735.461	39.66
735.776	39.97
736.091	40.03
736.405	39.49
736.72	39.58
737.034	40.08
737.349	38.11
737.663	39.26
737.977	39.24
738.292	39.27
738.606	39.53
738.92	40.15
739.234	39.4
739.548	41.32
739.862	38.85
740.176	39.86
740.49	39.92
740.804	39.5
741.117	40.09
741.431	40.02
741.745	39.52
742.058	41.17
742.372	40.7
742.685	38.8
742.999	39.26
743.312	37.91
743.626	39.57
743.939	40.1
744.252	39.7
744.565	38.9
744.878	40.48
745.191	39.61
745.505	38.94
745.817	38.66
746.13	40.77
746.443	40.05
746.756	41.17
747.069	39.83
747.381	39.85
747.694	39.61
748.007	40.2
748.319	40.78
748.632	40.79
748.944	40.17
749.256	41.76
749.569	40.39
749.881	40.33
750.193	40.59
750.505	41.05
750.817	38.96
751.129	41.69
751.441	40.44
751.753	39.58
752.065	40.38
752.377	40.32
752.689	40.06
753	39
753.312	39.64
753.624	41.13
753.935	39.22
754.247	40.4
754.558	40.47
754.869	39.53
755.181	38.96
755.492	41.38
755.803	40.56
756.114	39.77
756.425	41.16
756.736	39.04
757.047	41.28
757.358	41.15
757.669	39.63
757.98	41.74
758.291	40.4
758.601	39.82
758.912	39.81
759.223	42.34
759.533	40.84
759.844	41.47
760.154	40.84
760.464	41.51
760.775	41.31
761.085	39.95
761.395	40.98
761.705	39.74
762.016	40.17
762.326	41.69
762.636	42.61
762.945	39.68
763.255	41.02
763.565	39.18
763.875	40.9
764.185	41.05
764.494	41.64
764.804	40.31
765.113	40.18
765.423	41.74
765.732	40.23
766.042	41.95
766.351	41.39
766.66	41.72
766.97	39.76
767.279	41.65
767.588	41.42
767.897	40.71
768.206	40.7
768.515	40.45
768.824	40.2
769.133	41.23
769.441	41.27
769.75	39.54
770.059	41.8
770.367	41
770.676	42.47
770.984	40.6
771.293	42.59
771.601	37.22
771.91	42.47
772.218	41.64
772.526	38.99
772.834	41.28
773.142	39.02
773.45	37.79
773.758	43.64
774.066	38.75
774.374	39.3
774.682	38.64
774.99	42.84
775.298	42.36
775.605	39.21
775.913	39.49
776.22	39.63
776.528	40.29
776.835	40.01
777.143	41.77
777.45	42.14
777.757	39.48
778.065	42.07
778.372	39.92
778.679	42.44
778.986	40.99
779.293	41.59
779.6	41.28
779.907	40.68
780.214	40.58
780.52	45.53
780.827	42.07
781.134	40.44
781.44	40.42
781.747	40.81
782.053	41.92
782.36	43.12
782.666	41.29
782.973	42.85
783.279	38.13
783.585	42.38
783.891	38.74
784.197	39.76
784.503	43.02
784.809	41.62
785.115	37.65
785.421	43.37
785.727	38.79
786.033	39.24
786.339	41.74
786.644	38.91
786.95	39.45
787.255	42.7
787.561	39.24
787.866	35.95
788.172	43.11
788.477	38.16
788.782	36.9
789.088	42.27
789.393	42.89
789.698	38.93
790.003	42.19
790.308	38.1
790.613	39.86
790.918	41.15
791.223	43.59
791.527	42.06
791.832	41.79
792.137	42.01
792.441	42.55
792.746	37.66
793.05	42.21
793.355	43.63
793.659	39.41
793.963	38.72
794.268	39.48
794.572	44.2
794.876	40.05
795.18	39.11
795.484	37.22
795.788	41.19
796.092	42.39
796.396	41.91
796.7	39.5
797.004	40.09
797.307	38.24
797.611	41.04
797.915	39.85
798.218	40.87
798.522	41
798.825	44.05
799.128	43.5
799.432	43.31
799.735	46.03
800.038	39.52
800.341	40.21
800.644	40.33
800.947	42.45
801.25	39.19
801.553	42.14
801.856	42.18
802.159	38.63
802.462	42.04
802.764	42.62
803.067	40.79
803.37	39.2
803.672	38.38
803.975	43.11
804.277	41.74
804.579	40.94
804.882	39.08
805.184	40.94
805.486	39.05
805.788	35.1
806.09	39.42
806.392	39.9
806.694	47.93
806.996	43.49
807.298	40.9
807.6	38.1
807.902	41.83
808.203	44.6
808.505	33.94
808.807	40.08
809.108	43.01
809.409	39.87
809.711	41
810.012	37.62
810.313	43.18
810.615	41.7
810.916	40.9
811.217	45.24
811.518	45.95
811.819	35.22
812.12	44.43
812.421	39.51
812.722	43.21
813.023	44.54
813.323	42.38
813.624	47.67
813.925	39.57
814.225	42.03
814.526	42.58
814.826	42.89
815.126	43.11
815.427	37.53
815.727	40.96
816.027	43.86
816.327	33.24
816.627	36.31
816.927	41.96
817.227	38.83
817.527	42.16
817.827	37.47
818.127	39.98
818.427	37.38
818.727	43.29
819.026	38.66
819.326	48.9
819.625	39.63
819.925	36.95
820.224	39.59
820.524	38.76
820.823	37.73
821.122	40.6
821.421	42.57
821.72	40.03
822.019	39.66
822.318	42.6
822.617	39.22
822.916	40.47
823.215	42.58
823.514	41.41
823.813	42.49
824.111	43.58
824.41	42.66
824.709	43.09
825.007	43.52
825.306	42.75
825.604	42.34
825.902	42.44
826.201	42.84
826.499	41.78
826.797	41.94
827.095	40.91
827.393	40.4
827.691	42.17
827.989	42.28
828.287	43.61
828.585	39.79
828.882	41.88
829.18	41.55
829.478	42.71
829.775	41.87
830.073	42.28
830.37	42.14
830.668	41.5
830.965	40.7
831.263	43.5
831.56	43.96
831.857	44.91
832.154	46.56
832.451	43.11
832.748	41.45
833.045	41
833.342	46.26
833.639	44.51
833.936	40.93
834.232	37.86
834.529	47.79
834.826	42.94
835.122	43.65
835.419	39.51
835.715	38.93
836.012	41.77
836.308	43.8
836.604	42.42
836.901	45.36
837.197	44.36
837.493	40.61
837.789	40.67
838.085	38.76
838.381	40.13
838.677	37.71
838.972	43.73
839.268	34.92
839.564	40.65
839.86	45.09
840.155	39.97
840.451	39.21
840.746	43.94
841.042	49.22
841.337	44.24
841.632	36.56
841.928	43.82
842.223	38.99
842.518	46.07
842.813	43.72
843.108	37.47
843.403	43.49
843.698	43.29
843.993	43.66
844.287	34.14
844.582	36.59
844.877	39
845.171	38.36
845.466	42.74
845.761	35.05
846.055	31.5
846.349	31.16
846.644	38.83
846.938	42.25
847.232	44.83
847.526	34.11
847.82	48.15
848.114	33.75
848.408	48.37
848.702	37.21
848.996	38.76
849.29	47.53
849.584	39.83
849.877	36.07
850.171	36.29
850.465	39.92
850.758	47.95
851.052	46.19
851.345	41.94
851.638	49.78
851.932	39.08
852.225	25.5
852.518	44.32
852.811	28.62
853.104	42.69
853.397	45.08
853.69	31.01
853.983	30.71
854.276	32.3
854.569	42.17
854.861	38.19
855.154	35.26
855.447	21.83
855.739	45.48
856.032	42.82
856.324	30.86
856.616	33.13
856.909	54.11
857.201	46.18
857.493	36.1
857.785	32.59
858.077	23.26
858.369	38.9
858.661	41.29
858.953	27.44
859.245	19.23
859.537	30.92
859.829	53.99
860.12	32.09
860.412	29.29
860.703	49.6
860.995	29.7
861.286	27.36
861.578	7.93
861.869	40.23
862.16	47.02
862.452	36.39
862.743	52.92
863.034	42.53
863.325	40.82
863.616	60.2
863.907	47.47
864.198	86.81
864.488	36.78
864.779	46.13
865.07	42.48
865.36	34.61
865.651	35.25
865.941	54.42
866.232	37.55
866.522	33.41
866.813	43.67
867.103	42.89
867.393	33.24
867.683	57.86
867.973	28.37
868.263	24.78
868.553	36.92
868.843	29.57
869.133	25.99
869.423	46.62
869.713	39.91
870.002	50.96
870.292	25.19
870.582	35.99
870.871	49.33
871.161	29.65
871.45	63.79
871.739	-11.3
872.029	40.06
872.318	16.18
872.607	28.79
872.896	51.89
873.185	59.86
873.474	16.77
873.763	45.22
874.052	19.06
874.341	-15.05
874.63	17.19
874.918	25.02
875.207	35.51
875.496	44.77
875.784	28.99
876.073	57.99
876.361	43.04
876.649	50.53
876.938	31.7
877.226	59.06
877.514	13.39
877.802	32.02
878.09	31.05
878.378	35.13
878.666	11.95
878.954	31.32
879.242	59.11
879.53	35.54
879.817	37.63
880.105	23.47
880.392	35.12
880.68	24.52
880.967	40.74
881.255	34.43
881.542	55.7
881.83	41.95
882.117	33.94
882.404	43.61
882.691	31.15
882.978	39.09
883.265	35.39
883.552	36.09
883.839	42.12
884.126	36.44
884.413	44.72
884.699	47.05
884.986	44.27
885.273	41.02
885.559	41.02
885.846	41.02
