Data from 0062_crown_Reflection__2__200.txt Node

Date: Fri Dec 16 15:33:45 CST 2022
User: ToomeyLab
Spectrometer: FLMS14357
Trigger mode: 0
Integration Time (sec): 1.000000E-2
Scans to average: 100
Electric dark correction enabled: true
Nonlinearity correction enabled: false
Boxcar width: 0
XAxis mode: Wavelengths
Number of Pixels in Spectrum: 2048
>>>>>Begin Spectral Data<<<<<
189.047	-614.13
189.435	-614.13
189.823	-614.13
190.211	105.59
190.599	23.03
190.987	139.81
191.375	42.7
191.763	325.5
192.151	-64.38
192.538	99.77
192.926	-12.71
193.314	170.52
193.702	67.18
194.089	113.24
194.477	-57.75
194.864	172.72
195.252	22.48
195.639	70.56
196.027	276.86
196.414	37.13
196.801	-596.06
197.189	165.81
197.576	382.51
197.963	-4.4
198.351	-4.89
198.738	94.84
199.125	31.11
199.512	17.39
199.899	-7.41
200.286	-217.54
200.673	2.34
201.06	16.29
201.447	43.25
201.833	-11.93
202.22	35.62
202.607	50.92
202.994	27.44
203.38	-112.2
203.767	-28.07
204.154	-53.47
204.54	31.21
204.927	-6.94
205.313	32.09
205.699	14.25
206.086	-9.29
206.472	-29.67
206.858	-22.54
207.245	-15.29
207.631	-27.27
208.017	28.44
208.403	7.92
208.789	-1.13
209.175	47.61
209.561	12.45
209.947	14.53
210.333	-40.25
210.719	16.97
211.105	-40.75
211.491	18.45
211.876	29.84
212.262	-52.45
212.648	-14.14
213.034	-1.46
213.419	33.37
213.805	-9.6
214.19	-17.13
214.576	21.48
214.961	-23.89
215.346	-13.02
215.732	-18
216.117	-9.62
216.502	-13.38
216.888	-43.44
217.273	22.36
217.658	-10.23
218.043	28.16
218.428	8.56
218.813	-31.48
219.198	-15.67
219.583	17.95
219.968	4.08
220.353	14.34
220.738	-7.72
221.122	0.66
221.507	6.61
221.892	20.72
222.276	14.42
222.661	-4.81
223.046	-3.25
223.43	4.56
223.815	6.77
224.199	17.19
224.583	9.64
224.968	3.3
225.352	2.09
225.736	0.85
226.121	-2.11
226.505	0.64
226.889	5.42
227.273	2.13
227.657	6.17
228.041	5.01
228.425	2.36
228.809	5.14
229.193	1.79
229.577	4.71
229.961	5.14
230.344	4.86
230.728	5.58
231.112	5.14
231.495	4.3
231.879	5.05
232.263	3.6
232.646	2.71
233.03	4.19
233.413	4.31
233.797	4.65
234.18	4.45
234.563	4.42
234.946	4.63
235.33	4.56
235.713	3.76
236.096	4.15
236.479	6.64
236.862	4.43
237.245	6.44
237.628	5.28
238.011	5.13
238.394	6.06
238.777	4.53
239.16	3.22
239.543	2.9
239.925	4.34
240.308	4.6
240.691	3.05
241.073	5.13
241.456	3.72
241.838	5.44
242.221	5.06
242.603	4.91
242.986	5.72
243.368	5.2
243.75	4.73
244.133	5.43
244.515	4.65
244.897	4.68
245.279	4.33
245.661	4.65
246.043	5.3
246.425	4.09
246.807	5.68
247.189	4.51
247.571	5.01
247.953	4.93
248.335	4.66
248.717	4.87
249.098	4.84
249.48	4.45
249.862	5.1
250.243	4.86
250.625	4.76
251.006	4.64
251.388	5.08
251.769	3.62
252.151	5.64
252.532	4.45
252.913	4.6
253.295	4.7
253.676	4.72
254.057	4.82
254.438	5.01
254.819	4.89
255.2	4.77
255.581	4.83
255.962	4.63
256.343	4.9
256.724	3.9
257.105	4.67
257.486	5.11
257.867	2.3
258.247	4.75
258.628	4.86
259.009	4.18
259.389	4.9
259.77	4.85
260.15	5.06
260.531	4.89
260.911	4.58
261.292	4.61
261.672	4.53
262.052	4.54
262.432	4.22
262.813	4.55
263.193	3.83
263.573	4.48
263.953	4.67
264.333	4.62
264.713	4.64
265.093	4.28
265.473	4.91
265.853	5.11
266.233	4.27
266.612	4.76
266.992	4.12
267.372	5.31
267.752	3.88
268.131	4.52
268.511	4.79
268.89	4.37
269.27	4.49
269.649	4.32
270.029	4.55
270.408	4.74
270.787	4.5
271.167	4.85
271.546	3.74
271.925	4.43
272.304	4.52
272.683	4.26
273.062	4.46
273.441	5.18
273.82	4.58
274.199	4.35
274.578	4.29
274.957	4.68
275.336	4.44
275.715	4.59
276.093	4.83
276.472	4.63
276.851	3.99
277.229	4.93
277.608	3.95
277.986	4.14
278.365	4.42
278.743	4.21
279.122	3.5
279.5	3.94
279.878	3.88
280.257	4.59
280.635	3.95
281.013	4.44
281.391	3.78
281.769	3.93
282.147	4.6
282.525	4.12
282.903	4.39
283.281	4.64
283.659	4.43
284.037	4.25
284.415	3.88
284.792	4.06
285.17	3.92
285.548	4.21
285.925	3.96
286.303	4.12
286.68	4.59
287.058	4.21
287.435	4.16
287.813	4.44
288.19	4.79
288.567	4.14
288.945	4.19
289.322	4
289.699	4.2
290.076	4.21
290.453	4.24
290.83	3.97
291.207	3.93
291.584	4.05
291.961	4.32
292.338	4.16
292.715	4.41
293.092	4.07
293.469	5.08
293.845	4.78
294.222	4.52
294.599	4.67
294.975	4.45
295.352	3.97
295.728	4.11
296.105	4.32
296.481	4.76
296.858	4.81
297.234	4.31
297.61	4.73
297.986	4.42
298.363	4.03
298.739	4.55
299.115	4.16
299.491	4.37
299.867	4.86
300.243	3.97
300.619	4.83
300.995	4.57
301.371	4.49
301.746	4.22
302.122	4.44
302.498	4.46
302.874	4.87
303.249	4.85
303.625	4.71
304	4.55
304.376	4.94
304.751	4.84
305.127	4.58
305.502	4.87
305.878	4.45
306.253	4.83
306.628	4.87
307.003	4.68
307.378	4.48
307.754	4.7
308.129	4.38
308.504	4.55
308.879	4.7
309.254	4.86
309.629	4.49
310.003	4.93
310.378	4.76
310.753	4.48
311.128	4.53
311.502	4.04
311.877	4.85
312.252	4.63
312.626	4.2
313.001	4.44
313.375	4.53
313.75	4.7
314.124	4.97
314.498	4.51
314.873	4.76
315.247	4.53
315.621	5.28
315.995	4.64
316.369	4.44
316.743	5.24
317.117	4.74
317.491	4.6
317.865	3.81
318.239	5.18
318.613	4.47
318.987	4.77
319.361	4.31
319.734	4.38
320.108	4.83
320.482	4.54
320.855	4.81
321.229	5.3
321.602	5.03
321.976	4.39
322.349	4.03
322.723	3.88
323.096	4.41
323.469	4.53
323.843	5.37
324.216	4.83
324.589	5.14
324.962	4.85
325.335	4.64
325.708	4.96
326.081	4.49
326.454	4.65
326.827	4.95
327.2	4.9
327.573	4.92
327.945	4.91
328.318	4.82
328.691	4.62
329.063	4.91
329.436	4.72
329.809	4.91
330.181	4.82
330.553	5.16
330.926	4.63
331.298	4.68
331.671	4.77
332.043	4.51
332.415	5.08
332.787	5.22
333.159	4.66
333.532	5.01
333.904	4.66
334.276	5.19
334.648	5.03
335.02	4.35
335.391	4.78
335.763	4.76
336.135	5.16
336.507	5.05
336.879	4.96
337.25	5.02
337.622	4.72
337.993	4.82
338.365	5.27
338.736	4.98
339.108	4.49
339.479	4.96
339.851	5.32
340.222	5.25
340.593	4.4
340.964	4.66
341.336	4.48
341.707	4.81
342.078	4.58
342.449	5.12
342.82	4.78
343.191	4.8
343.562	4.84
343.933	4.92
344.303	5.25
344.674	4.85
345.045	5.19
345.416	5.18
345.786	4.64
346.157	4.9
346.527	5.1
346.898	5.01
347.268	5.08
347.639	5.38
348.009	5.08
348.38	4.98
348.75	5.09
349.12	5.09
349.49	4.87
349.861	5.34
350.231	5.53
350.601	5.01
350.971	4.93
351.341	5.33
351.711	5.21
352.081	5.13
352.45	5.25
352.82	5.44
353.19	5.29
353.56	5.1
353.929	5.15
354.299	5.15
354.669	5.68
355.038	5.07
355.408	5.74
355.777	4.97
356.147	5.44
356.516	5.83
356.885	5.05
357.254	5.46
357.624	5.41
357.993	5.27
358.362	5.4
358.731	5.33
359.1	5.52
359.469	5.23
359.838	5.07
360.207	5.06
360.576	5.32
360.945	5.3
361.314	5.23
361.682	5.07
362.051	5.4
362.42	5.29
362.788	5.49
363.157	5.07
363.525	5.18
363.894	5.3
364.262	5.42
364.631	6.14
364.999	5.33
365.367	5.58
365.735	5.04
366.104	5.4
366.472	5.55
366.84	5.69
367.208	5.02
367.576	5.22
367.944	5.61
368.312	5.21
368.68	5.49
369.048	5.73
369.416	5.1
369.783	5.51
370.151	5.53
370.519	5.54
370.886	5.23
371.254	5.56
371.621	5.47
371.989	5.46
372.356	5.41
372.724	5.75
373.091	5.59
373.458	5.39
373.826	5.5
374.193	5.97
374.56	5.4
374.927	5.26
375.294	5.84
375.661	5.28
376.028	5.67
376.395	5.56
376.762	5.76
377.129	5.8
377.496	5.98
377.863	5.84
378.229	5.48
378.596	5.55
378.963	5.86
379.329	5.69
379.696	5.81
380.062	5.87
380.429	5.86
380.795	5.38
381.161	5.71
381.528	5.27
381.894	5.85
382.26	5.43
382.626	5.66
382.993	5.36
383.359	5.85
383.725	5.93
384.091	5.86
384.457	5.98
384.823	6.05
385.188	6.01
385.554	5.86
385.92	5.98
386.286	5.86
386.651	5.93
387.017	6.23
387.383	5.77
387.748	5.75
388.114	6.06
388.479	6.07
388.845	6.06
389.21	6.04
389.575	6.04
389.94	5.89
390.306	5.69
390.671	5.92
391.036	6.11
391.401	6.31
391.766	6.04
392.131	6
392.496	6.22
392.861	5.84
393.226	5.85
393.591	6.13
393.956	6.2
394.32	5.81
394.685	6.13
395.05	5.74
395.414	6.1
395.779	6.01
396.143	5.94
396.508	6.01
396.872	6.18
397.236	5.63
397.601	6.11
397.965	6.03
398.329	6.1
398.694	6.02
399.058	5.98
399.422	5.92
399.786	6.04
400.15	5.96
400.514	6.1
400.878	5.97
401.242	6.09
401.605	6.08
401.969	6.11
402.333	5.99
402.697	6.18
403.06	6.18
403.424	6.23
403.787	6.32
404.151	5.9
404.514	6.18
404.878	6.16
405.241	6.37
405.604	6.25
405.968	6.01
406.331	6.12
406.694	6.1
407.057	6.18
407.42	6.14
407.783	6.1
408.146	6.23
408.509	5.97
408.872	5.95
409.235	6.2
409.598	6.42
409.961	6.32
410.323	6.2
410.686	6.25
411.049	6.16
411.411	6.4
411.774	6.23
412.136	6.56
412.499	6.22
412.861	5.97
413.223	6.37
413.586	6.28
413.948	6.31
414.31	6.28
414.672	6.19
415.035	6.39
415.397	6.43
415.759	6.35
416.121	6.49
416.483	6.35
416.845	6.28
417.206	6.37
417.568	6.26
417.93	6.12
418.292	6.42
418.653	6.46
419.015	6.42
419.377	6.44
419.738	6.4
420.1	6.37
420.461	6.27
420.822	6.37
421.184	6.37
421.545	6.41
421.906	6.34
422.267	6.28
422.629	6.26
422.99	6.31
423.351	6.3
423.712	6.27
424.073	6.39
424.434	6.31
424.795	6.33
425.155	6.38
425.516	6.27
425.877	6.36
426.238	6.29
426.598	6.35
426.959	6.24
427.32	6.34
427.68	6.41
428.041	6.51
428.401	6.48
428.761	6.43
429.122	6.4
429.482	6.47
429.842	6.73
430.202	6.56
430.563	6.66
430.923	6.62
431.283	6.77
431.643	6.83
432.003	6.8
432.363	6.82
432.722	6.73
433.082	6.79
433.442	6.65
433.802	6.76
434.161	6.72
434.521	6.71
434.881	6.76
435.24	6.57
435.6	6.64
435.959	6.72
436.319	6.74
436.678	6.77
437.037	6.85
437.396	6.77
437.756	6.78
438.115	6.73
438.474	6.92
438.833	6.92
439.192	7.14
439.551	6.8
439.91	6.99
440.269	7
440.628	6.83
440.987	6.75
441.345	6.75
441.704	6.82
442.063	6.91
442.421	6.82
442.78	6.76
443.138	6.77
443.497	6.79
443.855	6.94
444.214	6.84
444.572	6.84
444.93	7
445.288	6.99
445.647	7.17
446.005	6.95
446.363	6.92
446.721	6.84
447.079	6.99
447.437	6.9
447.795	6.9
448.153	6.86
448.51	6.92
448.868	7.06
449.226	6.93
449.584	6.97
449.941	7.08
450.299	7.08
450.656	7.09
451.014	7.12
451.371	7.24
451.729	7.19
452.086	7.02
452.443	6.87
452.801	7.27
453.158	7.18
453.515	7.09
453.872	7.28
454.229	7.13
454.586	7.24
454.943	7.22
455.3	7.28
455.657	7.16
456.014	7.27
456.371	7.22
456.727	7.31
457.084	7.29
457.441	7.16
457.797	7.3
458.154	7.33
458.51	7.13
458.867	7.25
459.223	7.4
459.58	7.29
459.936	7.33
460.292	7.41
460.648	7.2
461.005	7.14
461.361	7.23
461.717	7.15
462.073	7.2
462.429	7.35
462.785	7.33
463.141	7.41
463.496	7.29
463.852	7.37
464.208	7.37
464.564	7.35
464.919	7.36
465.275	7.55
465.631	7.33
465.986	7.5
466.342	7.47
466.697	7.52
467.052	7.44
467.408	7.4
467.763	7.3
468.118	7.6
468.473	7.56
468.829	7.55
469.184	7.65
469.539	7.53
469.894	7.55
470.249	7.55
470.603	7.61
470.958	7.72
471.313	7.52
471.668	7.65
472.023	7.64
472.377	7.53
472.732	7.56
473.086	7.46
473.441	7.65
473.795	7.73
474.15	7.67
474.504	7.65
474.859	7.81
475.213	7.73
475.567	7.52
475.921	7.9
476.275	7.69
476.63	7.69
476.984	7.77
477.338	7.89
477.692	7.76
478.045	7.74
478.399	7.6
478.753	7.59
479.107	7.75
479.461	7.75
479.814	7.66
480.168	7.79
480.521	7.71
480.875	7.91
481.228	7.77
481.582	7.7
481.935	7.81
482.289	7.7
482.642	7.9
482.995	7.73
483.348	7.74
483.701	7.63
484.055	7.66
484.408	7.64
484.761	7.46
485.114	7.43
485.466	7.36
485.819	7.22
486.172	7.2
486.525	7.27
486.878	7.35
487.23	7.42
487.583	7.48
487.936	7.54
488.288	7.52
488.641	7.55
488.993	7.38
489.345	7.39
489.698	7.46
490.05	7.4
490.402	7.43
490.754	7.55
491.107	7.64
491.459	7.67
491.811	7.84
492.163	7.74
492.515	7.76
492.866	7.57
493.218	7.55
493.57	7.52
493.922	7.44
494.274	7.55
494.625	7.57
494.977	7.76
495.328	7.84
495.68	7.94
496.031	7.93
496.383	7.94
496.734	8.04
497.086	7.87
497.437	8.01
497.788	7.98
498.139	7.9
498.49	7.92
498.842	7.87
499.193	7.93
499.544	7.94
499.894	7.84
500.245	7.9
500.596	7.99
500.947	7.93
501.298	7.92
501.648	8.06
501.999	8.07
502.35	8.22
502.7	7.98
503.051	8.19
503.401	8.07
503.752	8.01
504.102	8
504.452	7.93
504.803	7.95
505.153	8.1
505.503	8.01
505.853	8.03
506.203	8.13
506.553	8.24
506.903	8
507.253	8.23
507.603	8.19
507.953	8.25
508.303	8.14
508.652	8.08
509.002	8.17
509.352	8.14
509.701	8.05
510.051	8.24
510.4	7.99
510.75	7.99
511.099	8.09
511.449	8.13
511.798	8.08
512.147	8.12
512.496	8.19
512.846	8.23
513.195	8.16
513.544	8.07
513.893	7.95
514.242	8.15
514.591	8.23
514.939	8.02
515.288	8.18
515.637	8.22
515.986	8.16
516.334	8.23
516.683	8.16
517.032	8.14
517.38	8.29
517.729	8.15
518.077	8.25
518.426	8.13
518.774	8.19
519.122	8.04
519.47	8.11
519.819	8.09
520.167	8.04
520.515	8.02
520.863	7.96
521.211	8
521.559	8.02
521.907	8.04
522.255	8.19
522.602	8.22
522.95	8.22
523.298	8.16
523.645	8.25
523.993	8.43
524.341	8.3
524.688	8.21
525.036	8.39
525.383	8.4
525.73	8.34
526.078	8.28
526.425	8.18
526.772	8.15
527.119	8.13
527.466	8.14
527.814	8.02
528.161	8.01
528.508	8.05
528.854	8.01
529.201	8.04
529.548	7.98
529.895	7.94
530.242	7.87
530.588	7.79
530.935	7.72
531.282	7.75
531.628	7.8
531.975	7.89
532.321	7.93
532.667	8.08
533.014	8.09
533.36	8.17
533.706	8.19
534.052	8.07
534.399	8.06
534.745	8.04
535.091	7.92
535.437	7.98
535.783	8.04
536.129	7.94
536.474	8.15
536.82	8.09
537.166	8.25
537.512	8.26
537.857	8.19
538.203	8.1
538.549	8.2
538.894	8.1
539.239	8.25
539.585	8.19
539.93	8.21
540.276	8.16
540.621	8.25
540.966	8.28
541.311	8.31
541.656	8.21
542.001	8.31
542.346	8.13
542.691	8.07
543.036	7.99
543.381	8.05
543.726	8.07
544.071	8.04
544.415	8.07
544.76	8
545.105	8.19
545.449	8.19
545.794	8.23
546.138	8.31
546.483	8.36
546.827	8.41
547.171	8.38
547.516	8.41
547.86	8.38
548.204	8.26
548.548	8.4
548.892	8.32
549.236	8.36
549.58	8.29
549.924	8.4
550.268	8.52
550.612	8.56
550.956	8.45
551.3	8.54
551.643	8.69
551.987	8.57
552.33	8.58
552.674	8.74
553.017	8.66
553.361	8.54
553.704	8.5
554.048	8.56
554.391	8.59
554.734	8.63
555.077	8.47
555.42	8.59
555.764	8.48
556.107	8.63
556.45	8.51
556.793	8.9
557.135	8.75
557.478	8.77
557.821	8.52
558.164	8.69
558.507	8.58
558.849	8.68
559.192	8.76
559.534	8.71
559.877	8.67
560.219	8.69
560.562	8.75
560.904	8.68
561.246	8.82
561.589	8.87
561.931	9
562.273	8.62
562.615	8.78
562.957	8.69
563.299	8.8
563.641	8.84
563.983	8.65
564.325	8.57
564.667	8.66
565.008	8.61
565.35	8.89
565.692	8.65
566.033	8.78
566.375	8.68
566.716	8.68
567.058	8.81
567.399	8.82
567.741	8.64
568.082	8.74
568.423	8.6
568.764	8.77
569.105	8.57
569.447	8.74
569.788	8.68
570.129	8.6
570.47	8.68
570.811	8.56
571.151	8.66
571.492	8.78
571.833	8.67
572.174	8.7
572.514	8.47
572.855	8.79
573.195	8.61
573.536	8.7
573.876	8.71
574.217	8.73
574.557	8.71
574.898	8.56
575.238	8.7
575.578	8.76
575.918	8.58
576.258	8.58
576.598	8.65
576.938	8.77
577.278	8.67
577.618	8.78
577.958	8.79
578.298	8.76
578.638	8.81
578.977	8.78
579.317	8.86
579.657	8.96
579.996	8.84
580.336	8.77
580.675	8.91
581.014	8.69
581.354	8.89
581.693	8.89
582.032	8.88
582.372	8.86
582.711	8.86
583.05	8.92
583.389	8.88
583.728	8.92
584.067	8.96
584.406	8.77
584.745	8.81
585.083	8.92
585.422	8.79
585.761	8.9
586.1	9.13
586.438	8.95
586.777	8.89
587.115	9.19
587.454	9.03
587.792	8.68
588.13	8.91
588.469	9.02
588.807	9.09
589.145	8.88
589.483	8.68
589.821	8.85
590.159	8.74
590.497	8.6
590.835	8.99
591.173	9.02
591.511	9.03
591.849	9.03
592.187	8.9
592.524	8.78
592.862	9.07
593.2	8.9
593.537	8.96
593.875	8.83
594.212	9
594.55	8.96
594.887	8.94
595.224	8.94
595.561	8.99
595.899	8.92
596.236	9.03
596.573	9.04
596.91	8.85
597.247	8.99
597.584	9.11
597.921	8.94
598.258	9.14
598.594	8.84
598.931	8.82
599.268	8.73
599.604	9.04
599.941	8.82
600.277	8.89
600.614	9.11
600.95	8.88
601.287	9.12
601.623	9.13
601.959	8.93
602.296	9.2
602.632	9.15
602.968	8.88
603.304	9.07
603.64	8.8
603.976	9.07
604.312	9.32
604.648	9.06
604.984	9.03
605.319	8.91
605.655	8.85
605.991	8.87
606.326	8.73
606.662	8.82
606.998	8.86
607.333	8.82
607.668	8.96
608.004	9
608.339	8.99
608.674	9.19
609.01	8.98
609.345	9.32
609.68	9.05
610.015	9.05
610.35	9.07
610.685	8.96
611.02	9.15
611.355	9.09
611.689	8.84
612.024	9.09
612.359	9.04
612.694	9.18
613.028	9.24
613.363	8.89
613.697	9.17
614.032	9.16
614.366	8.87
614.7	9.49
615.035	9.08
615.369	9.23
615.703	9.27
616.037	9.23
616.371	8.91
616.705	9.11
617.039	9.3
617.373	9.19
617.707	9.14
618.041	9.44
618.375	9.02
618.709	9.04
619.042	9.23
619.376	8.87
619.71	9.23
620.043	9.05
620.377	9.33
620.71	9.13
621.043	9.11
621.377	8.88
621.71	9.19
622.043	9.11
622.376	9.43
622.709	9.35
623.043	9.26
623.376	9.59
623.709	9.42
624.041	9.27
624.374	9.05
624.707	9.24
625.04	9.36
625.373	9.31
625.705	9.17
626.038	9.37
626.37	9.01
626.703	9.22
627.035	9.39
627.368	9.43
627.7	9.26
628.032	9.28
628.365	8.83
628.697	9.1
629.029	9.22
629.361	9.14
629.693	9.64
630.025	9.27
630.357	9.24
630.689	9.56
631.021	9.26
631.353	9.19
631.684	9.5
632.016	9.01
632.348	9.2
632.679	9.28
633.011	9.09
633.342	9.33
633.674	9.24
634.005	9.35
634.336	9.27
634.668	9.33
634.999	9.37
635.33	9.18
635.661	9.44
635.992	9.1
636.323	9.35
636.654	9.22
636.985	9.08
637.316	9.25
637.647	9.09
637.977	9.43
638.308	9.28
638.639	9.02
638.969	9.25
639.3	9.22
639.63	9.24
639.961	9.14
640.291	9.5
640.622	9.73
640.952	9.29
641.282	8.94
641.612	9.46
641.943	9.45
642.273	9.12
642.603	8.96
642.933	9.15
643.263	10.02
643.592	9.17
643.922	9.57
644.252	9.7
644.582	9.01
644.911	8.88
645.241	9.33
645.571	9.07
645.9	9.69
646.23	9.36
646.559	9.37
646.888	9.21
647.218	9.44
647.547	9.52
647.876	9.68
648.205	9.39
648.534	9.32
648.863	9.49
649.192	8.85
649.521	8.97
649.85	9.67
650.179	9.28
650.508	9.25
650.837	9.22
651.165	9.78
651.494	9.67
651.822	9.6
652.151	9.62
652.479	9.91
652.808	9.17
653.136	9.65
653.465	9.56
653.793	9.47
654.121	9.55
654.449	9.27
654.777	9.48
655.105	10.02
655.433	9.6
655.761	9.19
656.089	9.55
656.417	9
656.745	10.06
657.073	9.69
657.4	9.59
657.728	9.54
658.056	9.27
658.383	9.31
658.711	9.28
659.038	9.97
659.365	9.67
659.693	9.3
660.02	9.35
660.347	9.48
660.674	9.15
661.001	9.31
661.329	9.58
661.656	9.18
661.982	9.28
662.309	9.5
662.636	9.34
662.963	9.69
663.29	9.37
663.616	9.58
663.943	10.26
664.27	9.61
664.596	9.46
664.923	10.15
665.249	9.58
665.576	9.4
665.902	10.15
666.228	9.09
666.554	9.33
666.881	9.64
667.207	9.86
667.533	10.32
667.859	9.32
668.185	9.73
668.511	9.05
668.837	8.63
669.162	9.61
669.488	9.84
669.814	9.99
670.139	9.97
670.465	9.48
670.791	9.84
671.116	9.39
671.442	9.81
671.767	9.39
672.092	10.35
672.418	9.8
672.743	9.8
673.068	9.45
673.393	9.64
673.718	9.41
674.043	9.88
674.368	9.82
674.693	10.43
675.018	9.86
675.343	9.97
675.667	9.69
675.992	8.88
676.317	10.24
676.641	9.99
676.966	9.93
677.29	9.43
677.615	9.38
677.939	9.45
678.264	9.94
678.588	9.73
678.912	9.99
679.236	10.19
679.56	9.51
679.885	9.83
680.209	9.58
680.532	9.39
680.856	9.89
681.18	9.52
681.504	9.67
681.828	9.3
682.152	9.5
682.475	9.66
682.799	9.93
683.122	9.54
683.446	9.38
683.769	10.36
684.093	10.14
684.416	9.76
684.739	10.08
685.062	9.89
685.386	9.68
685.709	9.88
686.032	9.47
686.355	9.84
686.678	9.53
687.001	9.15
687.324	9.55
687.646	9.03
687.969	10.08
688.292	10.33
688.614	10.25
688.937	9.92
689.26	9.36
689.582	9.49
689.904	9.71
690.227	9.8
690.549	9.73
690.871	9.88
691.194	9.9
691.516	10.1
691.838	9.44
692.16	9.83
692.482	10.19
692.804	9.82
693.126	9.13
693.448	10.04
693.769	10.02
694.091	10.23
694.413	10
694.735	10.62
695.056	9.97
695.378	10.13
695.699	11.3
696.021	9.9
696.342	10.15
696.663	10.58
696.984	10.23
697.306	9.6
697.627	9.94
697.948	10.57
698.269	10.15
698.59	10.66
698.911	9.64
699.232	10.37
699.553	10.32
699.873	10.09
700.194	10.31
700.515	9.66
700.835	10.17
701.156	10.3
701.477	9.69
701.797	10.06
702.117	10.5
702.438	10.04
702.758	8.99
703.078	9.54
703.398	10.51
703.719	9.86
704.039	10.33
704.359	9.21
704.679	9.73
704.999	9.7
705.319	9.88
705.638	10.23
705.958	9.98
706.278	10.39
706.597	10.46
706.917	10.34
707.237	9.83
707.556	10.26
707.876	9.73
708.195	10.1
708.514	9.66
708.834	11.48
709.153	11.09
709.472	11.23
709.791	10.91
710.11	10.25
710.429	9.85
710.748	9.86
711.067	10.99
711.386	10.95
711.705	10.38
712.023	10.46
712.342	9.69
712.661	11.02
712.979	11.18
713.298	10.01
713.616	11.13
713.935	10.64
714.253	9.96
714.572	9.67
714.89	10.01
715.208	11.52
715.526	10.54
715.844	10.93
716.162	9.99
716.48	10.52
716.798	10.76
717.116	11.28
717.434	10.31
717.752	10.12
718.069	9.82
718.387	10.21
718.705	9.56
719.022	10.61
719.34	9.82
719.657	10.77
719.975	9.49
720.292	10.46
720.609	10.11
720.927	10.25
721.244	10.52
721.561	10.24
721.878	10.31
722.195	11.69
722.512	10.72
722.829	10.72
723.146	9.14
723.463	10.35
723.779	9.93
724.096	10.12
724.413	9.98
724.729	9.74
725.046	10.42
725.362	8.89
725.679	10.48
725.995	9.9
726.311	11.56
726.628	10.74
726.944	11.91
727.26	9.15
727.576	11.85
727.892	10.19
728.208	10.34
728.524	11.46
728.84	12.03
729.156	11.33
729.472	12.3
729.787	11.34
730.103	10.14
730.419	10.82
730.734	9.69
731.05	10.73
731.365	10.87
731.681	9.74
731.996	8.92
732.311	10.13
732.626	11.42
732.942	11.31
733.257	10.7
733.572	11.69
733.887	11.22
734.202	10.51
734.517	9.23
734.832	10.82
735.146	9.75
735.461	11.32
735.776	9.31
736.091	10.52
736.405	10.92
736.72	11.08
737.034	9.58
737.349	9.13
737.663	10.51
737.977	10.69
738.292	11.19
738.606	10.29
738.92	12.19
739.234	11.07
739.548	11.31
739.862	10.33
740.176	9.96
740.49	11.25
740.804	10.52
741.117	11.27
741.431	10.29
741.745	8.93
742.058	11.16
742.372	10.66
742.685	10.25
742.999	11.78
743.312	9.61
743.626	9.68
743.939	11.75
744.252	11.62
744.565	11.2
744.878	12.52
745.191	9.67
745.505	10.53
745.817	10.28
746.13	10.77
746.443	11.26
746.756	10.75
747.069	9.88
747.381	11.32
747.694	7.76
748.007	11.31
748.319	9.75
748.632	10.17
748.944	11.13
749.256	13.47
749.569	10.54
749.881	10.12
750.193	11.55
750.505	11.86
750.817	9.99
751.129	9.89
751.441	10.93
751.753	12.48
752.065	12.59
752.377	9.46
752.689	11.62
753	9.46
753.312	11.11
753.624	11.44
753.935	10.66
754.247	11.03
754.558	11.74
754.869	10.61
755.181	13.37
755.492	12.4
755.803	10.71
756.114	9.72
756.425	11.9
756.736	10.43
757.047	12.98
757.358	11.17
757.669	12.5
757.98	11.65
758.291	11.48
758.601	10.48
758.912	9.99
759.223	11.3
759.533	11.81
759.844	12.38
760.154	12.36
760.464	11.95
760.775	14.53
761.085	10.89
761.395	11.44
761.705	11.77
762.016	11.79
762.326	10.77
762.636	10.39
762.945	9.59
763.255	10.42
763.565	11.54
763.875	10.6
764.185	12.19
764.494	10.02
764.804	11.58
765.113	11.11
765.423	11.51
765.732	10.42
766.042	11.29
766.351	11.9
766.66	12.16
766.97	11.15
767.279	11.36
767.588	10.58
767.897	12.55
768.206	11.41
768.515	10.71
768.824	10.54
769.133	10.56
769.441	12.15
769.75	10.29
770.059	9.87
770.367	11.62
770.676	10.09
770.984	10.57
771.293	10.87
771.601	8.62
771.91	13.53
772.218	10.56
772.526	10.13
772.834	11.34
773.142	9.67
773.45	5.86
773.758	11.62
774.066	10.23
774.374	7.24
774.682	10.4
774.99	8.74
775.298	9.71
775.605	10.84
775.913	11.06
776.22	8.16
776.528	10.62
776.835	11.87
777.143	11.53
777.45	9.16
777.757	10.2
778.065	12.23
778.372	10.23
778.679	11.66
778.986	6.56
779.293	12.25
779.6	8.64
779.907	8.63
780.214	11.62
780.52	13.74
780.827	11.95
781.134	12.18
781.44	10.61
781.747	15.08
782.053	9.34
782.36	11.69
782.666	11.22
782.973	11.79
783.279	10.99
783.585	10.39
783.891	10.94
784.197	10.77
784.503	12.3
784.809	15.83
785.115	8.39
785.421	9.62
785.727	10.37
786.033	12.37
786.339	11.26
786.644	9.55
786.95	14.93
787.255	11.85
787.561	9.25
787.866	6.75
788.172	12.73
788.477	6.53
788.782	9.37
789.088	13.9
789.393	11.34
789.698	9.93
790.003	11.59
790.308	11.27
790.613	12.38
790.918	13.09
791.223	10.12
791.527	10.88
791.832	8.56
792.137	14.8
792.441	14.51
792.746	7.72
793.05	10.78
793.355	14.07
793.659	10.45
793.963	11.98
794.268	11.12
794.572	14.88
794.876	13.35
795.18	8.03
795.484	8.41
795.788	11.72
796.092	14.31
796.396	12.37
796.7	13.38
797.004	13.19
797.307	14.35
797.611	13.11
797.915	12.67
798.218	16.51
798.522	9.91
798.825	12.32
799.128	13.11
799.432	11.71
799.735	5.06
800.038	6.77
800.341	7.95
800.644	7.92
800.947	11.6
801.25	9.13
801.553	14.46
801.856	12.2
802.159	6.72
802.462	11.23
802.764	11.58
803.067	8.81
803.37	13.51
803.672	11.9
803.975	13.28
804.277	13.62
804.579	9.76
804.882	9.44
805.184	9.63
805.486	12.23
805.788	9.65
806.09	10.65
806.392	17.6
806.694	11.95
806.996	10.27
807.298	11.55
807.6	12.29
807.902	9.72
808.203	10.66
808.505	12.03
808.807	12.87
809.108	9.35
809.409	10.82
809.711	7.97
810.012	14.38
810.313	16.43
810.615	9.19
810.916	10.58
811.217	14.5
811.518	19.4
811.819	7.75
812.12	18.48
812.421	13.67
812.722	5.41
813.023	12.94
813.323	12.03
813.624	12.86
813.925	13.44
814.225	10.5
814.526	14.95
814.826	13.74
815.126	12.93
815.427	16.67
815.727	10.08
816.027	8.83
816.327	5.84
816.627	10.53
816.927	7.21
817.227	8.71
817.527	9.16
817.827	13.47
818.127	10.97
818.427	3.79
818.727	9.44
819.026	19.58
819.326	18.31
819.625	10.61
819.925	8.53
820.224	10.21
820.524	12.8
820.823	8.95
821.122	9.49
821.421	8.3
821.72	14.28
822.019	8.26
822.318	14.75
822.617	11.47
822.916	8.54
823.215	11.87
823.514	12.37
823.813	12.55
824.111	12.64
824.41	12.44
824.709	14.13
825.007	13.96
825.306	13.79
825.604	13.64
825.902	13.07
826.201	13.97
826.499	12.38
826.797	12.81
827.095	11.09
827.393	12.87
827.691	14.24
827.989	12.81
828.287	15.83
828.585	11.71
828.882	13.46
829.18	11.94
829.478	13.48
829.775	14.18
830.073	14.8
830.37	12.64
830.668	12.98
830.965	11.29
831.263	13.74
831.56	13.37
831.857	12.4
832.154	13.16
832.451	14.65
832.748	13.2
833.045	18.66
833.342	7.9
833.639	14.3
833.936	10.74
834.232	12.75
834.529	9.65
834.826	10.11
835.122	14.84
835.419	9.85
835.715	10.06
836.012	11.02
836.308	14.16
836.604	11.36
836.901	18.74
837.197	12.16
837.493	15.04
837.789	12.42
838.085	11.47
838.381	8.94
838.677	8.58
838.972	10.73
839.268	12.79
839.564	12.1
839.86	11.32
840.155	10.27
840.451	12.84
840.746	18.26
841.042	11.29
841.337	11.16
841.632	21.86
841.928	11.87
842.223	13.13
842.518	15.07
842.813	10.77
843.108	9.28
843.403	19.65
843.698	14.38
843.993	14.62
844.287	10.14
844.582	13.21
844.877	7.38
845.171	12.81
845.466	7.38
845.761	11.34
846.055	6
846.349	-7.19
846.644	2.26
846.938	7.54
847.232	12.68
847.526	12.82
847.82	1.69
848.114	9.08
848.408	14.32
848.702	9.57
848.996	14.06
849.29	7.47
849.584	-11.16
849.877	13.43
850.171	18.28
850.465	7.4
850.758	7.4
851.052	7.62
851.345	11.11
851.638	11.02
851.932	8.21
852.225	3.9
852.518	3.51
852.811	17.76
853.104	11.1
853.397	9.78
853.69	14.52
853.983	-3.85
854.276	6.13
854.569	13.35
854.861	5.73
855.154	-0.27
855.447	-11.04
855.739	15.73
856.032	-22.49
856.324	15.57
856.616	23.92
856.909	18.59
857.201	21
857.493	-4.7
857.785	-10.93
858.077	-4.62
858.369	-5.45
858.661	13.39
858.953	-2.42
859.245	4.65
859.537	33.17
859.829	9.03
860.12	15.09
860.412	-1.22
860.703	12.82
860.995	-27.64
861.286	6.4
861.578	-26.12
861.869	9.54
862.16	10.58
862.452	-15.26
862.743	16.45
863.034	7.17
863.325	12.95
863.616	25.49
863.907	28.41
864.198	15.69
864.488	-0.43
864.779	2.92
865.07	26.86
865.36	10.73
865.651	12.12
865.941	32.46
866.232	-12.35
866.522	1.39
866.813	18.83
867.103	5.79
867.393	10.26
867.683	1.63
867.973	13.65
868.263	18.12
868.553	8.93
868.843	-25.97
869.133	4.48
869.423	21.85
869.713	15.81
870.002	-7.81
870.292	14.25
870.582	11
870.871	6.74
871.161	6.42
871.45	31.42
871.739	-35.1
872.029	-20.56
872.318	9.77
872.607	17.34
872.896	27.64
873.185	8.56
873.474	38.48
873.763	19.93
874.052	13.15
874.341	-49.95
874.63	-1.12
874.918	23.28
875.207	9.67
875.496	29.58
875.784	41.48
876.073	29.13
876.361	-4.29
876.649	3.55
876.938	20.79
877.226	0.1
877.514	-4.83
877.802	6.48
878.09	6.91
878.378	27.81
878.666	4.98
878.954	19.49
879.242	23.34
879.53	-19.99
879.817	4.26
880.105	-12.34
880.392	29.54
880.68	5.12
880.967	26.33
881.255	9.93
881.542	9.08
881.83	12.97
882.117	4.99
882.404	5.43
882.691	-0.19
882.978	-3.58
883.265	25.53
883.552	3.24
883.839	16.08
884.126	6.58
884.413	22.24
884.699	16.7
884.986	16.74
885.273	12.73
885.559	12.73
885.846	12.73
