Data from 0062_chest_Reflection__1__194.txt Node

Date: Fri Dec 16 15:32:03 CST 2022
User: ToomeyLab
Spectrometer: FLMS14357
Trigger mode: 0
Integration Time (sec): 1.000000E-2
Scans to average: 100
Electric dark correction enabled: true
Nonlinearity correction enabled: false
Boxcar width: 0
XAxis mode: Wavelengths
Number of Pixels in Spectrum: 2048
>>>>>Begin Spectral Data<<<<<
189.047	261.28
189.435	261.28
189.823	261.28
190.211	197.29
190.599	171.43
190.987	77.34
191.375	44.76
191.763	1149.28
192.151	32.45
192.538	21.31
192.926	-45.18
193.314	217.86
193.702	-37.23
194.089	129.08
194.477	-32.02
194.864	49.65
195.252	-94.93
195.639	52.82
196.027	-40.4
196.414	-80
196.801	397.48
197.189	196.85
197.576	-778.6
197.963	-4.11
198.351	-26.17
198.738	-77.73
199.125	-14.9
199.512	-10.14
199.899	-50.18
200.286	-150.84
200.673	18.08
201.06	7.41
201.447	54.07
201.833	-34.32
202.22	41.54
202.607	-44.34
202.994	16.78
203.38	-79.72
203.767	-46.2
204.154	-62.66
204.54	3.57
204.927	15.13
205.313	18.68
205.699	-5.8
206.086	4.1
206.472	21.67
206.858	6.41
207.245	12.13
207.631	8.91
208.017	3.39
208.403	12.12
208.789	-21.34
209.175	33.85
209.561	3.03
209.947	-40.77
210.333	-24.47
210.719	-8.73
211.105	-35.77
211.491	-1.67
211.876	-28.42
212.262	-6.87
212.648	-72.51
213.034	-3.53
213.419	25.35
213.805	-9.05
214.19	-25.95
214.576	-6.52
214.961	-69.85
215.346	-11.89
215.732	-42.27
216.117	-9.59
216.502	-20.9
216.888	3.22
217.273	0.04
217.658	-25.21
218.043	12.46
218.428	0.33
218.813	-15.75
219.198	-79.28
219.583	10.83
219.968	-17.43
220.353	-2.04
220.738	-16.16
221.122	-8.04
221.507	-18.67
221.892	-9.98
222.276	2.16
222.661	0.51
223.046	7.36
223.43	-11.79
223.815	0.73
224.199	2.36
224.583	6.27
224.968	9.64
225.352	2.15
225.736	6.56
226.121	-6.12
226.505	-4.7
226.889	3.83
227.273	-1.24
227.657	-2.5
228.041	2.97
228.425	-0.48
228.809	3.38
229.193	2.64
229.577	1.03
229.961	2.57
230.344	2.14
230.728	1.99
231.112	1.02
231.495	0.77
231.879	2.79
232.263	1.5
232.646	1.64
233.03	-0.23
233.413	-0.61
233.797	3.08
234.18	-1.14
234.563	1.13
234.946	1.77
235.33	1.98
235.713	2.19
236.096	1.62
236.479	2.57
236.862	2.68
237.245	2.32
237.628	2.65
238.011	0.97
238.394	3.53
238.777	3.55
239.16	-0.88
239.543	0.84
239.925	3.27
240.308	1.76
240.691	2.59
241.073	1.87
241.456	2.15
241.838	1.71
242.221	2.53
242.603	2.19
242.986	3.15
243.368	1.98
243.75	1.85
244.133	2.18
244.515	2.12
244.897	2.1
245.279	1.98
245.661	1.03
246.043	2.67
246.425	1.75
246.807	1.95
247.189	2.14
247.571	2.29
247.953	2.46
248.335	2.37
248.717	2.35
249.098	2.33
249.48	2.04
249.862	2.27
250.243	2
250.625	2.41
251.006	2.52
251.388	2.77
251.769	1.62
252.151	2.04
252.532	1.81
252.913	2.01
253.295	1.88
253.676	2.67
254.057	2.09
254.438	1.84
254.819	2.78
255.2	2.35
255.581	1.53
255.962	1.44
256.343	3.31
256.724	1.82
257.105	2.04
257.486	1.61
257.867	0.84
258.247	2.26
258.628	2.87
259.009	2.21
259.389	2.01
259.77	1.59
260.15	2.75
260.531	2.54
260.911	2.19
261.292	2.19
261.672	2.14
262.052	2.06
262.432	2.13
262.813	2.07
263.193	1.46
263.573	1.86
263.953	1.81
264.333	2.26
264.713	2.03
265.093	2.03
265.473	2.7
265.853	1.6
266.233	2.53
266.612	1.6
266.992	1.67
267.372	1.95
267.752	1.62
268.131	2.18
268.511	2.39
268.89	2.27
269.27	1.96
269.649	2.24
270.029	1.78
270.408	1.85
270.787	2.16
271.167	1.81
271.546	1.36
271.925	2.25
272.304	1.69
272.683	2.17
273.062	1.96
273.441	2.18
273.82	1.91
274.199	2.38
274.578	1.79
274.957	2.32
275.336	2.24
275.715	2.4
276.093	2.7
276.472	2.35
276.851	2.19
277.229	3.21
277.608	2.09
277.986	2.4
278.365	1.69
278.743	2.14
279.122	1.9
279.5	2.08
279.878	1.58
280.257	2.4
280.635	1.6
281.013	2.32
281.391	2.1
281.769	2
282.147	2.33
282.525	1.8
282.903	2.2
283.281	1.65
283.659	2.39
284.037	2.15
284.415	2.48
284.792	1.97
285.17	1.89
285.548	2.02
285.925	2.3
286.303	1.98
286.68	1.85
287.058	2.09
287.435	2
287.813	1.99
288.19	2.51
288.567	1.98
288.945	2.12
289.322	1.66
289.699	2.62
290.076	2.42
290.453	2.06
290.83	2.23
291.207	1.76
291.584	1.74
291.961	2.06
292.338	2.24
292.715	2.19
293.092	2.1
293.469	2.81
293.845	2.58
294.222	2.24
294.599	2.27
294.975	2.15
295.352	2.11
295.728	2.02
296.105	1.97
296.481	2.71
296.858	2.22
297.234	2.19
297.61	2.16
297.986	1.99
298.363	2.07
298.739	2.65
299.115	2
299.491	2
299.867	2.18
300.243	1.65
300.619	1.8
300.995	1.9
301.371	2.4
301.746	2.13
302.122	2.3
302.498	2.08
302.874	2.19
303.249	2.59
303.625	1.98
304	2.12
304.376	1.74
304.751	1.86
305.127	1.87
305.502	2.27
305.878	2.2
306.253	2.31
306.628	2.52
307.003	2.54
307.378	1.82
307.754	2.6
308.129	2.04
308.504	1.94
308.879	2.54
309.254	2.58
309.629	2.35
310.003	2.72
310.378	2.47
310.753	2.31
311.128	2.11
311.502	2.04
311.877	2.19
312.252	1.77
312.626	1.96
313.001	1.92
313.375	2.1
313.75	1.93
314.124	2.56
314.498	1.96
314.873	1.92
315.247	1.38
315.621	2.43
315.995	2.15
316.369	2.18
316.743	1.99
317.117	1.96
317.491	2
317.865	1.74
318.239	2.33
318.613	1.79
318.987	2.6
319.361	2.41
319.734	2.08
320.108	2.33
320.482	1.92
320.855	2.29
321.229	2.72
321.602	2.09
321.976	1.86
322.349	1.48
322.723	1.86
323.096	1.84
323.469	1.93
323.843	2.49
324.216	1.92
324.589	2.49
324.962	2.12
325.335	2.16
325.708	2.46
326.081	2.52
326.454	1.86
326.827	2.37
327.2	2.28
327.573	2.34
327.945	2.15
328.318	2.18
328.691	2
329.063	2.48
329.436	1.67
329.809	1.91
330.181	2.22
330.553	2.67
330.926	2.65
331.298	2.21
331.671	2.15
332.043	2.23
332.415	3.02
332.787	2.6
333.159	2.08
333.532	2.31
333.904	2.41
334.276	2.58
334.648	2.34
335.02	2.22
335.391	2.13
335.763	1.91
336.135	1.8
336.507	2.28
336.879	1.89
337.25	2.4
337.622	2.41
337.993	2.26
338.365	2.33
338.736	2.56
339.108	1.9
339.479	2.01
339.851	2.72
340.222	2.49
340.593	2.09
340.964	1.74
341.336	1.79
341.707	2.25
342.078	1.94
342.449	2.38
342.82	2.12
343.191	1.89
343.562	2.27
343.933	2.66
344.303	2.32
344.674	2.46
345.045	2.52
345.416	2.35
345.786	1.93
346.157	2.15
346.527	2.14
346.898	2.21
347.268	2.42
347.639	2.03
348.009	2.5
348.38	2.03
348.75	2.17
349.12	2.7
349.49	2.05
349.861	2.58
350.231	2.41
350.601	2.11
350.971	2.36
351.341	2.46
351.711	2.34
352.081	2.47
352.45	2.49
352.82	2.34
353.19	2.22
353.56	2.42
353.929	2.38
354.299	2.09
354.669	2.51
355.038	2.17
355.408	2.73
355.777	2.2
356.147	2.85
356.516	2.83
356.885	2.3
357.254	2.81
357.624	2.23
357.993	2.26
358.362	2.54
358.731	2.43
359.1	2.3
359.469	2.42
359.838	2.09
360.207	2.2
360.576	2.48
360.945	2.15
361.314	2.31
361.682	2.2
362.051	2.2
362.42	2.51
362.788	2.34
363.157	2.03
363.525	2.46
363.894	2.09
364.262	2.2
364.631	2.78
364.999	1.99
365.367	2.41
365.735	2.02
366.104	2.14
366.472	2.26
366.84	2.48
367.208	2.2
367.576	2.14
367.944	2.57
368.312	1.85
368.68	2.6
369.048	2.77
369.416	2.39
369.783	2.44
370.151	2.4
370.519	2.2
370.886	2.39
371.254	2.39
371.621	2.48
371.989	2.63
372.356	2.51
372.724	2.26
373.091	2.25
373.458	2.38
373.826	2.46
374.193	2.73
374.56	2.43
374.927	2.1
375.294	2.4
375.661	2.59
376.028	2.52
376.395	2.59
376.762	2.81
377.129	2.78
377.496	2.46
377.863	2.41
378.229	2.56
378.596	2.37
378.963	2.33
379.329	2.49
379.696	2.53
380.062	2.39
380.429	2.65
380.795	2.21
381.161	2.61
381.528	2.13
381.894	2.38
382.26	2.09
382.626	2.43
382.993	2.28
383.359	2.21
383.725	2.73
384.091	2.33
384.457	2.28
384.823	2.47
385.188	2.49
385.554	2.21
385.92	2.38
386.286	2.54
386.651	2.35
387.017	2.6
387.383	2.24
387.748	2.25
388.114	2.56
388.479	2.59
388.845	2.59
389.21	2.58
389.575	2.53
389.94	2.24
390.306	2.67
390.671	2.56
391.036	2.66
391.401	2.84
391.766	2.48
392.131	2.38
392.496	2.48
392.861	2.16
393.226	2.66
393.591	2.68
393.956	2.67
394.32	2.31
394.685	2.49
395.05	2.23
395.414	2.74
395.779	2.44
396.143	2.52
396.508	2.46
396.872	2.39
397.236	2.06
397.601	2.49
397.965	2.34
398.329	2.68
398.694	2.17
399.058	2.49
399.422	2.73
399.786	2.35
400.15	2.43
400.514	2.5
400.878	2.66
401.242	2.95
401.605	2.57
401.969	2.74
402.333	2.45
402.697	2.66
403.06	2.46
403.424	2.65
403.787	2.66
404.151	2.3
404.514	2.65
404.878	2.61
405.241	2.54
405.604	2.55
405.968	2.63
406.331	2.56
406.694	2.58
407.057	2.91
407.42	2.58
407.783	2.47
408.146	2.53
408.509	2.48
408.872	2.44
409.235	2.53
409.598	2.68
409.961	2.67
410.323	2.55
410.686	2.77
411.049	2.69
411.411	2.54
411.774	2.61
412.136	2.69
412.499	2.47
412.861	2.49
413.223	2.62
413.586	2.57
413.948	2.42
414.31	2.54
414.672	2.59
415.035	2.7
415.397	2.49
415.759	2.42
416.121	2.71
416.483	2.68
416.845	2.62
417.206	2.72
417.568	2.68
417.93	2.46
418.292	2.68
418.653	2.55
419.015	2.73
419.377	2.71
419.738	2.59
420.1	2.58
420.461	2.5
420.822	2.65
421.184	2.54
421.545	2.56
421.906	2.64
422.267	2.47
422.629	2.64
422.99	2.6
423.351	2.63
423.712	2.56
424.073	2.69
424.434	2.56
424.795	2.53
425.155	2.65
425.516	2.59
425.877	2.58
426.238	2.52
426.598	2.67
426.959	2.64
427.32	2.72
427.68	2.75
428.041	2.69
428.401	2.66
428.761	2.65
429.122	2.77
429.482	2.67
429.842	2.57
430.202	2.7
430.563	2.77
430.923	2.66
431.283	2.69
431.643	2.76
432.003	2.83
432.363	2.79
432.722	2.61
433.082	2.62
433.442	2.62
433.802	2.77
434.161	2.63
434.521	2.71
434.881	2.88
435.24	2.62
435.6	2.77
435.959	2.73
436.319	2.64
436.678	2.73
437.037	2.6
437.396	2.78
437.756	2.72
438.115	2.75
438.474	2.77
438.833	2.88
439.192	2.86
439.551	2.92
439.91	2.92
440.269	2.88
440.628	2.64
440.987	2.65
441.345	2.67
441.704	2.88
442.063	2.71
442.421	2.77
442.78	2.67
443.138	2.7
443.497	2.66
443.855	2.73
444.214	2.72
444.572	2.84
444.93	2.93
445.288	2.9
445.647	2.79
446.005	2.74
446.363	2.92
446.721	2.71
447.079	2.84
447.437	2.74
447.795	2.68
448.153	2.77
448.51	2.77
448.868	2.92
449.226	2.87
449.584	2.78
449.941	2.85
450.299	2.8
450.656	2.81
451.014	2.69
451.371	2.85
451.729	2.85
452.086	2.78
452.443	2.76
452.801	2.85
453.158	2.8
453.515	2.78
453.872	2.85
454.229	2.8
454.586	2.76
454.943	2.84
455.3	2.91
455.657	2.75
456.014	2.91
456.371	2.83
456.727	2.78
457.084	2.85
457.441	2.89
457.797	2.79
458.154	2.84
458.51	2.87
458.867	2.74
459.223	2.89
459.58	3.01
459.936	2.74
460.292	2.89
460.648	2.8
461.005	2.82
461.361	2.87
461.717	2.94
462.073	2.91
462.429	2.97
462.785	2.99
463.141	2.96
463.496	2.86
463.852	2.98
464.208	2.96
464.564	2.83
464.919	2.89
465.275	3.01
465.631	2.93
465.986	2.94
466.342	2.94
466.697	2.83
467.052	3.11
467.408	3.06
467.763	2.83
468.118	3.07
468.473	3.1
468.829	2.94
469.184	3.05
469.539	2.85
469.894	3.05
470.249	3.03
470.603	3.01
470.958	3.13
471.313	2.88
471.668	3.1
472.023	3.11
472.377	2.82
472.732	2.98
473.086	2.86
473.441	3.08
473.795	3.11
474.15	2.95
474.504	3.11
474.859	3.09
475.213	3.13
475.567	2.94
475.921	3.1
476.275	3.06
476.63	3.12
476.984	2.99
477.338	3.26
477.692	3.08
478.045	3.02
478.399	3.08
478.753	3
479.107	3.02
479.461	3.13
479.814	3.02
480.168	3.02
480.521	2.97
480.875	3.16
481.228	3.11
481.582	3.05
481.935	3.09
482.289	3.09
482.642	3.09
482.995	3.15
483.348	3.07
483.701	3.01
484.055	2.97
484.408	2.91
484.761	2.91
485.114	2.84
485.466	2.88
485.819	2.94
486.172	2.99
486.525	3.06
486.878	3.08
487.23	3.08
487.583	3.07
487.936	3.07
488.288	3.02
488.641	3
488.993	2.95
489.345	2.98
489.698	3.03
490.05	3.07
490.402	3.12
490.754	3.19
491.107	3.17
491.459	3.17
491.811	3.23
492.163	3.2
492.515	3.08
492.866	3.01
493.218	3.01
493.57	3.11
493.922	3.13
494.274	3.18
494.625	3.2
494.977	3.22
495.328	3.27
495.68	3.32
496.031	3.33
496.383	3.09
496.734	3.37
497.086	3.2
497.437	3.33
497.788	3.19
498.139	3.31
498.49	3.22
498.842	3.34
499.193	3.27
499.544	3.42
499.894	3.37
500.245	3.41
500.596	3.37
500.947	3.23
501.298	3.22
501.648	3.28
501.999	3.45
502.35	3.45
502.7	3.45
503.051	3.53
503.401	3.44
503.752	3.38
504.102	3.3
504.452	3.28
504.803	3.21
505.153	3.35
505.503	3.34
505.853	3.3
506.203	3.38
506.553	3.32
506.903	3.37
507.253	3.47
507.603	3.33
507.953	3.55
508.303	3.48
508.652	3.44
509.002	3.45
509.352	3.47
509.701	3.4
510.051	3.48
510.4	3.46
510.75	3.52
511.099	3.47
511.449	3.44
511.798	3.5
512.147	3.5
512.496	3.55
512.846	3.49
513.195	3.51
513.544	3.53
513.893	3.33
514.242	3.5
514.591	3.58
514.939	3.44
515.288	3.57
515.637	3.62
515.986	3.59
516.334	3.62
516.683	3.63
517.032	3.61
517.38	3.54
517.729	3.63
518.077	3.71
518.426	3.51
518.774	3.49
519.122	3.55
519.47	3.61
519.819	3.6
520.167	3.61
520.515	3.55
520.863	3.53
521.211	3.58
521.559	3.65
521.907	3.69
522.255	3.61
522.602	3.65
522.95	3.75
523.298	3.75
523.645	3.79
523.993	3.76
524.341	3.79
524.688	3.66
525.036	3.79
525.383	3.86
525.73	3.73
526.078	3.78
526.425	3.67
526.772	3.63
527.119	3.63
527.466	3.68
527.814	3.63
528.161	3.8
528.508	3.72
528.854	3.68
529.201	3.67
529.548	3.66
529.895	3.56
530.242	3.6
530.588	3.67
530.935	3.72
531.282	3.76
531.628	3.78
531.975	3.81
532.321	3.87
532.667	3.9
533.014	3.81
533.36	3.83
533.706	3.89
534.052	3.74
534.399	3.75
534.745	3.74
535.091	3.79
535.437	3.87
535.783	3.94
536.129	3.96
536.474	4.01
536.82	3.98
537.166	4.01
537.512	4
537.857	3.99
538.203	3.96
538.549	4.01
538.894	3.96
539.239	4.13
539.585	4.07
539.93	4.11
540.276	4.14
540.621	4.13
540.966	4.12
541.311	4.13
541.656	3.98
542.001	4.06
542.346	4
542.691	3.95
543.036	4.01
543.381	4.01
543.726	4.1
544.071	4.12
544.415	4.1
544.76	4.07
545.105	4.23
545.449	4.16
545.794	4.25
546.138	4.23
546.483	4.25
546.827	4.27
547.171	4.24
547.516	4.4
547.86	4.23
548.204	4.24
548.548	4.36
548.892	4.37
549.236	4.41
549.58	4.38
549.924	4.48
550.268	4.35
550.612	4.58
550.956	4.28
551.3	4.55
551.643	4.6
551.987	4.42
552.33	4.37
552.674	4.54
553.017	4.52
553.361	4.52
553.704	4.37
554.048	4.48
554.391	4.48
554.734	4.54
555.077	4.6
555.42	4.63
555.764	4.72
556.107	4.64
556.45	4.63
556.793	4.92
557.135	4.82
557.478	4.83
557.821	4.53
558.164	4.65
558.507	4.7
558.849	4.82
559.192	4.85
559.534	4.62
559.877	4.89
560.219	4.98
560.562	4.9
560.904	4.92
561.246	4.85
561.589	4.93
561.931	5.02
562.273	5
562.615	4.89
562.957	4.94
563.299	5.09
563.641	5
563.983	4.95
564.325	4.87
564.667	4.91
565.008	5.04
565.35	5.16
565.692	5.26
566.033	5.07
566.375	4.92
566.716	5.2
567.058	5.12
567.399	5.14
567.741	5.22
568.082	5.19
568.423	5.14
568.764	5.33
569.105	5.31
569.447	5.32
569.788	5.17
570.129	5.39
570.47	5.31
570.811	5.3
571.151	5.42
571.492	5.37
571.833	5.36
572.174	5.35
572.514	5.24
572.855	5.39
573.195	5.34
573.536	5.31
573.876	5.45
574.217	5.48
574.557	5.55
574.898	5.32
575.238	5.44
575.578	5.72
575.918	5.49
576.258	5.5
576.598	5.47
576.938	5.74
577.278	5.68
577.618	5.59
577.958	5.58
578.298	5.66
578.638	5.6
578.977	5.92
579.317	5.91
579.657	5.7
579.996	5.76
580.336	5.69
580.675	5.73
581.014	5.83
581.354	6.04
581.693	5.81
582.032	5.75
582.372	5.96
582.711	6.01
583.05	6.11
583.389	6.01
583.728	6.17
584.067	6.22
584.406	6.14
584.745	6.22
585.083	6.28
585.422	6.19
585.761	6.35
586.1	6.24
586.438	6.13
586.777	6.2
587.115	6.27
587.454	6.36
587.792	6.21
588.13	6.49
588.469	6.29
588.807	6.47
589.145	6.5
589.483	6.27
589.821	6.48
590.159	6.49
590.497	6.09
590.835	6.37
591.173	6.43
591.511	6.49
591.849	6.57
592.187	6.41
592.524	6.34
592.862	6.66
593.2	6.53
593.537	6.62
593.875	6.54
594.212	6.52
594.55	6.59
594.887	6.67
595.224	6.7
595.561	6.7
595.899	6.73
596.236	6.79
596.573	6.81
596.91	6.79
597.247	6.68
597.584	6.8
597.921	6.82
598.258	6.87
598.594	6.65
598.931	6.78
599.268	6.81
599.604	7.16
599.941	7.12
600.277	7.02
600.614	7.11
600.95	7.19
601.287	7.14
601.623	7.3
601.959	6.96
602.296	7.19
602.632	7.25
602.968	7.09
603.304	7.11
603.64	7.23
603.976	7.34
604.312	7.47
604.648	7.39
604.984	7.29
605.319	7.4
605.655	7.19
605.991	7.36
606.326	7.3
606.662	7.27
606.998	7.49
607.333	7.32
607.668	7.45
608.004	7.57
608.339	7.29
608.674	7.55
609.01	7.69
609.345	7.65
609.68	7.41
610.015	7.62
610.35	7.76
610.685	7.66
611.02	7.89
611.355	7.72
611.689	7.42
612.024	7.85
612.359	7.91
612.694	7.99
613.028	8.07
613.363	7.94
613.697	8.04
614.032	7.91
614.366	7.8
614.7	8.34
615.035	7.88
615.369	8.19
615.703	8.59
616.037	8.2
616.371	7.99
616.705	8.08
617.039	8.51
617.373	8.21
617.707	8.25
618.041	8.19
618.375	7.88
618.709	8.33
619.042	8.3
619.376	7.95
619.71	8.37
620.043	8.25
620.377	8.42
620.71	8.54
621.043	8.25
621.377	8.37
621.71	8.78
622.043	8.53
622.376	8.3
622.709	8.81
623.043	8.37
623.376	8.58
623.709	8.82
624.041	8.66
624.374	8.67
624.707	8.59
625.04	8.79
625.373	8.78
625.705	8.85
626.038	9.07
626.37	8.95
626.703	8.49
627.035	8.74
627.368	9.08
627.7	9.1
628.032	8.99
628.365	8.75
628.697	8.85
629.029	9.06
629.361	8.88
629.693	9.39
630.025	9.22
630.357	8.65
630.689	9.46
631.021	9.19
631.353	9.27
631.684	9.26
632.016	8.85
632.348	9.36
632.679	9.23
633.011	9.43
633.342	9.11
633.674	9.27
634.005	9.19
634.336	9.44
634.668	9.24
634.999	9.55
635.33	9.51
635.661	9.63
635.992	9.43
636.323	9.41
636.654	9.77
636.985	9.48
637.316	9.73
637.647	9.7
637.977	9.48
638.308	9.18
638.639	9.65
638.969	9.77
639.3	9.83
639.63	9.8
639.961	9.74
640.291	10.13
640.622	10.08
640.952	9.6
641.282	9.77
641.612	9.8
641.943	10.12
642.273	10.05
642.603	10.41
642.933	10
643.263	10.45
643.592	10.43
643.922	10.04
644.252	10.16
644.582	10.04
644.911	9.86
645.241	10.18
645.571	9.98
645.9	10.39
646.23	10.11
646.559	9.99
646.888	10.14
647.218	10.59
647.547	10.4
647.876	10.8
648.205	10.34
648.534	9.94
648.863	10.73
649.192	10.33
649.521	10.21
649.85	10.84
650.179	10.47
650.508	10.48
650.837	11
651.165	11.06
651.494	10.77
651.822	11.1
652.151	10.93
652.479	11.53
652.808	10.67
653.136	10.69
653.465	10.82
653.793	11.17
654.121	10.69
654.449	11.02
654.777	11.16
655.105	11.39
655.433	11.33
655.761	10.31
656.089	11.33
656.417	11.16
656.745	11.64
657.073	11.25
657.4	11.24
657.728	10.96
658.056	10.93
658.383	11.26
658.711	10.92
659.038	11.42
659.365	11.32
659.693	11.81
660.02	11.33
660.347	11.4
660.674	11.09
661.001	10.99
661.329	11.22
661.656	11.57
661.982	11.67
662.309	11.42
662.636	11.56
662.963	11.81
663.29	11.57
663.616	11.67
663.943	11.99
664.27	11.45
664.596	11.72
664.923	12.03
665.249	11.64
665.576	11.73
665.902	11.75
666.228	11.59
666.554	11.27
666.881	12.72
667.207	12.09
667.533	12.2
667.859	11.63
668.185	12.09
668.511	11.99
668.837	11.5
669.162	12.1
669.488	12.06
669.814	12.85
670.139	12.62
670.465	12.66
670.791	12.43
671.116	12.03
671.442	12.31
671.767	12.23
672.092	12.33
672.418	12.29
672.743	12.38
673.068	12.03
673.393	12.7
673.718	12.34
674.043	12.22
674.368	12.78
674.693	12.74
675.018	12.3
675.343	12.48
675.667	12.36
675.992	12.3
676.317	13.3
676.641	12.75
676.966	12.73
677.29	12.39
677.615	12.28
677.939	12.91
678.264	12.52
678.588	12.92
678.912	13.13
679.236	12.88
679.56	13.33
679.885	13.1
680.209	12.42
680.532	13.43
680.856	13.02
681.18	12.64
681.504	12.28
681.828	12.7
682.152	13.07
682.475	13.15
682.799	13.09
683.122	12.69
683.446	13.06
683.769	13.57
684.093	14.01
684.416	12.86
684.739	13.51
685.062	13.37
685.386	12.95
685.709	13.62
686.032	13.38
686.355	13.34
686.678	12.95
687.001	12.27
687.324	13.21
687.646	13.31
687.969	13.45
688.292	13.9
688.614	14.76
688.937	13.29
689.26	12.67
689.582	13.9
689.904	12.9
690.227	13.61
690.549	14.68
690.871	13.49
691.194	14.53
691.516	13.9
691.838	14.28
692.16	14.27
692.482	13.87
692.804	13.39
693.126	13.69
693.448	14.09
693.769	14.37
694.091	14.56
694.413	14.22
694.735	14.31
695.056	14.71
695.378	14.67
695.699	15.28
696.021	14.75
696.342	13.61
696.663	14.62
696.984	13.84
697.306	14.58
697.627	14.59
697.948	14.49
698.269	14.21
698.59	14.58
698.911	13.87
699.232	15.23
699.553	14.19
699.873	14.66
700.194	14.52
700.515	14.7
700.835	15.03
701.156	14.83
701.477	14.39
701.797	14.74
702.117	14.67
702.438	14.58
702.758	14.74
703.078	14.78
703.398	15.16
703.719	14.95
704.039	14.98
704.359	14.82
704.679	14.62
704.999	14.88
705.319	15.31
705.638	15.35
705.958	15.04
706.278	15.01
706.597	14.82
706.917	15.18
707.237	15.39
707.556	15.57
707.876	14.77
708.195	14.98
708.514	14.62
708.834	15.51
709.153	15.72
709.472	15.73
709.791	15.45
710.11	14.72
710.429	15.03
710.748	15.84
711.067	15.4
711.386	16.71
711.705	15.78
712.023	15.34
712.342	15.72
712.661	15.38
712.979	15.45
713.298	16.07
713.616	16.81
713.935	16.3
714.253	15.98
714.572	15.55
714.89	15.45
715.208	16.31
715.526	16.58
715.844	16.08
716.162	15.63
716.48	15.51
716.798	17.21
717.116	16.77
717.434	16.71
717.752	15.92
718.069	15.44
718.387	16.49
718.705	15.7
719.022	16.57
719.34	16
719.657	16.27
719.975	16.26
720.292	15.6
720.609	16.44
720.927	16.14
721.244	17.73
721.561	16.25
721.878	15.99
722.195	15.73
722.512	15.99
722.829	16.72
723.146	15.83
723.463	16.58
723.779	16.44
724.096	15.92
724.413	15.4
724.729	16.84
725.046	16.2
725.362	16.04
725.679	16.44
725.995	17.54
726.311	17.19
726.628	17.45
726.944	18.41
727.26	15.71
727.576	17.47
727.892	16.7
728.208	17.71
728.524	17.62
728.84	16.13
729.156	17.19
729.472	18.14
729.787	18.16
730.103	17.66
730.419	18.18
730.734	16.33
731.05	16.78
731.365	17.11
731.681	16.83
731.996	16.6
732.311	17.24
732.626	17.97
732.942	18.11
733.257	18.01
733.572	17.75
733.887	17.24
734.202	17.41
734.517	16.67
734.832	17.72
735.146	16.76
735.461	17.18
735.776	17.37
736.091	17.49
736.405	17.78
736.72	18.44
737.034	17.71
737.349	17.58
737.663	17.05
737.977	18.69
738.292	18.46
738.606	18.81
738.92	18.29
739.234	18.21
739.548	18.29
739.862	18.44
740.176	17.48
740.49	18.91
740.804	19.38
741.117	17.25
741.431	16.91
741.745	17.04
742.058	18.82
742.372	17.52
742.685	17.09
742.999	18.31
743.312	17.03
743.626	17.24
743.939	18.5
744.252	19
744.565	19.3
744.878	18.23
745.191	16.9
745.505	18.14
745.817	18.41
746.13	19.66
746.443	18.08
746.756	18.66
747.069	18.03
747.381	18.25
747.694	16.71
748.007	20.69
748.319	17.68
748.632	17.55
748.944	18.53
749.256	20.31
749.569	18.93
749.881	17.03
750.193	18.12
750.505	18.78
750.817	19.48
751.129	19.18
751.441	17.49
751.753	18.93
752.065	20.05
752.377	17.82
752.689	18.74
753	17.96
753.312	18.67
753.624	19.61
753.935	18.99
754.247	19.44
754.558	20.76
754.869	18.95
755.181	18.73
755.492	19.94
755.803	18.82
756.114	19.21
756.425	19.21
756.736	19.77
757.047	21
757.358	19.86
757.669	21.72
757.98	20.16
758.291	20.16
758.601	19.33
758.912	18.94
759.223	19.23
759.533	20.81
759.844	19.39
760.154	21.69
760.464	19.63
760.775	21.27
761.085	19.29
761.395	20.72
761.705	20.2
762.016	19.64
762.326	19.96
762.636	21.09
762.945	19.41
763.255	21.02
763.565	19.36
763.875	19.7
764.185	19.02
764.494	19.47
764.804	18.4
765.113	20.49
765.423	20.25
765.732	20.08
766.042	20.25
766.351	19.11
766.66	19.94
766.97	20.64
767.279	21.42
767.588	21.75
767.897	20.29
768.206	18.89
768.515	19.46
768.824	20.25
769.133	20.24
769.441	20.97
769.75	18.64
770.059	20.44
770.367	20.55
770.676	19.56
770.984	20.4
771.293	18.11
771.601	18.14
771.91	18.98
772.218	19.21
772.526	20.9
772.834	20.38
773.142	20.09
773.45	17.9
773.758	21.27
774.066	18.44
774.374	15.98
774.682	20.46
774.99	18.62
775.298	18.71
775.605	20.11
775.913	18.35
776.22	20.79
776.528	20.91
776.835	21.1
777.143	20.52
777.45	20.21
777.757	19.24
778.065	19.22
778.372	18.65
778.679	23.16
778.986	20.39
779.293	19.07
779.6	17.04
779.907	18.55
780.214	22.5
780.52	20.02
780.827	20.32
781.134	21.23
781.44	20.92
781.747	24.02
782.053	22.41
782.36	22.25
782.666	19.07
782.973	20.17
783.279	18.35
783.585	21.39
783.891	20.33
784.197	22.32
784.503	21.89
784.809	22.21
785.115	18.66
785.421	22.78
785.727	22.28
786.033	22.2
786.339	21.52
786.644	20.04
786.95	22.42
787.255	20.57
787.561	20.29
787.866	22.52
788.172	24.17
788.477	20.29
788.782	14.98
789.088	23.06
789.393	22.62
789.698	18.28
790.003	20.63
790.308	18.09
790.613	22.98
790.918	20.79
791.223	21.1
791.527	23.02
791.832	20.56
792.137	22.72
792.441	24.37
792.746	19.54
793.05	20.25
793.355	24.27
793.659	23.11
793.963	20.04
794.268	21.82
794.572	22.56
794.876	20.47
795.18	22
795.484	19.38
795.788	19.84
796.092	22.38
796.396	19.12
796.7	20.37
797.004	23.55
797.307	22.26
797.611	23.62
797.915	21.61
798.218	23.09
798.522	17.81
798.825	21.45
799.128	23.6
799.432	22.92
799.735	24.76
800.038	18.46
800.341	18.32
800.644	20.47
800.947	24.73
801.25	18.82
801.553	25.09
801.856	22.24
802.159	20.71
802.462	20.79
802.764	19.92
803.067	21.47
803.37	21.08
803.672	21.04
803.975	21.31
804.277	25.05
804.579	19.27
804.882	22.97
805.184	19.15
805.486	25.13
805.788	22.22
806.09	21.57
806.392	23.31
806.694	27.24
806.996	25.97
807.298	25.61
807.6	20.51
807.902	23.46
808.203	20.92
808.505	19.98
808.807	27.18
809.108	25.33
809.409	26.34
809.711	19.84
810.012	18.71
810.313	18.77
810.615	18.38
810.916	20.07
811.217	24.59
811.518	26.09
811.819	14.36
812.12	26.47
812.421	18.13
812.722	17.38
813.023	27.94
813.323	30.49
813.624	24.98
813.925	27.52
814.225	25.87
814.526	27.41
814.826	24.31
815.126	26.76
815.427	21.36
815.727	24.2
816.027	22.42
816.327	15.02
816.627	26.05
816.927	24.25
817.227	21.96
817.527	22.22
817.827	20.3
818.127	27.18
818.427	19.27
818.727	19.56
819.026	25.45
819.326	27.27
819.625	21.33
819.925	27.22
820.224	18.56
820.524	15.54
820.823	18.57
821.122	17.45
821.421	26.42
821.72	22.66
822.019	20.54
822.318	22.35
822.617	24.77
822.916	21.38
823.215	23.55
823.514	24.98
823.813	26.29
824.111	24.91
824.41	24.13
824.709	25.46
825.007	25.12
825.306	25.76
825.604	25.87
825.902	25.61
826.201	25.23
826.499	25.45
826.797	26.29
827.095	22.86
827.393	24.25
827.691	26.33
827.989	25.51
828.287	24.28
828.585	22.61
828.882	26.05
829.18	24.4
829.478	23.97
829.775	26.11
830.073	26.52
830.37	23.91
830.668	23.68
830.965	24.62
831.263	25.51
831.56	26.48
831.857	25.89
832.154	22.8
832.451	24.25
832.748	25.68
833.045	26.48
833.342	16.81
833.639	23.57
833.936	22.95
834.232	23.33
834.529	24.54
834.826	22.24
835.122	26.41
835.419	23.39
835.715	23.76
836.012	25.55
836.308	28.03
836.604	25.83
836.901	31.14
837.197	26.08
837.493	26.72
837.789	26.79
838.085	22.22
838.381	26.23
838.677	24.89
838.972	24.34
839.268	22.96
839.564	27.18
839.86	20.65
840.155	20.71
840.451	21.49
840.746	20.7
841.042	24.32
841.337	24.73
841.632	35.42
841.928	28.26
842.223	20.7
842.518	28.2
842.813	22.49
843.108	26.04
843.403	27.24
843.698	29.28
843.993	24.61
844.287	27.34
844.582	28.34
844.877	16.48
845.171	24.39
845.466	11.68
845.761	27.98
846.055	14.16
846.349	4.91
846.644	19.26
846.938	18.37
847.232	18.36
847.526	18.81
847.82	16.3
848.114	27.9
848.408	26.83
848.702	24.83
848.996	23.6
849.29	25.44
849.584	22.07
849.877	18.32
850.171	23.74
850.465	14.16
850.758	16.81
851.052	19.6
851.345	28.19
851.638	38.76
851.932	28.18
852.225	8.7
852.518	7.54
852.811	24.63
853.104	19.97
853.397	26.88
853.69	36.15
853.983	13.56
854.276	36.85
854.569	14.1
854.861	21.45
855.154	11.98
855.447	16.07
855.739	15.51
856.032	-5.35
856.324	20.21
856.616	28.97
856.909	36.71
857.201	42.01
857.493	33.87
857.785	27.92
858.077	0.16
858.369	28.8
858.661	27.53
858.953	-7.52
859.245	22.7
859.537	31.54
859.829	33.06
860.12	19.71
860.412	14.53
860.703	23.84
860.995	-8.07
861.286	29.26
861.578	20.68
861.869	20.23
862.16	11.68
862.452	2.17
862.743	22.43
863.034	15.66
863.325	20.85
863.616	28.46
863.907	27.84
864.198	33.43
864.488	-0.31
864.779	8.38
865.07	28.14
865.36	51.85
865.651	18.59
865.941	33.76
866.232	38.42
866.522	30.57
866.813	27.71
867.103	18.02
867.393	34.53
867.683	53.84
867.973	2.56
868.263	8.24
868.553	30.86
868.843	5.06
869.133	14.93
869.423	30.63
869.713	-2.74
870.002	-9.61
870.292	18.02
870.582	17.64
870.871	8.92
871.161	14.39
871.45	14.96
871.739	-19.19
872.029	4.05
872.318	27.96
872.607	26.53
872.896	21.06
873.185	37.24
873.474	18.64
873.763	19.13
874.052	4.79
874.341	-45.08
874.63	14.72
874.918	11.3
875.207	21.54
875.496	25.45
875.784	13.91
876.073	24.1
876.361	19.26
876.649	30.25
876.938	9.01
877.226	17.56
877.514	12.44
877.802	72.25
878.09	12.25
878.378	10.88
878.666	-3.4
878.954	11.69
879.242	42.48
879.53	4.04
879.817	27.92
880.105	-13.26
880.392	28.07
880.68	12.7
880.967	3.5
881.255	6.9
881.542	9.45
881.83	26.7
882.117	9.4
882.404	18.07
882.691	8.25
882.978	-3.36
883.265	35.57
883.552	19.44
883.839	26.36
884.126	16.31
884.413	33.32
884.699	29.07
884.986	31.1
885.273	23.98
885.559	23.98
885.846	23.98
