Data from 0061_chest_Reflection__0__178.txt Node

Date: Fri Dec 16 15:25:19 CST 2022
User: ToomeyLab
Spectrometer: FLMS14357
Trigger mode: 0
Integration Time (sec): 1.000000E-2
Scans to average: 100
Electric dark correction enabled: true
Nonlinearity correction enabled: false
Boxcar width: 0
XAxis mode: Wavelengths
Number of Pixels in Spectrum: 2048
>>>>>Begin Spectral Data<<<<<
189.047	137.45
189.435	137.45
189.823	137.45
190.211	50.47
190.599	-1943.48
190.987	324.18
191.375	-211.56
191.763	23.46
192.151	-2176.19
192.538	153.39
192.926	-203.31
193.314	73.33
193.702	42.36
194.089	-3554.55
194.477	42.34
194.864	-59.68
195.252	-135.4
195.639	68.81
196.027	180.57
196.414	-41.52
196.801	-73.22
197.189	88.91
197.576	51.6
197.963	-155.38
198.351	0.2
198.738	-40.67
199.125	14.58
199.512	-30.53
199.899	-10.7
200.286	-22.54
200.673	3.9
201.06	48.75
201.447	43.34
201.833	10.28
202.22	47.24
202.607	4.97
202.994	11.22
203.38	-6.4
203.767	-11.53
204.154	-55.37
204.54	6.6
204.927	22.72
205.313	3.24
205.699	-3.68
206.086	-14.92
206.472	-7.56
206.858	3.61
207.245	-15.38
207.631	-40.41
208.017	2.04
208.403	14.27
208.789	-7.11
209.175	11.96
209.561	22.02
209.947	-9.05
210.333	-50.39
210.719	-17.84
211.105	-56.04
211.491	8.1
211.876	-10.5
212.262	-22.99
212.648	-54.47
213.034	-4.35
213.419	20.72
213.805	-22.64
214.19	5.14
214.576	-49.63
214.961	-13.97
215.346	-77.6
215.732	-24.94
216.117	-40.46
216.502	-4.29
216.888	-20.34
217.273	16.87
217.658	-10.73
218.043	-16.53
218.428	15.21
218.813	-25.93
219.198	-48.3
219.583	-7.62
219.968	-59.42
220.353	12.6
220.738	-14.87
221.122	-12.8
221.507	-3.15
221.892	-2.17
222.276	13.03
222.661	-1.21
223.046	-0.62
223.43	-0.85
223.815	4.17
224.199	-0.05
224.583	7.4
224.968	5.24
225.352	-14.79
225.736	-2.51
226.121	-7.11
226.505	3.84
226.889	6.68
227.273	4.75
227.657	1.58
228.041	-2.2
228.425	4.36
228.809	-1.87
229.193	-0.4
229.577	-0.46
229.961	0.65
230.344	1.93
230.728	0.86
231.112	0.47
231.495	-0.24
231.879	1
232.263	-0.53
232.646	-0.55
233.03	-1.85
233.413	-1.15
233.797	2.4
234.18	-1.62
234.563	-0.04
234.946	0.87
235.33	0.86
235.713	1.32
236.096	-0.23
236.479	1.6
236.862	1.73
237.245	1.49
237.628	1.17
238.011	1.23
238.394	0.86
238.777	1.52
239.16	-1.22
239.543	-0.5
239.925	-0.39
240.308	0.64
240.691	-0.19
241.073	1.44
241.456	0.3
241.838	0.97
242.221	0.84
242.603	0.81
242.986	1.56
243.368	0.92
243.75	1.19
244.133	0.97
244.515	1.3
244.897	1.06
245.279	0.85
245.661	1.7
246.043	1.07
246.425	1.14
246.807	1.33
247.189	1.33
247.571	1.26
247.953	1.37
248.335	1.32
248.717	1.23
249.098	1.1
249.48	0.94
249.862	1.03
250.243	1.32
250.625	1.08
251.006	1.32
251.388	2.17
251.769	1.37
252.151	0.69
252.532	1.09
252.913	1.29
253.295	1.03
253.676	1.36
254.057	0.95
254.438	0.47
254.819	1.55
255.2	1.35
255.581	0.41
255.962	1.69
256.343	1.74
256.724	0.04
257.105	-0.09
257.486	1.24
257.867	-1.08
258.247	0.8
258.628	0.54
259.009	0.77
259.389	0.72
259.77	0.84
260.15	1.67
260.531	1.32
260.911	1.17
261.292	1.09
261.672	1.12
262.052	1.24
262.432	0.64
262.813	1.07
263.193	1.05
263.573	1.23
263.953	1.11
264.333	1.02
264.713	0.65
265.093	0.58
265.473	2.01
265.853	1.17
266.233	0.37
266.612	1.63
266.992	0.48
267.372	1.93
267.752	0.74
268.131	1.21
268.511	1.44
268.89	1.76
269.27	1.53
269.649	1.23
270.029	1.1
270.408	1.35
270.787	0.79
271.167	0.93
271.546	0.03
271.925	0.99
272.304	1.3
272.683	1.18
273.062	1.11
273.441	0.94
273.82	1.14
274.199	1.25
274.578	0.67
274.957	1.17
275.336	0.64
275.715	1.65
276.093	1.81
276.472	1.52
276.851	1.08
277.229	1.06
277.608	0.69
277.986	1.12
278.365	0.55
278.743	1.41
279.122	0.33
279.5	0.88
279.878	0.47
280.257	1.15
280.635	0.78
281.013	1.25
281.391	0.73
281.769	1.05
282.147	1.42
282.525	1.31
282.903	1.28
283.281	0.94
283.659	1.44
284.037	1.12
284.415	1.3
284.792	1.13
285.17	1.15
285.548	0.94
285.925	0.94
286.303	0.97
286.68	1.2
287.058	1.13
287.435	0.84
287.813	1.08
288.19	1.27
288.567	1.03
288.945	0.8
289.322	0.79
289.699	0.87
290.076	1.5
290.453	1.05
290.83	1.17
291.207	1.04
291.584	0.95
291.961	1.17
292.338	1.19
292.715	1.3
293.092	0.92
293.469	1.28
293.845	0.95
294.222	0.7
294.599	1.35
294.975	1.63
295.352	0.82
295.728	1.7
296.105	1.27
296.481	1.74
296.858	1.34
297.234	1.65
297.61	1.31
297.986	1.15
298.363	1.09
298.739	1.34
299.115	1
299.491	1.1
299.867	1
300.243	1.36
300.619	0.99
300.995	1.45
301.371	1.42
301.746	1.12
302.122	1.33
302.498	1.26
302.874	1.35
303.249	1.74
303.625	1.12
304	0.91
304.376	1.25
304.751	1.04
305.127	1.25
305.502	1.5
305.878	1.18
306.253	0.92
306.628	1.51
307.003	1.24
307.378	1.27
307.754	1.54
308.129	1.32
308.504	1.05
308.879	1.18
309.254	1.61
309.629	1.29
310.003	1.68
310.378	1.47
310.753	1.52
311.128	1.55
311.502	1.18
311.877	1.32
312.252	1.31
312.626	1.01
313.001	1.05
313.375	1.44
313.75	1.28
314.124	1.65
314.498	1.13
314.873	1.53
315.247	0.94
315.621	1.66
315.995	1.06
316.369	1.25
316.743	1.91
317.117	1.12
317.491	1.08
317.865	0.67
318.239	1.28
318.613	1.73
318.987	1.33
319.361	1.48
319.734	1.64
320.108	1.3
320.482	1.57
320.855	1.55
321.229	1.37
321.602	1.25
321.976	1.63
322.349	0.71
322.723	1.3
323.096	0.98
323.469	0.86
323.843	1.58
324.216	1.06
324.589	2.06
324.962	1.8
325.335	1.51
325.708	1.44
326.081	2
326.454	1.7
326.827	1.9
327.2	1.76
327.573	1.42
327.945	1.28
328.318	1.69
328.691	1.83
329.063	1.64
329.436	1.36
329.809	1.16
330.181	1.17
330.553	1.76
330.926	1.88
331.298	1.12
331.671	1.57
332.043	1.37
332.415	1.63
332.787	2.21
333.159	1.6
333.532	1.76
333.904	1.67
334.276	1.52
334.648	1.65
335.02	1.13
335.391	1.71
335.763	1.28
336.135	1.45
336.507	1.68
336.879	1.51
337.25	1.81
337.622	1.53
337.993	1.79
338.365	1.75
338.736	1.42
339.108	1.33
339.479	1.82
339.851	1.5
340.222	1.48
340.593	1.55
340.964	1.44
341.336	1.17
341.707	1.56
342.078	1.65
342.449	1.69
342.82	1.4
343.191	1.46
343.562	1.7
343.933	1.64
344.303	1.53
344.674	1.64
345.045	1.79
345.416	1.22
345.786	1.19
346.157	1.47
346.527	1.15
346.898	1.17
347.268	1.14
347.639	1.4
348.009	1.92
348.38	1.53
348.75	1.48
349.12	1.55
349.49	1.52
349.861	2.11
350.231	2.01
350.601	1.57
350.971	1.55
351.341	1.59
351.711	1.55
352.081	1.54
352.45	1.75
352.82	1.29
353.19	1.45
353.56	1.33
353.929	1.57
354.299	1.38
354.669	1.5
355.038	1.58
355.408	2.03
355.777	1.11
356.147	1.69
356.516	2.07
356.885	1.54
357.254	1.93
357.624	1.55
357.993	1.41
358.362	1.68
358.731	1.62
359.1	2.01
359.469	1.75
359.838	1.31
360.207	1.52
360.576	1.67
360.945	1.45
361.314	1.74
361.682	1.48
362.051	1.51
362.42	1.97
362.788	1.68
363.157	1.36
363.525	1.57
363.894	1.3
364.262	1.72
364.631	2.2
364.999	1.56
365.367	2.04
365.735	1.42
366.104	1.63
366.472	1.74
366.84	1.7
367.208	1.46
367.576	1.65
367.944	1.97
368.312	1.3
368.68	1.66
369.048	1.99
369.416	1.85
369.783	1.77
370.151	1.81
370.519	1.53
370.886	1.73
371.254	1.84
371.621	1.61
371.989	1.77
372.356	1.69
372.724	1.49
373.091	1.79
373.458	1.75
373.826	1.71
374.193	2.17
374.56	1.8
374.927	1.62
375.294	1.86
375.661	1.59
376.028	1.86
376.395	1.62
376.762	2.11
377.129	1.91
377.496	1.59
377.863	1.85
378.229	1.58
378.596	1.74
378.963	1.83
379.329	1.59
379.696	1.73
380.062	2.31
380.429	1.93
380.795	1.5
381.161	1.69
381.528	1.39
381.894	1.83
382.26	1.23
382.626	1.7
382.993	1.61
383.359	1.72
383.725	1.67
384.091	1.89
384.457	1.88
384.823	1.88
385.188	2.15
385.554	1.72
385.92	1.85
386.286	1.85
386.651	1.75
387.017	1.7
387.383	1.74
387.748	1.59
388.114	1.71
388.479	1.92
388.845	1.89
389.21	1.8
389.575	1.65
389.94	1.79
390.306	1.91
390.671	1.62
391.036	1.91
391.401	1.84
391.766	1.92
392.131	1.83
392.496	1.73
392.861	1.79
393.226	1.79
393.591	1.93
393.956	1.88
394.32	1.88
394.685	1.87
395.05	1.79
395.414	1.74
395.779	1.81
396.143	2.02
396.508	1.98
396.872	1.78
397.236	1.51
397.601	1.93
397.965	1.67
398.329	1.95
398.694	1.5
399.058	1.92
399.422	1.85
399.786	1.78
400.15	2.03
400.514	1.7
400.878	2
401.242	2.15
401.605	1.79
401.969	1.99
402.333	1.89
402.697	1.95
403.06	1.94
403.424	1.73
403.787	2.06
404.151	1.87
404.514	1.93
404.878	1.88
405.241	2.09
405.604	1.91
405.968	1.86
406.331	1.93
406.694	1.94
407.057	2.02
407.42	2.03
407.783	1.71
408.146	1.78
408.509	1.86
408.872	1.93
409.235	2.01
409.598	2.31
409.961	1.99
410.323	1.87
410.686	1.92
411.049	1.76
411.411	1.82
411.774	1.88
412.136	2.06
412.499	1.8
412.861	1.78
413.223	2.06
413.586	1.92
413.948	2.02
414.31	2.26
414.672	1.85
415.035	2.11
415.397	2.13
415.759	1.96
416.121	1.94
416.483	2.17
416.845	1.96
417.206	1.97
417.568	2.03
417.93	1.93
418.292	2
418.653	1.91
419.015	2.05
419.377	1.98
419.738	1.86
420.1	2.05
420.461	1.93
420.822	2.1
421.184	1.93
421.545	1.91
421.906	1.91
422.267	1.9
422.629	1.99
422.99	2
423.351	2.04
423.712	1.98
424.073	2.12
424.434	1.96
424.795	1.83
425.155	1.89
425.516	1.95
425.877	2.05
426.238	1.93
426.598	2.07
426.959	1.95
427.32	2.06
427.68	2.07
428.041	2.13
428.401	1.94
428.761	1.98
429.122	2.02
429.482	2.04
429.842	2.01
430.202	2.02
430.563	2.19
430.923	2.01
431.283	2.07
431.643	2.19
432.003	2.06
432.363	2.19
432.722	2.16
433.082	2.08
433.442	2.06
433.802	2.1
434.161	2.08
434.521	2.01
434.881	2.08
435.24	1.98
435.6	2.07
435.959	1.99
436.319	1.99
436.678	2.08
437.037	2.21
437.396	2.1
437.756	2.02
438.115	2.07
438.474	2.04
438.833	2.2
439.192	2.17
439.551	2.16
439.91	2.16
440.269	2.39
440.628	2.04
440.987	1.96
441.345	2.04
441.704	2.21
442.063	2.08
442.421	2.14
442.78	2.17
443.138	2.11
443.497	1.99
443.855	2.08
444.214	2.27
444.572	2.06
444.93	2.15
445.288	2.12
445.647	2.21
446.005	2.04
446.363	2.17
446.721	2.02
447.079	2.05
447.437	2.04
447.795	2.08
448.153	2.13
448.51	2.18
448.868	2.18
449.226	2.15
449.584	2.18
449.941	2.19
450.299	2.11
450.656	2.26
451.014	2.24
451.371	2.22
451.729	2.35
452.086	2.12
452.443	2.1
452.801	2.29
453.158	2.25
453.515	2.14
453.872	2.34
454.229	2.2
454.586	2.21
454.943	2.08
455.3	2.23
455.657	2.21
456.014	2.19
456.371	2.28
456.727	2.19
457.084	2.21
457.441	2.24
457.797	2.41
458.154	2.19
458.51	2.11
458.867	2.13
459.223	2.28
459.58	2.3
459.936	2.27
460.292	2.3
460.648	2.14
461.005	2.21
461.361	2.19
461.717	2.18
462.073	2.3
462.429	2.31
462.785	2.34
463.141	2.3
463.496	2.23
463.852	2.45
464.208	2.39
464.564	2.06
464.919	2.25
465.275	2.26
465.631	2.26
465.986	2.15
466.342	2.28
466.697	2.33
467.052	2.43
467.408	2.3
467.763	2.09
468.118	2.26
468.473	2.41
468.829	2.26
469.184	2.42
469.539	2.24
469.894	2.29
470.249	2.33
470.603	2.41
470.958	2.53
471.313	2.24
471.668	2.4
472.023	2.56
472.377	2.28
472.732	2.21
473.086	2.14
473.441	2.38
473.795	2.6
474.15	2.3
474.504	2.18
474.859	2.39
475.213	2.28
475.567	2.22
475.921	2.41
476.275	2.37
476.63	2.41
476.984	2.36
477.338	2.56
477.692	2.34
478.045	2.32
478.399	2.45
478.753	2.39
479.107	2.34
479.461	2.37
479.814	2.6
480.168	2.43
480.521	2.32
480.875	2.46
481.228	2.47
481.582	2.28
481.935	2.37
482.289	2.33
482.642	2.28
482.995	2.37
483.348	2.27
483.701	2.35
484.055	2.29
484.408	2.36
484.761	2.18
485.114	2.16
485.466	2.19
485.819	2.25
486.172	2.32
486.525	2.4
486.878	2.38
487.23	2.39
487.583	2.35
487.936	2.42
488.288	2.33
488.641	2.34
488.993	2.27
489.345	2.3
489.698	2.38
490.05	2.35
490.402	2.46
490.754	2.49
491.107	2.44
491.459	2.46
491.811	2.42
492.163	2.53
492.515	2.46
492.866	2.24
493.218	2.34
493.57	2.39
493.922	2.41
494.274	2.44
494.625	2.49
494.977	2.48
495.328	2.52
495.68	2.71
496.031	2.51
496.383	2.58
496.734	2.61
497.086	2.41
497.437	2.51
497.788	2.51
498.139	2.59
498.49	2.38
498.842	2.41
499.193	2.58
499.544	2.72
499.894	2.49
500.245	2.48
500.596	2.57
500.947	2.58
501.298	2.62
501.648	2.63
501.999	2.61
502.35	2.73
502.7	2.67
503.051	2.8
503.401	2.77
503.752	2.59
504.102	2.66
504.452	2.65
504.803	2.56
505.153	2.69
505.503	2.58
505.853	2.59
506.203	2.7
506.553	2.66
506.903	2.6
507.253	2.59
507.603	2.62
507.953	2.76
508.303	2.66
508.652	2.64
509.002	2.77
509.352	2.61
509.701	2.64
510.051	2.78
510.4	2.72
510.75	2.73
511.099	2.71
511.449	2.73
511.798	2.83
512.147	2.79
512.496	2.85
512.846	2.75
513.195	2.73
513.544	2.71
513.893	2.63
514.242	2.79
514.591	2.79
514.939	2.7
515.288	2.96
515.637	2.86
515.986	2.79
516.334	2.77
516.683	2.76
517.032	2.7
517.38	2.87
517.729	2.8
518.077	2.79
518.426	2.75
518.774	2.79
519.122	2.71
519.47	2.77
519.819	2.76
520.167	2.8
520.515	2.74
520.863	2.75
521.211	2.83
521.559	2.76
521.907	2.86
522.255	2.9
522.602	2.9
522.95	2.96
523.298	2.91
523.645	2.86
523.993	2.96
524.341	2.96
524.688	2.84
525.036	3.1
525.383	3.04
525.73	3.1
526.078	2.95
526.425	2.82
526.772	2.79
527.119	2.79
527.466	2.82
527.814	2.9
528.161	2.95
528.508	3.05
528.854	2.82
529.201	2.91
529.548	2.77
529.895	2.77
530.242	2.78
530.588	2.87
530.935	2.94
531.282	3.01
531.628	3.01
531.975	3.05
532.321	3.01
532.667	3.03
533.014	3.09
533.36	3.07
533.706	3.05
534.052	2.95
534.399	2.92
534.745	2.92
535.091	2.95
535.437	3.03
535.783	3.17
536.129	3.08
536.474	3.13
536.82	3.12
537.166	3.18
537.512	3.09
537.857	3.12
538.203	3.08
538.549	3.25
538.894	3.17
539.239	3.24
539.585	3.23
539.93	3.27
540.276	3.21
540.621	3.14
540.966	3.29
541.311	3.24
541.656	3.16
542.001	3.16
542.346	3.15
542.691	3.06
543.036	3.08
543.381	3.24
543.726	3.27
544.071	3.27
544.415	3.28
544.76	3.19
545.105	3.36
545.449	3.26
545.794	3.36
546.138	3.48
546.483	3.39
546.827	3.44
547.171	3.45
547.516	3.59
547.86	3.41
548.204	3.38
548.548	3.56
548.892	3.49
549.236	3.55
549.58	3.48
549.924	3.61
550.268	3.58
550.612	3.72
550.956	3.38
551.3	3.66
551.643	3.67
551.987	3.65
552.33	3.62
552.674	3.73
553.017	3.67
553.361	3.71
553.704	3.51
554.048	3.67
554.391	3.6
554.734	3.81
555.077	3.69
555.42	3.67
555.764	3.8
556.107	3.65
556.45	3.71
556.793	3.89
557.135	3.98
557.478	3.84
557.821	3.74
558.164	3.85
558.507	3.82
558.849	3.89
559.192	3.82
559.534	3.71
559.877	3.94
560.219	4.1
560.562	4
560.904	3.84
561.246	4.11
561.589	4.11
561.931	4.25
562.273	3.88
562.615	4.13
562.957	4.07
563.299	4.13
563.641	4.14
563.983	3.95
564.325	4.01
564.667	3.98
565.008	4.13
565.35	4.12
565.692	4.21
566.033	4.21
566.375	4.01
566.716	4.39
567.058	4.34
567.399	4.25
567.741	4.19
568.082	4.09
568.423	4.27
568.764	4.4
569.105	4.34
569.447	4.36
569.788	4.25
570.129	4.18
570.47	4.41
570.811	4.38
571.151	4.34
571.492	4.49
571.833	4.44
572.174	4.36
572.514	4.36
572.855	4.55
573.195	4.35
573.536	4.31
573.876	4.55
574.217	4.51
574.557	4.57
574.898	4.3
575.238	4.39
575.578	4.72
575.918	4.47
576.258	4.48
576.598	4.61
576.938	4.81
577.278	4.53
577.618	4.7
577.958	4.69
578.298	4.93
578.638	4.8
578.977	4.78
579.317	4.8
579.657	5
579.996	4.75
580.336	4.69
580.675	4.98
581.014	4.76
581.354	5.07
581.693	4.78
582.032	4.85
582.372	4.98
582.711	4.83
583.05	5.24
583.389	4.98
583.728	5.18
584.067	5.06
584.406	5.09
584.745	5.13
585.083	5.36
585.422	5.25
585.761	5.27
586.1	5.3
586.438	5.08
586.777	5.16
587.115	5.12
587.454	5.29
587.792	5.21
588.13	5.6
588.469	5.49
588.807	5.52
589.145	5.51
589.483	5.24
589.821	5.58
590.159	5.31
590.497	5.35
590.835	5.37
591.173	5.51
591.511	5.52
591.849	5.37
592.187	5.29
592.524	5.5
592.862	5.66
593.2	5.56
593.537	5.26
593.875	5.55
594.212	5.7
594.55	5.63
594.887	5.75
595.224	5.57
595.561	5.72
595.899	5.68
596.236	5.8
596.573	5.66
596.91	5.83
597.247	5.68
597.584	5.91
597.921	5.84
598.258	5.94
598.594	5.54
598.931	5.89
599.268	5.92
599.604	6.08
599.941	5.96
600.277	5.82
600.614	5.95
600.95	6.33
601.287	6.02
601.623	6.08
601.959	6.11
602.296	6.1
602.632	6.22
602.968	6.28
603.304	6.58
603.64	6.15
603.976	6.13
604.312	6.58
604.648	6.47
604.984	6.29
605.319	6.33
605.655	6.41
605.991	6.22
606.326	6.13
606.662	6.21
606.998	6.4
607.333	6.41
607.668	6.53
608.004	6.36
608.339	6.66
608.674	6.48
609.01	6.8
609.345	7.01
609.68	6.52
610.015	6.71
610.35	6.43
610.685	6.64
611.02	6.71
611.355	6.86
611.689	6.52
612.024	7.04
612.359	6.76
612.694	6.88
613.028	7.21
613.363	6.76
613.697	7.1
614.032	6.83
614.366	7.18
614.7	7.21
615.035	6.91
615.369	7.12
615.703	7.32
616.037	7.32
616.371	7.31
616.705	7.12
617.039	7.69
617.373	7.3
617.707	7.22
618.041	7.28
618.375	7.25
618.709	7.52
619.042	7.29
619.376	7.45
619.71	7.2
620.043	7.23
620.377	7.44
620.71	7.33
621.043	7.28
621.377	7.34
621.71	7.89
622.043	7.69
622.376	7.39
622.709	7.79
623.043	7.84
623.376	8.13
623.709	7.86
624.041	7.74
624.374	7.67
624.707	7.67
625.04	7.54
625.373	7.7
625.705	7.67
626.038	7.84
626.37	8.11
626.703	7.87
627.035	8.24
627.368	7.82
627.7	7.91
628.032	7.84
628.365	7.8
628.697	8.21
629.029	8.07
629.361	7.85
629.693	8.36
630.025	8.22
630.357	7.97
630.689	8.18
631.021	8.03
631.353	8.38
631.684	8.4
632.016	8.37
632.348	8.29
632.679	8.44
633.011	8.69
633.342	8.25
633.674	8.47
634.005	8.45
634.336	8.55
634.668	8.23
634.999	8.45
635.33	8.53
635.661	8.6
635.992	8.42
636.323	8.73
636.654	8.56
636.985	8.91
637.316	8.86
637.647	8.81
637.977	8.54
638.308	8.45
638.639	8.72
638.969	8.91
639.3	8.96
639.63	8.79
639.961	8.74
640.291	9.4
640.622	9
640.952	9.01
641.282	8.52
641.612	8.84
641.943	9.22
642.273	9.29
642.603	9.63
642.933	9.26
643.263	9.43
643.592	9.48
643.922	9.48
644.252	9.32
644.582	9.73
644.911	9.35
645.241	9.41
645.571	9.49
645.9	9.49
646.23	9.18
646.559	9.59
646.888	9.02
647.218	9.78
647.547	10.05
647.876	9.93
648.205	9.86
648.534	9.88
648.863	9.7
649.192	9.65
649.521	9.53
649.85	9.87
650.179	9.68
650.508	9.87
650.837	9.75
651.165	10.16
651.494	10.28
651.822	9.91
652.151	10.12
652.479	10.49
652.808	9.99
653.136	10.26
653.465	10.21
653.793	10.45
654.121	10.68
654.449	10.22
654.777	9.62
655.105	10.49
655.433	10.4
655.761	9.73
656.089	10.02
656.417	10.35
656.745	10.69
657.073	10.46
657.4	10.54
657.728	10.36
658.056	10.22
658.383	10.19
658.711	10.12
659.038	10.85
659.365	10.88
659.693	10.53
660.02	10.74
660.347	10.61
660.674	10.4
661.001	10.16
661.329	10.83
661.656	10.46
661.982	10.5
662.309	11.27
662.636	11.07
662.963	11.35
663.29	10.68
663.616	10.99
663.943	10.87
664.27	11.14
664.596	10.67
664.923	11.79
665.249	11.09
665.576	11.82
665.902	11.5
666.228	11.13
666.554	11.32
666.881	11.28
667.207	11.62
667.533	11.82
667.859	11.16
668.185	11.98
668.511	10.9
668.837	10.92
669.162	11.21
669.488	11.18
669.814	11.76
670.139	11.73
670.465	11.61
670.791	11.9
671.116	11.88
671.442	12.12
671.767	12.05
672.092	11.67
672.418	12.11
672.743	11.82
673.068	11.77
673.393	11.43
673.718	11.69
674.043	12.14
674.368	12.69
674.693	12.26
675.018	11.83
675.343	12.26
675.667	12.3
675.992	11.64
676.317	12.7
676.641	12.41
676.966	12.75
677.29	12.37
677.615	12.63
677.939	12.59
678.264	12.46
678.588	12.86
678.912	12.29
679.236	12.48
679.56	11.91
679.885	12.94
680.209	12.37
680.532	12.46
680.856	12.79
681.18	12.62
681.504	11.96
681.828	12.2
682.152	12.81
682.475	12.74
682.799	12.95
683.122	12.68
683.446	12.67
683.769	13.18
684.093	12.59
684.416	12.8
684.739	12.66
685.062	12.95
685.386	13.01
685.709	12.71
686.032	13.38
686.355	13.07
686.678	13.4
687.001	12.49
687.324	13.4
687.646	12.92
687.969	13.29
688.292	13.27
688.614	13.98
688.937	13.24
689.26	12.92
689.582	13.31
689.904	13.65
690.227	13.15
690.549	14.26
690.871	13.85
691.194	14.03
691.516	13.53
691.838	13.48
692.16	13.78
692.482	13.91
692.804	13.07
693.126	12.95
693.448	13.6
693.769	14.14
694.091	13.84
694.413	13.76
694.735	13.96
695.056	14.41
695.378	14.04
695.699	15.66
696.021	14.79
696.342	13.78
696.663	14.06
696.984	14.69
697.306	14.78
697.627	14.69
697.948	14.55
698.269	14.46
698.59	13.99
698.911	14.74
699.232	14.29
699.553	14.41
699.873	14.56
700.194	14.18
700.515	14.6
700.835	14.57
701.156	14.9
701.477	14.21
701.797	15.16
702.117	15.39
702.438	15.2
702.758	14.81
703.078	13.95
703.398	14.99
703.719	14.99
704.039	15.63
704.359	14.19
704.679	14.66
704.999	14.87
705.319	15.03
705.638	15.43
705.958	16.86
706.278	15.46
706.597	15.25
706.917	15.64
707.237	15.35
707.556	15.97
707.876	14.58
708.195	15.08
708.514	15.78
708.834	15.49
709.153	15.96
709.472	15.43
709.791	15.18
710.11	15.54
710.429	14.88
710.748	15.96
711.067	16.01
711.386	16.68
711.705	15.21
712.023	15.6
712.342	15.11
712.661	16.43
712.979	16.35
713.298	16.8
713.616	16.17
713.935	15.64
714.253	15.92
714.572	15.46
714.89	16.12
715.208	16.09
715.526	16.64
715.844	16.82
716.162	15.67
716.48	15.68
716.798	16.46
717.116	17.46
717.434	17.2
717.752	16.4
718.069	16.19
718.387	17.05
718.705	15.96
719.022	17.21
719.34	16.51
719.657	16.53
719.975	17.09
720.292	16.58
720.609	17.6
720.927	17.74
721.244	16.58
721.561	17.94
721.878	17.38
722.195	17.66
722.512	17.36
722.829	17.24
723.146	16.77
723.463	16.75
723.779	16.24
724.096	16.37
724.413	17.53
724.729	16.68
725.046	18.04
725.362	15.46
725.679	18.09
725.995	17.58
726.311	18.33
726.628	16.3
726.944	17.93
727.26	16.76
727.576	18.39
727.892	17.54
728.208	17.84
728.524	17.13
728.84	18.87
729.156	18.29
729.472	19.21
729.787	19.11
730.103	17.27
730.419	18.81
730.734	17.66
731.05	17.76
731.365	18.02
731.681	18.86
731.996	17.29
732.311	17.82
732.626	19.12
732.942	18.06
733.257	18.68
733.572	19.16
733.887	18.01
734.202	18.76
734.517	18.51
734.832	17.98
735.146	18.41
735.461	17.69
735.776	19.6
736.091	18.17
736.405	19.21
736.72	18.19
737.034	18.23
737.349	17.32
737.663	18.77
737.977	19.27
738.292	19
738.606	20.02
738.92	19.11
739.234	18.99
739.548	20.78
739.862	19.85
740.176	18.08
740.49	18.64
740.804	18.43
741.117	19.99
741.431	18.33
741.745	18.83
742.058	20.97
742.372	18.93
742.685	18.92
742.999	19.55
743.312	17.71
743.626	17.32
743.939	19.56
744.252	19.19
744.565	19.43
744.878	20.65
745.191	19.79
745.505	19.69
745.817	19.17
746.13	20.54
746.443	20.97
746.756	21.4
747.069	20
747.381	19.21
747.694	17.65
748.007	19.99
748.319	19.56
748.632	19.24
748.944	21.78
749.256	22.35
749.569	20.01
749.881	20.04
750.193	20.41
750.505	19.98
750.817	20.01
751.129	19.84
751.441	20.35
751.753	20.92
752.065	21.08
752.377	19.09
752.689	22.09
753	20.04
753.312	20.21
753.624	21.29
753.935	20.42
754.247	21.35
754.558	21.36
754.869	21.99
755.181	20.66
755.492	22.16
755.803	20.55
756.114	20.49
756.425	20.97
756.736	19.95
757.047	21.65
757.358	21.06
757.669	21.47
757.98	21.42
758.291	22.13
758.601	22.19
758.912	21.14
759.223	21.79
759.533	23.93
759.844	22.21
760.154	22.31
760.464	21.98
760.775	23.92
761.085	21.6
761.395	23.14
761.705	22.57
762.016	23.21
762.326	23.25
762.636	23.7
762.945	21.27
763.255	21.65
763.565	21.31
763.875	23.17
764.185	21.98
764.494	22.1
764.804	22.34
765.113	22.44
765.423	21.66
765.732	22.04
766.042	23.11
766.351	23.67
766.66	21.67
766.97	22.52
767.279	22.68
767.588	23.74
767.897	23.54
768.206	22.27
768.515	20.95
768.824	22.88
769.133	23.9
769.441	24.23
769.75	21.01
770.059	22.05
770.367	22.47
770.676	19.78
770.984	23.96
771.293	24.04
771.601	21.05
771.91	22.33
772.218	20.11
772.526	22.63
772.834	24.22
773.142	24.17
773.45	22.72
773.758	26.18
774.066	21.06
774.374	21.66
774.682	21.51
774.99	24.03
775.298	22.11
775.605	22.25
775.913	21.82
776.22	20.35
776.528	23.04
776.835	24.43
777.143	25.34
777.45	21.93
777.757	25.95
778.065	21.74
778.372	21.15
778.679	24.93
778.986	24.84
779.293	23.59
779.6	23.08
779.907	22.43
780.214	23.83
780.52	26.39
780.827	20.47
781.134	25.27
781.44	23.83
781.747	27.88
782.053	26.31
782.36	25.83
782.666	23.4
782.973	21.46
783.279	24.94
783.585	23.15
783.891	26.02
784.197	21.38
784.503	25.67
784.809	26.65
785.115	20.49
785.421	26
785.727	24.6
786.033	24.28
786.339	27.41
786.644	26.63
786.95	27.59
787.255	29.39
787.561	24.49
787.866	22.4
788.172	25.1
788.477	24.86
788.782	19.41
789.088	26.03
789.393	24.39
789.698	22.28
790.003	26.07
790.308	25.07
790.613	27.99
790.918	24.33
791.223	27.12
791.527	23.47
791.832	24.09
792.137	28.71
792.441	26.01
792.746	24.83
793.05	26.28
793.355	26.88
793.659	28.5
793.963	22.29
794.268	24.19
794.572	28.84
794.876	26.41
795.18	24.58
795.484	26.67
795.788	28.6
796.092	27.05
796.396	28.77
796.7	23.25
797.004	26.07
797.307	25.88
797.611	25.82
797.915	23.38
798.218	26.42
798.522	24.27
798.825	30.24
799.128	25.45
799.432	29.56
799.735	24.7
800.038	26
800.341	26.55
800.644	25.81
800.947	28.01
801.25	24.48
801.553	23.69
801.856	25.91
802.159	23.31
802.462	27.07
802.764	27.43
803.067	26.55
803.37	25.3
803.672	24.53
803.975	26.98
804.277	28.49
804.579	27.66
804.882	21
805.184	22.72
805.486	26.53
805.788	26.85
806.09	25.99
806.392	27.36
806.694	28.46
806.996	30.48
807.298	25.45
807.6	24.56
807.902	28.29
808.203	24.66
808.505	26.17
808.807	32.61
809.108	32.84
809.409	24.42
809.711	24.36
810.012	27.42
810.313	29.93
810.615	28.62
810.916	27.64
811.217	24.16
811.518	33.19
811.819	25.59
812.12	34.31
812.421	28.51
812.722	25.09
813.023	26.13
813.323	31.23
813.624	31.26
813.925	28.35
814.225	31.6
814.526	26.93
814.826	27.1
815.126	26.32
815.427	29.07
815.727	28.45
816.027	28.66
816.327	25.59
816.627	23.93
816.927	29.57
817.227	23.88
817.527	25.56
817.827	28.66
818.127	26.41
818.427	31.03
818.727	30.13
819.026	31.4
819.326	32
819.625	29.45
819.925	28.99
820.224	28.49
820.524	29.14
820.823	22.9
821.122	23.69
821.421	28
821.72	34.29
822.019	28.18
822.318	34.25
822.617	33.77
822.916	31.01
823.215	34.86
823.514	32.26
823.813	30.71
824.111	30.59
824.41	29.61
824.709	31.2
825.007	32.02
825.306	30.76
825.604	31.63
825.902	30.59
826.201	30.85
826.499	32.15
826.797	30.78
827.095	31.24
827.393	31.72
827.691	32.22
827.989	30.94
828.287	33.19
828.585	28.53
828.882	32.78
829.18	30.39
829.478	32.1
829.775	32.41
830.073	29.98
830.37	30.81
830.668	32.61
830.965	32.12
831.263	30.43
831.56	35.12
831.857	33.52
832.154	36.55
832.451	32.06
832.748	32.38
833.045	32.69
833.342	31.73
833.639	28.99
833.936	30.36
834.232	28.7
834.529	35.04
834.826	29.96
835.122	31.39
835.419	29.25
835.715	31.05
836.012	32.4
836.308	32.82
836.604	29.56
836.901	32.15
837.197	35
837.493	36.41
837.789	29.81
838.085	31.13
838.381	31.29
838.677	29.93
838.972	29.26
839.268	30.5
839.564	34
839.86	32.49
840.155	37.48
840.451	30.58
840.746	31.33
841.042	33.68
841.337	25.6
841.632	34.48
841.928	36.52
842.223	25.02
842.518	31.61
842.813	29.78
843.108	23.24
843.403	37.49
843.698	26.04
843.993	25.38
844.287	34.16
844.582	28.25
844.877	33.6
845.171	34.69
845.466	20.8
845.761	36.49
846.055	41.51
846.349	18.05
846.644	35.33
846.938	26.85
847.232	16.21
847.526	31.78
847.82	32.73
848.114	26.76
848.408	36.3
848.702	24.49
848.996	22.16
849.29	30.12
849.584	27.06
849.877	33.17
850.171	57.88
850.465	26.11
850.758	25.93
851.052	29.11
851.345	44.85
851.638	23.15
851.932	21.71
852.225	31.54
852.518	26.36
852.811	9.64
853.104	28.91
853.397	21.9
853.69	27.26
853.983	23.57
854.276	10.09
854.569	25.62
854.861	22.53
855.154	6.95
855.447	24.89
855.739	29.08
856.032	6.3
856.324	34.85
856.616	58.12
856.909	17.12
857.201	28.81
857.493	33.28
857.785	51.47
858.077	3.11
858.369	22.69
858.661	37.76
858.953	25.88
859.245	22.1
859.537	37.34
859.829	29.33
860.12	15.4
860.412	24.92
860.703	27.33
860.995	16.35
861.286	-3.24
861.578	10.6
861.869	33.78
862.16	27.55
862.452	38.03
862.743	51.23
863.034	23.33
863.325	25.26
863.616	19.66
863.907	34.51
864.198	33.91
864.488	23.74
864.779	4.87
865.07	23.37
865.36	51.04
865.651	38.67
865.941	51.33
866.232	35.41
866.522	41.04
866.813	31.21
867.103	40.98
867.393	35.48
867.683	49.1
867.973	11.37
868.263	28.94
868.553	28.28
868.843	2.53
869.133	31.92
869.423	46.06
869.713	13.63
870.002	6.84
870.292	22.07
870.582	33.49
870.871	26.56
871.161	15.71
871.45	29
871.739	18.31
872.029	0.42
872.318	41.63
872.607	9.33
872.896	48.96
873.185	32.3
873.474	53.4
873.763	39.14
874.052	38.87
874.341	-5.02
874.63	43.05
874.918	33.62
875.207	11.95
875.496	40.94
875.784	53.05
876.073	12.53
876.361	29.44
876.649	30.37
876.938	49.6
877.226	33.04
877.514	19.95
877.802	26.86
878.09	24.36
878.378	43.54
878.666	28.31
878.954	50.67
879.242	10.75
879.53	8.55
879.817	17.29
880.105	20.22
880.392	41.25
880.68	49.14
880.967	31.81
881.255	20.96
881.542	39.52
881.83	26.15
882.117	24.8
882.404	28.92
882.691	28.78
882.978	22.55
883.265	30.53
883.552	25.59
883.839	36.35
884.126	36.39
884.413	40.69
884.699	41.46
884.986	39.46
885.273	36.23
885.559	36.23
885.846	36.23
