Data from 97281_crown_Reflection__1__57.txt Node

Date: Fri Sep 23 20:07:57 CDT 2022
User: ToomeyLab
Spectrometer: FLMS14357
Trigger mode: 0
Integration Time (sec): 1.000000E-2
Scans to average: 100
Electric dark correction enabled: true
Nonlinearity correction enabled: false
Boxcar width: 0
XAxis mode: Wavelengths
Number of Pixels in Spectrum: 2048
>>>>>Begin Spectral Data<<<<<
189.047	195.76
189.435	195.76
189.823	195.76
190.211	37.8
190.599	84.12
190.987	457.5
191.375	-644.07
191.763	40.3
192.151	76.17
192.538	72.3
192.926	267.44
193.314	190.96
193.702	41.02
194.089	-194.16
194.477	139.79
194.864	20.88
195.252	612.66
195.639	-175.83
196.027	263.76
196.414	190.28
196.801	13.07
197.189	208.31
197.576	84.47
197.963	-67.55
198.351	19.35
198.738	-105.54
199.125	51.23
199.512	-1.88
199.899	24.53
200.286	44.68
200.673	11.41
201.06	20.86
201.447	22.57
201.833	15.66
202.22	-18.93
202.607	1.55
202.994	-24.08
203.38	-39.38
203.767	-34.93
204.154	14.47
204.54	23.14
204.927	21.72
205.313	5.93
205.699	-19.26
206.086	-59.1
206.472	27.49
206.858	12.58
207.245	25.81
207.631	3.61
208.017	22.38
208.403	-5.08
208.789	19.42
209.175	4.31
209.561	14.87
209.947	-11.04
210.333	-42.88
210.719	-22.67
211.105	32.78
211.491	36.93
211.876	35.42
212.262	-0.11
212.648	-54.81
213.034	-54.1
213.419	0.24
213.805	34.35
214.19	-17.7
214.576	-3.8
214.961	14.86
215.346	-16.94
215.732	49.36
216.117	17.18
216.502	-3.19
216.888	13.77
217.273	5.12
217.658	-16.57
218.043	18.47
218.428	-11.3
218.813	14.76
219.198	-8.94
219.583	-5.89
219.968	17.82
220.353	6.2
220.738	7.36
221.122	-0.7
221.507	5.79
221.892	-5.05
222.276	-27.74
222.661	-9.22
223.046	-12.03
223.43	-6.45
223.815	-1.52
224.199	-0.56
224.583	10.14
224.968	-1.54
225.352	-0.15
225.736	-0.18
226.121	6.46
226.505	5.06
226.889	8.66
227.273	5.35
227.657	-2.61
228.041	2.07
228.425	3.97
228.809	1.13
229.193	2.71
229.577	6
229.961	4.55
230.344	4.06
230.728	3.19
231.112	3.58
231.495	2.96
231.879	3.41
232.263	3
232.646	4.64
233.03	3.45
233.413	2.75
233.797	3.62
234.18	5.07
234.563	2.02
234.946	4.2
235.33	0.39
235.713	4.33
236.096	1.37
236.479	2.1
236.862	3.57
237.245	5.1
237.628	4.9
238.011	2.94
238.394	3.79
238.777	4.33
239.16	3.14
239.543	3.42
239.925	2.87
240.308	6.01
240.691	3.86
241.073	3.22
241.456	3.1
241.838	4.89
242.221	4.04
242.603	4.41
242.986	3.14
243.368	2.97
243.75	3.7
244.133	3.69
244.515	3.25
244.897	3.52
245.279	3.69
245.661	4.58
246.043	3.99
246.425	3.69
246.807	2.32
247.189	3.75
247.571	3.73
247.953	3.22
248.335	3.46
248.717	3.43
249.098	3.37
249.48	3.3
249.862	3.32
250.243	3.6
250.625	3.55
251.006	3.93
251.388	2.62
251.769	3.68
252.151	1.79
252.532	3.29
252.913	4.02
253.295	4.24
253.676	3.24
254.057	3.21
254.438	3.47
254.819	3.52
255.2	3.86
255.581	4.31
255.962	2.27
256.343	3.46
256.724	3.17
257.105	2.87
257.486	3.5
257.867	2.97
258.247	3.4
258.628	2.67
259.009	2.45
259.389	3.36
259.77	2.23
260.15	3.22
260.531	3.57
260.911	3.25
261.292	3.1
261.672	3.06
262.052	3.05
262.432	3.39
262.813	3.47
263.193	3.58
263.573	3.37
263.953	2.83
264.333	2.72
264.713	3.44
265.093	3.8
265.473	2.85
265.853	2.39
266.233	1.67
266.612	3.12
266.992	3.99
267.372	3.25
267.752	3.3
268.131	3.33
268.511	2.66
268.89	2.69
269.27	2.62
269.649	2.58
270.029	3.43
270.408	2.99
270.787	2.46
271.167	3.21
271.546	3.22
271.925	3.17
272.304	3.07
272.683	3
273.062	2.94
273.441	3.28
273.82	3.09
274.199	2.77
274.578	2.66
274.957	2.84
275.336	3.11
275.715	2.59
276.093	3.56
276.472	4.28
276.851	3.19
277.229	2.93
277.608	2.85
277.986	2.64
278.365	3.5
278.743	3.36
279.122	2.8
279.5	2.7
279.878	3.03
280.257	2.99
280.635	2.77
281.013	2.44
281.391	2.71
281.769	3.07
282.147	2.67
282.525	2.65
282.903	2.4
283.281	3.13
283.659	2.9
284.037	3.12
284.415	3.04
284.792	2.84
285.17	3.21
285.548	2.46
285.925	3.17
286.303	3.56
286.68	2.85
287.058	2.8
287.435	2.89
287.813	3.26
288.19	2.57
288.567	2.87
288.945	3.3
289.322	3.51
289.699	3.46
290.076	3.06
290.453	3.16
290.83	2.85
291.207	3.2
291.584	2.94
291.961	3.07
292.338	2.86
292.715	2.88
293.092	2.66
293.469	3.23
293.845	3.27
294.222	3.47
294.599	2.69
294.975	3.36
295.352	3.32
295.728	3.02
296.105	2.62
296.481	2.69
296.858	2.88
297.234	2.99
297.61	2.42
297.986	2.81
298.363	2.91
298.739	2.92
299.115	3
299.491	2.79
299.867	2.86
300.243	2.98
300.619	3.55
300.995	3.06
301.371	2.66
301.746	3.48
302.122	2.9
302.498	3.04
302.874	2.53
303.249	3.18
303.625	2.53
304	2.63
304.376	2.62
304.751	2.72
305.127	2.79
305.502	3.49
305.878	3.35
306.253	3.13
306.628	2.64
307.003	2.41
307.378	2.68
307.754	3.37
308.129	2.45
308.504	3.16
308.879	3.2
309.254	3.08
309.629	3.21
310.003	2.8
310.378	2.73
310.753	3.05
311.128	2.65
311.502	2.96
311.877	2.91
312.252	2.22
312.626	2.92
313.001	2.73
313.375	3.18
313.75	2.88
314.124	2.52
314.498	3.18
314.873	2.83
315.247	2.92
315.621	2.77
315.995	2.94
316.369	3.41
316.743	2.76
317.117	2.46
317.491	2.33
317.865	3.09
318.239	3.61
318.613	2.43
318.987	2.83
319.361	2.29
319.734	2.37
320.108	2.28
320.482	2.91
320.855	2.17
321.229	3.01
321.602	2.41
321.976	3.4
322.349	3.08
322.723	2.56
323.096	2.9
323.469	2.15
323.843	2.01
324.216	2.81
324.589	3.25
324.962	2.68
325.335	2.07
325.708	3.09
326.081	2.52
326.454	2.45
326.827	2.45
327.2	2.59
327.573	2.75
327.945	2.78
328.318	2.54
328.691	3.07
329.063	2.94
329.436	3.02
329.809	3.59
330.181	2.43
330.553	2.06
330.926	2.52
331.298	2.25
331.671	2.98
332.043	2.73
332.415	2.84
332.787	2.8
333.159	2.8
333.532	2.24
333.904	2.55
334.276	2.59
334.648	2.93
335.02	2.41
335.391	2.53
335.763	2.37
336.135	2.75
336.507	3.28
336.879	2.64
337.25	3.12
337.622	3.16
337.993	2.07
338.365	2.62
338.736	2.94
339.108	3.43
339.479	2.48
339.851	2.84
340.222	3.06
340.593	2.55
340.964	2.83
341.336	2.26
341.707	3.68
342.078	2.39
342.449	2.56
342.82	2.41
343.191	2.77
343.562	2.94
343.933	3.19
344.303	2.92
344.674	2.75
345.045	3.05
345.416	2.55
345.786	2.77
346.157	2.74
346.527	2.78
346.898	2.81
347.268	2.93
347.639	2.59
348.009	2.61
348.38	2.46
348.75	2.61
349.12	2.74
349.49	2.36
349.861	2.65
350.231	2.45
350.601	2.47
350.971	2.9
351.341	2.58
351.711	2.5
352.081	2.63
352.45	2.45
352.82	2.37
353.19	3.2
353.56	2.88
353.929	2.51
354.299	2.82
354.669	2.55
355.038	2.83
355.408	2.33
355.777	2.46
356.147	2.59
356.516	3.01
356.885	2.57
357.254	2.46
357.624	2.52
357.993	2.63
358.362	2.9
358.731	2.63
359.1	2.65
359.469	2.39
359.838	2.58
360.207	2.73
360.576	2.82
360.945	2.75
361.314	2.58
361.682	2.61
362.051	2.73
362.42	2.96
362.788	2.88
363.157	2.79
363.525	2.86
363.894	2.82
364.262	2.4
364.631	2.59
364.999	2.53
365.367	2.49
365.735	2.85
366.104	2.86
366.472	2.74
366.84	2.72
367.208	2.74
367.576	2.77
367.944	2.66
368.312	2.68
368.68	2.74
369.048	2.71
369.416	2.78
369.783	2.78
370.151	2.68
370.519	2.64
370.886	2.82
371.254	2.72
371.621	2.49
371.989	2.38
372.356	3.11
372.724	2.77
373.091	2.72
373.458	2.7
373.826	2.78
374.193	2.71
374.56	2.66
374.927	2.76
375.294	2.79
375.661	2.72
376.028	2.73
376.395	2.77
376.762	2.52
377.129	2.67
377.496	2.8
377.863	2.73
378.229	2.74
378.596	2.7
378.963	3.05
379.329	2.74
379.696	2.46
380.062	2.59
380.429	2.98
380.795	2.37
381.161	2.72
381.528	3.13
381.894	2.8
382.26	2.56
382.626	2.5
382.993	2.83
383.359	2.69
383.725	2.85
384.091	2.67
384.457	2.73
384.823	2.67
385.188	2.84
385.554	2.7
385.92	3.02
386.286	2.68
386.651	2.83
387.017	2.93
387.383	2.84
387.748	2.82
388.114	2.58
388.479	2.93
388.845	2.69
389.21	2.52
389.575	2.53
389.94	2.63
390.306	2.56
390.671	2.48
391.036	2.52
391.401	2.63
391.766	2.62
392.131	2.57
392.496	2.76
392.861	2.69
393.226	2.66
393.591	2.58
393.956	2.84
394.32	2.53
394.685	2.65
395.05	2.77
395.414	2.71
395.779	2.51
396.143	2.78
396.508	2.71
396.872	2.76
397.236	2.73
397.601	2.79
397.965	2.93
398.329	2.85
398.694	2.82
399.058	2.92
399.422	2.86
399.786	3.03
400.15	2.8
400.514	2.6
400.878	2.75
401.242	2.73
401.605	2.92
401.969	2.84
402.333	2.67
402.697	2.25
403.06	2.45
403.424	2.59
403.787	2.88
404.151	2.62
404.514	2.79
404.878	2.93
405.241	2.74
405.604	2.58
405.968	2.83
406.331	2.6
406.694	2.93
407.057	2.72
407.42	2.81
407.783	2.65
408.146	2.81
408.509	2.67
408.872	2.59
409.235	2.78
409.598	2.94
409.961	2.89
410.323	2.73
410.686	2.85
411.049	2.85
411.411	2.84
411.774	2.57
412.136	2.67
412.499	2.74
412.861	2.64
413.223	2.89
413.586	2.77
413.948	2.7
414.31	2.58
414.672	2.68
415.035	2.62
415.397	3.09
415.759	2.78
416.121	2.85
416.483	2.61
416.845	2.55
417.206	2.63
417.568	2.77
417.93	2.69
418.292	2.81
418.653	2.77
419.015	2.75
419.377	2.62
419.738	2.7
420.1	2.81
420.461	2.74
420.822	2.79
421.184	2.73
421.545	2.76
421.906	2.77
422.267	2.62
422.629	2.65
422.99	2.67
423.351	2.81
423.712	2.72
424.073	2.69
424.434	2.68
424.795	2.69
425.155	2.73
425.516	2.66
425.877	2.63
426.238	2.69
426.598	2.72
426.959	2.7
427.32	2.79
427.68	2.75
428.041	2.71
428.401	2.77
428.761	2.77
429.122	2.64
429.482	2.63
429.842	2.9
430.202	2.74
430.563	2.73
430.923	2.93
431.283	2.93
431.643	2.8
432.003	2.56
432.363	2.84
432.722	2.93
433.082	2.85
433.442	2.65
433.802	2.82
434.161	2.69
434.521	2.77
434.881	2.69
435.24	2.69
435.6	2.76
435.959	2.81
436.319	2.76
436.678	2.74
437.037	2.9
437.396	2.82
437.756	2.71
438.115	2.68
438.474	2.7
438.833	2.83
439.192	2.84
439.551	2.79
439.91	2.74
440.269	2.79
440.628	2.78
440.987	2.64
441.345	2.78
441.704	2.82
442.063	2.83
442.421	2.71
442.78	2.71
443.138	2.7
443.497	2.78
443.855	2.67
444.214	2.89
444.572	2.75
444.93	2.71
445.288	2.79
445.647	2.89
446.005	2.88
446.363	2.74
446.721	2.73
447.079	2.67
447.437	2.8
447.795	2.74
448.153	2.61
448.51	2.73
448.868	2.72
449.226	2.77
449.584	2.67
449.941	2.78
450.299	2.81
450.656	2.82
451.014	2.8
451.371	2.65
451.729	2.78
452.086	2.82
452.443	2.76
452.801	2.77
453.158	2.82
453.515	2.86
453.872	2.68
454.229	2.81
454.586	2.66
454.943	2.9
455.3	2.83
455.657	2.79
456.014	2.95
456.371	2.9
456.727	2.84
457.084	2.8
457.441	2.94
457.797	2.73
458.154	2.69
458.51	2.89
458.867	2.91
459.223	2.87
459.58	2.85
459.936	2.78
460.292	2.76
460.648	2.68
461.005	2.79
461.361	2.73
461.717	2.68
462.073	2.82
462.429	2.72
462.785	2.86
463.141	2.76
463.496	2.85
463.852	2.88
464.208	2.71
464.564	2.98
464.919	2.88
465.275	2.82
465.631	2.76
465.986	2.73
466.342	2.69
466.697	2.79
467.052	2.8
467.408	2.78
467.763	2.96
468.118	2.83
468.473	2.79
468.829	2.7
469.184	2.88
469.539	2.71
469.894	2.8
470.249	2.91
470.603	2.94
470.958	2.98
471.313	2.89
471.668	2.94
472.023	2.69
472.377	2.77
472.732	2.88
473.086	2.75
473.441	2.9
473.795	2.87
474.15	2.93
474.504	2.87
474.859	2.93
475.213	3.07
475.567	2.71
475.921	2.84
476.275	2.67
476.63	2.9
476.984	3.11
477.338	2.86
477.692	2.86
478.045	2.71
478.399	2.85
478.753	2.91
479.107	2.74
479.461	2.8
479.814	2.74
480.168	2.88
480.521	2.82
480.875	2.89
481.228	2.89
481.582	2.84
481.935	2.84
482.289	2.96
482.642	2.67
482.995	3.03
483.348	2.65
483.701	2.77
484.055	2.74
484.408	2.78
484.761	2.72
485.114	2.6
485.466	2.6
485.819	2.58
486.172	2.64
486.525	2.76
486.878	2.76
487.23	2.79
487.583	2.81
487.936	2.78
488.288	2.7
488.641	2.7
488.993	2.65
489.345	2.68
489.698	2.67
490.05	2.68
490.402	2.7
490.754	2.79
491.107	2.82
491.459	2.8
491.811	2.74
492.163	2.89
492.515	2.81
492.866	2.69
493.218	2.59
493.57	2.66
493.922	2.78
494.274	2.8
494.625	2.84
494.977	2.86
495.328	2.93
495.68	2.9
496.031	2.83
496.383	2.88
496.734	2.91
497.086	2.91
497.437	2.96
497.788	2.85
498.139	2.89
498.49	2.77
498.842	2.84
499.193	2.92
499.544	2.85
499.894	2.81
500.245	2.91
500.596	2.9
500.947	2.74
501.298	2.94
501.648	2.93
501.999	2.97
502.35	2.93
502.7	2.93
503.051	2.83
503.401	2.79
503.752	2.87
504.102	2.91
504.452	2.83
504.803	2.77
505.153	2.9
505.503	2.76
505.853	2.95
506.203	2.84
506.553	2.99
506.903	2.84
507.253	2.81
507.603	2.91
507.953	2.95
508.303	2.97
508.652	2.82
509.002	2.89
509.352	2.93
509.701	2.89
510.051	2.88
510.4	2.93
510.75	2.76
511.099	2.89
511.449	2.84
511.798	2.88
512.147	3.02
512.496	2.74
512.846	2.79
513.195	2.79
513.544	2.96
513.893	2.91
514.242	2.87
514.591	2.82
514.939	2.95
515.288	2.97
515.637	2.88
515.986	3.01
516.334	2.88
516.683	3.09
517.032	2.8
517.38	2.95
517.729	2.79
518.077	2.82
518.426	2.93
518.774	2.83
519.122	2.77
519.47	2.85
519.819	2.87
520.167	2.8
520.515	2.85
520.863	2.9
521.211	2.84
521.559	2.88
521.907	2.83
522.255	2.87
522.602	2.93
522.95	2.96
523.298	2.93
523.645	2.91
523.993	2.85
524.341	3.04
524.688	2.92
525.036	2.91
525.383	2.76
525.73	2.97
526.078	2.92
526.425	2.99
526.772	2.83
527.119	2.74
527.466	2.77
527.814	2.8
528.161	2.92
528.508	2.83
528.854	2.94
529.201	2.85
529.548	2.83
529.895	2.74
530.242	2.67
530.588	2.66
530.935	2.79
531.282	2.78
531.628	2.84
531.975	2.84
532.321	2.9
532.667	2.91
533.014	2.91
533.36	2.94
533.706	2.86
534.052	2.82
534.399	2.75
534.745	2.82
535.091	2.74
535.437	2.82
535.783	2.86
536.129	2.91
536.474	2.87
536.82	2.85
537.166	3.01
537.512	2.87
537.857	2.89
538.203	2.91
538.549	2.85
538.894	2.93
539.239	2.94
539.585	2.91
539.93	2.96
540.276	3
540.621	2.99
540.966	2.89
541.311	2.91
541.656	2.83
542.001	3.01
542.346	2.86
542.691	2.76
543.036	2.75
543.381	2.83
543.726	2.89
544.071	2.83
544.415	2.97
544.76	2.84
545.105	2.87
545.449	3.01
545.794	2.97
546.138	3
546.483	2.89
546.827	3.04
547.171	2.92
547.516	2.95
547.86	2.99
548.204	2.9
548.548	2.89
548.892	2.85
549.236	3.04
549.58	2.96
549.924	3.11
550.268	3.06
550.612	3.03
550.956	3.1
551.3	3.02
551.643	2.96
551.987	3.15
552.33	3.05
552.674	3.02
553.017	3.14
553.361	3.02
553.704	3.01
554.048	2.92
554.391	2.96
554.734	3.06
555.077	2.88
555.42	2.87
555.764	2.85
556.107	2.97
556.45	3.06
556.793	2.96
557.135	3.11
557.478	3.1
557.821	3.03
558.164	3.06
558.507	2.84
558.849	3.14
559.192	3.03
559.534	3.07
559.877	3.15
560.219	3.01
560.562	3.21
560.904	3.11
561.246	2.98
561.589	3.17
561.931	3.12
562.273	3.15
562.615	3.08
562.957	2.96
563.299	3.04
563.641	3.12
563.983	2.98
564.325	2.96
564.667	3.05
565.008	3.09
565.35	3.19
565.692	3.05
566.033	2.94
566.375	3.24
566.716	2.99
567.058	2.99
567.399	2.85
567.741	3.03
568.082	3.03
568.423	2.8
568.764	3
569.105	3.11
569.447	2.85
569.788	3
570.129	3.11
570.47	3.01
570.811	3.08
571.151	3.2
571.492	2.91
571.833	3.09
572.174	2.99
572.514	3.07
572.855	3.1
573.195	3.13
573.536	3.11
573.876	2.9
574.217	3.08
574.557	3.1
574.898	2.96
575.238	3.06
575.578	3.12
575.918	3.07
576.258	3.13
576.598	2.98
576.938	3.05
577.278	3.16
577.618	3.1
577.958	3.08
578.298	3.06
578.638	3.06
578.977	3.25
579.317	3.15
579.657	3.24
579.996	2.91
580.336	3.19
580.675	3.09
581.014	3.11
581.354	3.35
581.693	3.08
582.032	3.13
582.372	3.4
582.711	3.16
583.05	3.38
583.389	3.15
583.728	3.43
584.067	3.28
584.406	2.94
584.745	3.02
585.083	3.12
585.422	3.24
585.761	3.07
586.1	3.15
586.438	3.03
586.777	3.08
587.115	2.98
587.454	3.15
587.792	3.4
588.13	3.28
588.469	3.01
588.807	3.02
589.145	3.25
589.483	3.24
589.821	3.32
590.159	3.25
590.497	3.04
590.835	3.19
591.173	3.24
591.511	3.28
591.849	2.97
592.187	3.19
592.524	3.36
592.862	3.35
593.2	3.45
593.537	3.3
593.875	3.25
594.212	3.32
594.55	3.14
594.887	3.31
595.224	3.13
595.561	3.27
595.899	3.09
596.236	3.12
596.573	3.23
596.91	3.18
597.247	3.14
597.584	3.37
597.921	3.11
598.258	3.07
598.594	3.13
598.931	2.98
599.268	3.09
599.604	3.17
599.941	3.33
600.277	3.39
600.614	3.02
600.95	3.08
601.287	3.2
601.623	3.09
601.959	3.04
602.296	3.11
602.632	3.28
602.968	2.93
603.304	3.1
603.64	3.22
603.976	3.31
604.312	3.21
604.648	3.15
604.984	3.18
605.319	3.33
605.655	3.19
605.991	3.22
606.326	3.18
606.662	3.17
606.998	3.31
607.333	3.19
607.668	3.06
608.004	3.09
608.339	3.17
608.674	3.28
609.01	3.39
609.345	3.18
609.68	3.23
610.015	3.26
610.35	3.33
610.685	3.09
611.02	3.17
611.355	3.17
611.689	3.21
612.024	3.23
612.359	3.18
612.694	3.38
613.028	3.58
613.363	3.47
613.697	3.12
614.032	3.31
614.366	3.24
614.7	3.22
615.035	3.28
615.369	3.56
615.703	3.11
616.037	3.06
616.371	3.29
616.705	3.33
617.039	3.34
617.373	3.41
617.707	3.76
618.041	3.48
618.375	3.42
618.709	2.99
619.042	3.05
619.376	3.4
619.71	3.21
620.043	3.17
620.377	3
620.71	3.47
621.043	3.18
621.377	3.07
621.71	3.31
622.043	3.08
622.376	2.99
622.709	3.19
623.043	3.01
623.376	3.46
623.709	3.37
624.041	3.25
624.374	3.22
624.707	3.28
625.04	3.74
625.373	3.61
625.705	3.38
626.038	3.21
626.37	3.27
626.703	3.36
627.035	3.68
627.368	3.46
627.7	3.4
628.032	3.31
628.365	3.08
628.697	3.26
629.029	3.5
629.361	3.41
629.693	3.48
630.025	3.4
630.357	3.37
630.689	3.46
631.021	3.14
631.353	3.63
631.684	3.45
632.016	3.62
632.348	3.08
632.679	3.46
633.011	3.45
633.342	3.67
633.674	3.49
634.005	3.27
634.336	3.61
634.668	3.69
634.999	3.29
635.33	3.3
635.661	3.56
635.992	3.47
636.323	3.58
636.654	3.74
636.985	3.53
637.316	3.38
637.647	3.45
637.977	3.11
638.308	3.3
638.639	3.24
638.969	3.48
639.3	3.28
639.63	3.14
639.961	3.57
640.291	3.45
640.622	3.17
640.952	3.34
641.282	3.41
641.612	3.21
641.943	3.25
642.273	3.66
642.603	3.57
642.933	3.48
643.263	3.06
643.592	3.63
643.922	3.46
644.252	3.53
644.582	4.03
644.911	3.56
645.241	3.38
645.571	3.8
645.9	3.49
646.23	3.59
646.559	3.42
646.888	4.03
647.218	3.47
647.547	3.44
647.876	3.28
648.205	3.57
648.534	3.38
648.863	3.66
649.192	3.63
649.521	3.15
649.85	3.2
650.179	3.19
650.508	3.43
650.837	3.55
651.165	3.87
651.494	3.27
651.822	3.57
652.151	3.43
652.479	3.29
652.808	3.85
653.136	3.27
653.465	3.46
653.793	3.73
654.121	2.97
654.449	3.23
654.777	3.52
655.105	3.55
655.433	3.55
655.761	3.69
656.089	4.02
656.417	3.09
656.745	3.7
657.073	3.31
657.4	3.55
657.728	3.82
658.056	4.01
658.383	3.59
658.711	3.44
659.038	3.09
659.365	3.2
659.693	3.53
660.02	3.93
660.347	3.1
660.674	3.42
661.001	3.97
661.329	3.36
661.656	3.67
661.982	3.75
662.309	3.49
662.636	3.62
662.963	3.63
663.29	3.77
663.616	3.39
663.943	3.5
664.27	3.42
664.596	3.77
664.923	3.68
665.249	3.6
665.576	4.1
665.902	3.44
666.228	4
666.554	3.45
666.881	3.4
667.207	3.8
667.533	3.36
667.859	3.28
668.185	3.81
668.511	3.61
668.837	3.95
669.162	3.84
669.488	3.78
669.814	3.9
670.139	3.75
670.465	3.55
670.791	3.24
671.116	3.48
671.442	3.78
671.767	3.55
672.092	3.52
672.418	3.78
672.743	3.21
673.068	3.26
673.393	3.44
673.718	3.47
674.043	4.27
674.368	4.11
674.693	3.81
675.018	3.98
675.343	4.81
675.667	3.68
675.992	3.54
676.317	3.84
676.641	3.78
676.966	3.85
677.29	3.32
677.615	3.61
677.939	4.01
678.264	3.4
678.588	3.15
678.912	3.6
679.236	3.27
679.56	3.67
679.885	3.66
680.209	4.09
680.532	3.13
680.856	3.71
681.18	3.64
681.504	3.91
681.828	3.59
682.152	4.16
682.475	3.66
682.799	3.88
683.122	3.64
683.446	3.76
683.769	3.71
684.093	3.62
684.416	4.18
684.739	3.88
685.062	3.26
685.386	3.92
685.709	4.32
686.032	3.91
686.355	4.03
686.678	3.67
687.001	4.15
687.324	4.36
687.646	3.75
687.969	4.03
688.292	3.36
688.614	3.72
688.937	3.21
689.26	3.49
689.582	3.72
689.904	4.46
690.227	4.31
690.549	3.79
690.871	4.63
691.194	3.44
691.516	3.93
691.838	3.34
692.16	3.77
692.482	4.64
692.804	3.9
693.126	4.22
693.448	4.02
693.769	3.9
694.091	3.64
694.413	3.35
694.735	2.95
695.056	3.62
695.378	4.12
695.699	4.24
696.021	3.56
696.342	3.93
696.663	3.93
696.984	4.21
697.306	3.9
697.627	3.7
697.948	3.47
698.269	3.36
698.59	3.59
698.911	4.01
699.232	3.89
699.553	2.99
699.873	3.96
700.194	3.66
700.515	3.1
700.835	3.51
701.156	3.6
701.477	3.96
701.797	3.8
702.117	4.09
702.438	3.04
702.758	3.31
703.078	3.87
703.398	4.09
703.719	3.57
704.039	3
704.359	4.1
704.679	3.37
704.999	3.32
705.319	3.94
705.638	3.29
705.958	3.61
706.278	3.72
706.597	4.23
706.917	3.79
707.237	3.61
707.556	3.58
707.876	3.76
708.195	3.63
708.514	3.64
708.834	2.64
709.153	3.83
709.472	3.39
709.791	3.7
710.11	4.58
710.429	4.54
710.748	3.72
711.067	3.8
711.386	3.44
711.705	2.87
712.023	4.31
712.342	4.87
712.661	2.98
712.979	4.55
713.298	4.18
713.616	4.25
713.935	4.05
714.253	5.19
714.572	4.34
714.89	3.84
715.208	3.83
715.526	3.5
715.844	3.17
716.162	4.11
716.48	3.67
716.798	4.23
717.116	4.28
717.434	3.41
717.752	4.22
718.069	4.1
718.387	4.36
718.705	3.98
719.022	4.41
719.34	2.94
719.657	5.57
719.975	4.1
720.292	5.13
720.609	3.55
720.927	4.93
721.244	4.74
721.561	4.64
721.878	3.22
722.195	5.09
722.512	3.8
722.829	3.63
723.146	5.21
723.463	3.09
723.779	3.44
724.096	3.49
724.413	4.05
724.729	4.41
725.046	5.26
725.362	4.02
725.679	3.78
725.995	4.53
726.311	4.05
726.628	3.14
726.944	3.74
727.26	5.08
727.576	3.85
727.892	2.34
728.208	3.08
728.524	4.26
728.84	3.84
729.156	4.05
729.472	4.94
729.787	5.41
730.103	4.08
730.419	4.71
730.734	5.28
731.05	4.37
731.365	4.41
731.681	5.07
731.996	4.19
732.311	5.55
732.626	3.06
732.942	3.63
733.257	5.16
733.572	4
733.887	4.73
734.202	4.57
734.517	5.3
734.832	5.46
735.146	4.98
735.461	4.06
735.776	3.35
736.091	4.67
736.405	4.9
736.72	5.68
737.034	3.94
737.349	3.52
737.663	5.67
737.977	4.9
738.292	5.64
738.606	5
738.92	4.48
739.234	4.06
739.548	2.05
739.862	5.03
740.176	1.8
740.49	3.4
740.804	3.7
741.117	3.84
741.431	3.45
741.745	4.79
742.058	3.13
742.372	3.93
742.685	4.97
742.999	4.66
743.312	3.94
743.626	2.76
743.939	4.32
744.252	4.62
744.565	2.63
744.878	6.77
745.191	3.58
745.505	4.57
745.817	3.34
746.13	4.71
746.443	2.79
746.756	4.37
747.069	3.23
747.381	4.06
747.694	4.69
748.007	5.75
748.319	5.17
748.632	4.6
748.944	4.03
749.256	6.05
749.569	4.44
749.881	3.76
750.193	3.71
750.505	6.43
750.817	5.14
751.129	4.6
751.441	3.99
751.753	7.07
752.065	4.2
752.377	4.21
752.689	5
753	5.1
753.312	3.06
753.624	3.17
753.935	6.28
754.247	4
754.558	5.89
754.869	3.98
755.181	3.76
755.492	5.62
755.803	3.7
756.114	3.46
756.425	5.39
756.736	3.47
757.047	4.64
757.358	4.88
757.669	3.5
757.98	3.29
758.291	6.51
758.601	5.31
758.912	2.85
759.223	4.88
759.533	4.21
759.844	5.97
760.154	5.27
760.464	6.02
760.775	4.1
761.085	4.08
761.395	4.16
761.705	4.35
762.016	3.72
762.326	5.82
762.636	3.38
762.945	4.3
763.255	4.17
763.565	5.46
763.875	5.49
764.185	4.35
764.494	3.86
764.804	3.15
765.113	6.57
765.423	5.61
765.732	5.41
766.042	4.82
766.351	4.74
766.66	2.68
766.97	5.61
767.279	4.74
767.588	6
767.897	3.91
768.206	6.09
768.515	4.42
768.824	5.52
769.133	5.22
769.441	4.35
769.75	4.63
770.059	4.06
770.367	5.68
770.676	3.8
770.984	4.69
771.293	4.25
771.601	6.3
771.91	4.64
772.218	4.79
772.526	5.1
772.834	5.72
773.142	5.15
773.45	5.44
773.758	8.88
774.066	3.29
774.374	2.45
774.682	5.97
774.99	5.09
775.298	4.43
775.605	6.3
775.913	2.63
776.22	2.36
776.528	4.49
776.835	6.88
777.143	7.4
777.45	3.2
777.757	2.38
778.065	5.31
778.372	2.81
778.679	7.59
778.986	6.81
779.293	6.61
779.6	6.44
779.907	6.17
780.214	2.97
780.52	3.34
780.827	4.61
781.134	2.01
781.44	2.8
781.747	5.32
782.053	4.3
782.36	3.06
782.666	3.86
782.973	5.58
783.279	5.29
783.585	6.07
783.891	4.75
784.197	4.58
784.503	7.15
784.809	4.38
785.115	3.96
785.421	6.55
785.727	5.38
786.033	7.97
786.339	4.14
786.644	4.91
786.95	2.86
787.255	2.64
787.561	5.7
787.866	4.72
788.172	11.17
788.477	8.26
788.782	2.8
789.088	4.9
789.393	6.18
789.698	7.67
790.003	4.58
790.308	4.77
790.613	4.23
790.918	2.13
791.223	5.44
791.527	8.16
791.832	5.7
792.137	4.58
792.441	5.85
792.746	7.21
793.05	-0.39
793.355	4.05
793.659	1.33
793.963	3.38
794.268	6.13
794.572	3.37
794.876	6.29
795.18	3.66
795.484	7.7
795.788	6.51
796.092	5.09
796.396	1.57
796.7	4.46
797.004	4.04
797.307	1.1
797.611	8.73
797.915	10.68
798.218	-0.4
798.522	8.02
798.825	4.04
799.128	5.65
799.432	7.39
799.735	7.96
800.038	8.69
800.341	5.11
800.644	1.24
800.947	4.44
801.25	6.77
801.553	1.73
801.856	3.93
802.159	0.87
802.462	3.56
802.764	8.98
803.067	6.23
803.37	5.84
803.672	5.55
803.975	0.49
804.277	2.92
804.579	7.67
804.882	3.76
805.184	3.53
805.486	5.94
805.788	4.87
806.09	4.35
806.392	7.99
806.694	8.09
806.996	8.43
807.298	8.27
807.6	8.47
807.902	6.45
808.203	5.97
808.505	4.77
808.807	5.22
809.108	6.13
809.409	6.71
809.711	3.34
810.012	5.7
810.313	5
810.615	3.04
810.916	8.82
811.217	4.55
811.518	7.09
811.819	8.23
812.12	5.23
812.421	7.31
812.722	4.25
813.023	8.31
813.323	4.61
813.624	6.78
813.925	8.69
814.225	3.87
814.526	9.92
814.826	10.29
815.126	3.62
815.427	0.68
815.727	5.57
816.027	5.64
816.327	3.81
816.627	9.25
816.927	7.07
817.227	-0.89
817.527	9.27
817.827	4.82
818.127	7.65
818.427	1.7
818.727	7.12
819.026	11.31
819.326	5.86
819.625	9
819.925	7.42
820.224	6.87
820.524	6
820.823	6.38
821.122	7.74
821.421	2.65
821.72	1.1
822.019	8.8
822.318	11.1
822.617	5.6
822.916	6.47
823.215	5.78
823.514	2.81
823.813	2.94
824.111	6.1
824.41	6.66
824.709	6.4
825.007	6.88
825.306	6.17
825.604	5.43
825.902	6.45
826.201	6.29
826.499	6.12
826.797	6.73
827.095	5.79
827.393	7.54
827.691	5.06
827.989	7.08
828.287	7.65
828.585	6.39
828.882	5.79
829.18	6.72
829.478	5.47
829.775	5.39
830.073	8.79
830.37	7.27
830.668	5.33
830.965	7.53
831.263	7.42
831.56	6.45
831.857	9.09
832.154	3.18
832.451	9.05
832.748	1.39
833.045	5.07
833.342	5.48
833.639	3.26
833.936	9.67
834.232	8.77
834.529	5.62
834.826	8.1
835.122	6.34
835.419	4.95
835.715	10.45
836.012	6.61
836.308	5
836.604	8.38
836.901	5.15
837.197	6.11
837.493	6.02
837.789	7.66
838.085	5.11
838.381	4.68
838.677	4.72
838.972	9.43
839.268	5.79
839.564	9.04
839.86	8.66
840.155	7.85
840.451	3.17
840.746	5.78
841.042	10.24
841.337	11.21
841.632	7.49
841.928	11.37
842.223	14.04
842.518	7.63
842.813	10.06
843.108	3.54
843.403	1.98
843.698	8.92
843.993	3.08
844.287	10.04
844.582	-1.89
844.877	-0.67
845.171	7.03
845.466	9.48
845.761	4.86
846.055	3.13
846.349	-5.5
846.644	-7.97
846.938	-14.05
847.232	12.05
847.526	2.2
847.82	10.09
848.114	3.76
848.408	14.97
848.702	17.68
848.996	7.82
849.29	15.79
849.584	7.84
849.877	3.39
850.171	1.56
850.465	-2.85
850.758	-2.42
851.052	9.44
851.345	15.43
851.638	17.31
851.932	21.82
852.225	7.54
852.518	-2.49
852.811	9.24
853.104	3.7
853.397	15.9
853.69	5.32
853.983	-16.87
854.276	-8.07
854.569	12.67
854.861	16.57
855.154	8.59
855.447	7.7
855.739	19.4
856.032	-10.83
856.324	-6.87
856.616	4.19
856.909	1
857.201	-15.72
857.493	9.25
857.785	15.97
858.077	19.69
858.369	4.14
858.661	23.84
858.953	-20.05
859.245	-7.17
859.537	20.81
859.829	-14.96
860.12	4.84
860.412	16.78
860.703	5.12
860.995	18.07
861.286	18.95
861.578	14.36
861.869	3.74
862.16	0.72
862.452	21.71
862.743	-1.36
863.034	-8.54
863.325	4.18
863.616	-18.3
863.907	-22.5
864.198	4.13
864.488	1.52
864.779	17.25
865.07	-2.89
865.36	-31.61
865.651	1.48
865.941	40.71
866.232	32.39
866.522	-11.1
866.813	11.6
867.103	15.41
867.393	-3.79
867.683	23.21
867.973	-14.6
868.263	-4.1
868.553	-1.09
868.843	-13.78
869.133	-18.63
869.423	7.6
869.713	-34.17
870.002	4.19
870.292	-6.61
870.582	-8.63
870.871	-2
871.161	8.18
871.45	11.18
871.739	34.73
872.029	38.15
872.318	22.26
872.607	11.8
872.896	9.66
873.185	-8.48
873.474	21.57
873.763	2.15
874.052	6.7
874.341	8.87
874.63	6.71
874.918	15.01
875.207	18.14
875.496	-2.41
875.784	-6.04
876.073	-14.93
876.361	10.08
876.649	14.98
876.938	-9.29
877.226	-19.56
877.514	-1.26
877.802	-7.27
878.09	10.74
878.378	17.49
878.666	7.94
878.954	3.1
879.242	6.83
879.53	4.67
879.817	24.14
880.105	-22.29
880.392	28.23
880.68	-8.64
880.967	-12.03
881.255	-0.46
881.542	5.32
881.83	22.29
882.117	18
882.404	-49.75
882.691	2.6
882.978	-9.74
883.265	-30.09
883.552	-11.46
883.839	2.98
884.126	10.75
884.413	4.77
884.699	11.84
884.986	7.01
885.273	8.98
885.559	8.98
885.846	8.98
