Data from 97281_forehead_Reflection__1__52.txt Node

Date: Fri Sep 23 20:06:39 CDT 2022
User: ToomeyLab
Spectrometer: FLMS14357
Trigger mode: 0
Integration Time (sec): 1.000000E-2
Scans to average: 100
Electric dark correction enabled: true
Nonlinearity correction enabled: false
Boxcar width: 0
XAxis mode: Wavelengths
Number of Pixels in Spectrum: 2048
>>>>>Begin Spectral Data<<<<<
189.047	124.65
189.435	124.65
189.823	124.65
190.211	23.47
190.599	7.08
190.987	635.35
191.375	77.63
191.763	6.71
192.151	-142.99
192.538	243.64
192.926	56.91
193.314	172.18
193.702	117.98
194.089	-146.67
194.477	53.22
194.864	-101.55
195.252	453.42
195.639	-201.08
196.027	15.35
196.414	172.07
196.801	118.31
197.189	-31.28
197.576	95.72
197.963	12.54
198.351	45.42
198.738	18.86
199.125	26.28
199.512	60.14
199.899	57.97
200.286	-2.04
200.673	42.61
201.06	58.29
201.447	42.41
201.833	5.55
202.22	14.41
202.607	10.67
202.994	8.88
203.38	-45.78
203.767	-14.38
204.154	25.34
204.54	26.02
204.927	44.8
205.313	49.09
205.699	-33.21
206.086	2.11
206.472	56.75
206.858	53.95
207.245	16.76
207.631	13.32
208.017	13.66
208.403	45.32
208.789	51.66
209.175	22.16
209.561	20.59
209.947	-4.74
210.333	-25.24
210.719	2.94
211.105	32.39
211.491	-4.38
211.876	4.98
212.262	1.52
212.648	-1.96
213.034	-35.66
213.419	19.91
213.805	37.47
214.19	-10.05
214.576	8.19
214.961	27.27
215.346	-16.79
215.732	17.74
216.117	33.45
216.502	11.27
216.888	6.27
217.273	25.8
217.658	-9.56
218.043	26.04
218.428	17.67
218.813	15.41
219.198	2.22
219.583	8.36
219.968	26.81
220.353	15.55
220.738	14.91
221.122	15.21
221.507	11.68
221.892	14.21
222.276	12.51
222.661	-15.43
223.046	9.38
223.43	-1.94
223.815	6.11
224.199	-7.59
224.583	7.84
224.968	-2.58
225.352	8.19
225.736	-1.32
226.121	12.16
226.505	3.51
226.889	4.24
227.273	-3.61
227.657	1.08
228.041	2.23
228.425	9.36
228.809	4.61
229.193	4
229.577	6.52
229.961	2.93
230.344	2.39
230.728	2.89
231.112	2.29
231.495	3.14
231.879	1.61
232.263	3.14
232.646	2.99
233.03	1.88
233.413	3.39
233.797	3.61
234.18	6.53
234.563	0.7
234.946	5.06
235.33	2.33
235.713	4.47
236.096	0.97
236.479	1.14
236.862	3.64
237.245	4.14
237.628	3.48
238.011	4.89
238.394	4.46
238.777	4.39
239.16	3.02
239.543	2.56
239.925	3.23
240.308	3.59
240.691	4.37
241.073	2.17
241.456	3.37
241.838	4.95
242.221	4.38
242.603	4.28
242.986	3.03
243.368	3.81
243.75	3.17
244.133	3.62
244.515	2.78
244.897	3.72
245.279	3.73
245.661	4.38
246.043	3.4
246.425	3.39
246.807	2.97
247.189	4.3
247.571	3.25
247.953	3.17
248.335	3.44
248.717	3.72
249.098	3.06
249.48	3.57
249.862	3.33
250.243	3.84
250.625	3.62
251.006	3.77
251.388	3.47
251.769	3.53
252.151	2.53
252.532	3.86
252.913	3.95
253.295	3.72
253.676	3.71
254.057	3.4
254.438	3.6
254.819	3.73
255.2	3.64
255.581	4.77
255.962	2.84
256.343	4.16
256.724	2.8
257.105	2.53
257.486	2.93
257.867	2.91
258.247	4.35
258.628	2.97
259.009	3.5
259.389	4.1
259.77	2.87
260.15	3.4
260.531	3.42
260.911	3.82
261.292	3.28
261.672	3.11
262.052	3.2
262.432	3.06
262.813	3.42
263.193	3.36
263.573	3.92
263.953	2.98
264.333	3.88
264.713	3.72
265.093	3.94
265.473	3.44
265.853	2.79
266.233	3.12
266.612	3.52
266.992	3.77
267.372	3.11
267.752	3.13
268.131	3.59
268.511	3.45
268.89	2.94
269.27	3.65
269.649	3.11
270.029	3.46
270.408	3.74
270.787	3.24
271.167	3.38
271.546	3.27
271.925	3.23
272.304	4.23
272.683	3.22
273.062	2.93
273.441	3.24
273.82	3.42
274.199	3.16
274.578	3.16
274.957	3.1
275.336	3.05
275.715	2.99
276.093	4.15
276.472	3.89
276.851	4.04
277.229	3.11
277.608	2.96
277.986	3.02
278.365	3.28
278.743	4
279.122	3.2
279.5	2.99
279.878	3.15
280.257	3.36
280.635	2.98
281.013	3.02
281.391	3.22
281.769	3.31
282.147	3.29
282.525	3.21
282.903	2.9
283.281	3.22
283.659	3.52
284.037	3.57
284.415	3.16
284.792	3.13
285.17	3.11
285.548	3.01
285.925	3.44
286.303	3.75
286.68	3.07
287.058	3.38
287.435	2.83
287.813	3.5
288.19	3.43
288.567	3.62
288.945	3.3
289.322	3.57
289.699	3.73
290.076	3.47
290.453	3.55
290.83	3.47
291.207	3.83
291.584	3.59
291.961	3.24
292.338	3.79
292.715	3.37
293.092	3.58
293.469	3.86
293.845	3.91
294.222	4.29
294.599	3.55
294.975	4.23
295.352	4.16
295.728	3.98
296.105	3.67
296.481	4.27
296.858	3.92
297.234	4.07
297.61	4.04
297.986	3.92
298.363	4.18
298.739	4.05
299.115	4.01
299.491	3.96
299.867	3.89
300.243	3.94
300.619	4.4
300.995	4.46
301.371	3.71
301.746	4.66
302.122	4.34
302.498	4.43
302.874	4.15
303.249	4.63
303.625	4.44
304	4.46
304.376	4.57
304.751	4.42
305.127	4.3
305.502	4.74
305.878	4.65
306.253	5
306.628	4.25
307.003	4.68
307.378	4.72
307.754	4.94
308.129	4.9
308.504	4.79
308.879	4.83
309.254	4.89
309.629	5.03
310.003	5.32
310.378	4.89
310.753	5.14
311.128	4.78
311.502	4.83
311.877	4.76
312.252	4.82
312.626	5.35
313.001	5.09
313.375	5.17
313.75	5.17
314.124	5.12
314.498	5.4
314.873	5.9
315.247	5.18
315.621	5.54
315.995	5.72
316.369	5.5
316.743	5.23
317.117	5.25
317.491	5.46
317.865	5.77
318.239	6.5
318.613	5.89
318.987	5.39
319.361	5.53
319.734	6.28
320.108	6.01
320.482	6.1
320.855	5.79
321.229	5.96
321.602	5.8
321.976	6.66
322.349	5.9
322.723	6.64
323.096	6.49
323.469	5.89
323.843	5.52
324.216	6.54
324.589	6.59
324.962	6.68
325.335	5.81
325.708	6.67
326.081	6.44
326.454	6.35
326.827	6.06
327.2	6.2
327.573	6.69
327.945	6.82
328.318	5.71
328.691	6.58
329.063	6.69
329.436	6.66
329.809	7.24
330.181	6.94
330.553	6.67
330.926	6.58
331.298	6.95
331.671	6.71
332.043	6.67
332.415	6.73
332.787	6.56
333.159	7.39
333.532	6.61
333.904	6.89
334.276	6.95
334.648	7.05
335.02	7.12
335.391	7.19
335.763	6.87
336.135	7.14
336.507	7.47
336.879	7.32
337.25	7.35
337.622	7.3
337.993	7.49
338.365	7.45
338.736	7.9
339.108	7.52
339.479	7.13
339.851	7.77
340.222	7.82
340.593	7.19
340.964	7.4
341.336	7.71
341.707	8.27
342.078	7.21
342.449	7.72
342.82	7.86
343.191	7.57
343.562	7.54
343.933	8.28
344.303	8.03
344.674	8.26
345.045	7.89
345.416	7.99
345.786	8.24
346.157	7.85
346.527	7.78
346.898	8.31
347.268	8.22
347.639	8.14
348.009	7.98
348.38	8.01
348.75	7.87
349.12	8.51
349.49	8.91
349.861	8.45
350.231	8.32
350.601	8.06
350.971	8.43
351.341	8.43
351.711	8.53
352.081	7.9
352.45	8.12
352.82	7.97
353.19	8.6
353.56	8.68
353.929	8.44
354.299	8.71
354.669	8.63
355.038	8.81
355.408	8.53
355.777	8.86
356.147	8.56
356.516	8.98
356.885	8.94
357.254	8.38
357.624	8.53
357.993	8.56
358.362	8.51
358.731	8.67
359.1	8.68
359.469	8.51
359.838	8.93
360.207	9.31
360.576	9.18
360.945	8.84
361.314	8.71
361.682	8.98
362.051	9.22
362.42	9.32
362.788	9.31
363.157	9.12
363.525	9.23
363.894	9.25
364.262	8.81
364.631	9.42
364.999	9.5
365.367	8.92
365.735	9.41
366.104	9.6
366.472	9.3
366.84	9.55
367.208	9.88
367.576	9.45
367.944	9.44
368.312	10
368.68	9.75
369.048	9.64
369.416	9.54
369.783	9.59
370.151	9.75
370.519	9.69
370.886	9.68
371.254	9.97
371.621	10.11
371.989	9.77
372.356	9.99
372.724	9.77
373.091	10.1
373.458	10.05
373.826	10.03
374.193	10.27
374.56	9.97
374.927	10.33
375.294	10.41
375.661	9.94
376.028	10.18
376.395	10.44
376.762	10.36
377.129	10.19
377.496	10.55
377.863	10.66
378.229	10.41
378.596	10.25
378.963	10.74
379.329	10.49
379.696	10.37
380.062	10.39
380.429	10.31
380.795	10.72
381.161	10.75
381.528	10.93
381.894	10.55
382.26	10.66
382.626	10.61
382.993	10.8
383.359	10.66
383.725	11.27
384.091	11.03
384.457	10.99
384.823	10.69
385.188	11.32
385.554	11.06
385.92	11.1
386.286	11.16
386.651	11.33
387.017	11.47
387.383	11.34
387.748	11.13
388.114	11.09
388.479	11.1
388.845	11.21
389.21	11.14
389.575	11.16
389.94	11.18
390.306	11.19
390.671	11.44
391.036	11.33
391.401	11.46
391.766	11.59
392.131	11.48
392.496	11.4
392.861	11.67
393.226	11.74
393.591	11.6
393.956	11.69
394.32	11.8
394.685	11.56
395.05	11.96
395.414	11.67
395.779	11.61
396.143	11.61
396.508	11.59
396.872	11.77
397.236	11.93
397.601	11.74
397.965	12.16
398.329	12.12
398.694	11.85
399.058	11.97
399.422	12.06
399.786	11.99
400.15	11.95
400.514	11.77
400.878	12.03
401.242	11.93
401.605	12.41
401.969	12.31
402.333	12.24
402.697	11.9
403.06	12.35
403.424	12.02
403.787	12.19
404.151	12.22
404.514	12.33
404.878	12.37
405.241	12.37
405.604	12.23
405.968	12.33
406.331	12.36
406.694	12.57
407.057	12.43
407.42	12.33
407.783	12.35
408.146	12.52
408.509	12.37
408.872	12.73
409.235	12.73
409.598	12.65
409.961	12.89
410.323	12.63
410.686	12.63
411.049	12.87
411.411	12.76
411.774	12.54
412.136	12.82
412.499	12.67
412.861	12.65
413.223	12.7
413.586	12.89
413.948	12.98
414.31	12.64
414.672	12.93
415.035	13.05
415.397	13.25
415.759	13.26
416.121	13.11
416.483	13.22
416.845	12.81
417.206	13.19
417.568	13.21
417.93	13.1
418.292	13.17
418.653	13.1
419.015	13.07
419.377	13.15
419.738	12.97
420.1	13.12
420.461	13.07
420.822	13.24
421.184	13.17
421.545	13.25
421.906	13.34
422.267	13.1
422.629	13.18
422.99	13.22
423.351	13.2
423.712	13.27
424.073	13.18
424.434	13.39
424.795	13.37
425.155	13.42
425.516	13.39
425.877	13.47
426.238	13.5
426.598	13.52
426.959	13.62
427.32	13.63
427.68	13.74
428.041	13.71
428.401	13.79
428.761	14.1
429.122	13.87
429.482	14.06
429.842	14.12
430.202	14.11
430.563	14.15
430.923	14.1
431.283	14.21
431.643	14.22
432.003	14.3
432.363	14.47
432.722	14.42
433.082	14.41
433.442	14.45
433.802	14.42
434.161	14.45
434.521	14.48
434.881	14.26
435.24	14.39
435.6	14.56
435.959	14.55
436.319	14.42
436.678	14.62
437.037	14.73
437.396	14.81
437.756	14.83
438.115	14.72
438.474	14.78
438.833	14.9
439.192	14.86
439.551	14.81
439.91	14.84
440.269	14.92
440.628	14.81
440.987	14.94
441.345	14.82
441.704	14.89
442.063	15.03
442.421	14.82
442.78	14.88
443.138	14.99
443.497	15
443.855	15.03
444.214	15.28
444.572	15.12
444.93	15.31
445.288	15.32
445.647	15.45
446.005	15.35
446.363	15.4
446.721	15.19
447.079	15.19
447.437	15.34
447.795	15.15
448.153	15.15
448.51	15.2
448.868	15.19
449.226	15.3
449.584	15.41
449.941	15.53
450.299	15.57
450.656	15.68
451.014	15.66
451.371	15.78
451.729	15.59
452.086	15.78
452.443	15.89
452.801	15.78
453.158	15.98
453.515	15.96
453.872	15.98
454.229	16.03
454.586	16
454.943	16.05
455.3	15.97
455.657	16.24
456.014	16.14
456.371	16.09
456.727	16.41
457.084	16.18
457.441	16.36
457.797	16.25
458.154	16.44
458.51	16.32
458.867	16.36
459.223	16.67
459.58	16.53
459.936	16.46
460.292	16.23
460.648	16.54
461.005	16.56
461.361	16.3
461.717	16.29
462.073	16.36
462.429	16.25
462.785	16.6
463.141	16.61
463.496	16.73
463.852	16.68
464.208	16.62
464.564	16.9
464.919	16.88
465.275	16.96
465.631	16.95
465.986	16.86
466.342	17.11
466.697	17.06
467.052	17.29
467.408	17.15
467.763	17.15
468.118	17.2
468.473	17.25
468.829	17.02
469.184	17.26
469.539	17.06
469.894	17.43
470.249	17.47
470.603	17.42
470.958	17.41
471.313	17.57
471.668	17.39
472.023	17.46
472.377	17.65
472.732	17.45
473.086	17.48
473.441	17.69
473.795	17.68
474.15	17.75
474.504	17.64
474.859	17.8
475.213	17.81
475.567	17.52
475.921	17.8
476.275	17.81
476.63	17.77
476.984	18.07
477.338	17.96
477.692	17.87
478.045	17.82
478.399	17.93
478.753	17.92
479.107	17.92
479.461	17.9
479.814	17.98
480.168	17.96
480.521	17.92
480.875	18.04
481.228	18.17
481.582	18.1
481.935	17.99
482.289	18.22
482.642	17.9
482.995	18.08
483.348	17.91
483.701	18.07
484.055	17.94
484.408	17.84
484.761	17.71
485.114	17.53
485.466	17.42
485.819	17.34
486.172	17.38
486.525	17.56
486.878	17.63
487.23	17.74
487.583	17.81
487.936	18.05
488.288	17.97
488.641	17.77
488.993	17.73
489.345	17.74
489.698	17.76
490.05	17.82
490.402	17.88
490.754	18.02
491.107	18.19
491.459	18.3
491.811	18.45
492.163	18.53
492.515	18.46
492.866	18.34
493.218	18.12
493.57	18.1
493.922	18.18
494.274	18.34
494.625	18.44
494.977	18.67
495.328	18.72
495.68	18.86
496.031	19.1
496.383	19.24
496.734	19.21
497.086	19.4
497.437	19.32
497.788	19.29
498.139	19.15
498.49	19.06
498.842	19.11
499.193	19.1
499.544	19.14
499.894	19.24
500.245	19.35
500.596	19.28
500.947	19.31
501.298	19.41
501.648	19.52
501.999	19.66
502.35	19.74
502.7	19.54
503.051	19.66
503.401	19.76
503.752	19.8
504.102	19.74
504.452	19.77
504.803	19.73
505.153	19.97
505.503	19.62
505.853	19.88
506.203	19.98
506.553	19.93
506.903	19.92
507.253	19.94
507.603	19.94
507.953	19.98
508.303	19.83
508.652	20.02
509.002	20.17
509.352	20.19
509.701	19.98
510.051	20.19
510.4	20.06
510.75	19.99
511.099	20
511.449	19.95
511.798	20.1
512.147	20.07
512.496	20.16
512.846	20.27
513.195	20.23
513.544	20.39
513.893	20.14
514.242	20.22
514.591	20.19
514.939	20.36
515.288	20.44
515.637	20.38
515.986	20.43
516.334	20.34
516.683	20.68
517.032	20.57
517.38	20.75
517.729	20.78
518.077	20.57
518.426	20.6
518.774	20.58
519.122	20.56
519.47	20.49
519.819	20.56
520.167	20.41
520.515	20.37
520.863	20.46
521.211	20.42
521.559	20.62
521.907	20.67
522.255	20.79
522.602	20.8
522.95	20.92
523.298	20.91
523.645	21.04
523.993	20.92
524.341	21.15
524.688	21.09
525.036	21.17
525.383	21.07
525.73	21.16
526.078	21.19
526.425	21.14
526.772	20.93
527.119	20.99
527.466	20.87
527.814	20.77
528.161	20.88
528.508	20.9
528.854	20.89
529.201	20.83
529.548	20.74
529.895	20.64
530.242	20.52
530.588	20.51
530.935	20.56
531.282	20.73
531.628	20.67
531.975	20.7
532.321	21.02
532.667	21.02
533.014	21.17
533.36	21.22
533.706	21.31
534.052	21.31
534.399	21.15
534.745	21.21
535.091	20.92
535.437	20.98
535.783	21.16
536.129	21.19
536.474	21.42
536.82	21.48
537.166	21.54
537.512	21.52
537.857	21.67
538.203	21.61
538.549	21.47
538.894	21.63
539.239	21.55
539.585	21.76
539.93	21.86
540.276	22.11
540.621	22.08
540.966	22.03
541.311	22.09
541.656	21.91
542.001	22.02
542.346	21.83
542.691	21.65
543.036	21.42
543.381	21.58
543.726	21.56
544.071	21.58
544.415	21.73
544.76	21.8
545.105	21.92
545.449	21.95
545.794	22.12
546.138	22.18
546.483	22.31
546.827	22.38
547.171	22.43
547.516	22.36
547.86	22.38
548.204	22.38
548.548	22.29
548.892	22.33
549.236	22.54
549.58	22.48
549.924	22.78
550.268	22.92
550.612	22.79
550.956	22.81
551.3	22.88
551.643	22.87
551.987	23.19
552.33	22.99
552.674	23.04
553.017	23.21
553.361	23.18
553.704	23.23
554.048	23.02
554.391	22.9
554.734	23.33
555.077	23.01
555.42	23.18
555.764	23.07
556.107	23.32
556.45	23.6
556.793	23.19
557.135	23.45
557.478	23.61
557.821	23.38
558.164	23.56
558.507	23.41
558.849	23.71
559.192	23.61
559.534	23.63
559.877	23.52
560.219	23.74
560.562	23.81
560.904	23.94
561.246	23.65
561.589	23.81
561.931	23.7
562.273	23.93
562.615	24.08
562.957	23.9
563.299	23.79
563.641	23.92
563.983	23.94
564.325	23.84
564.667	23.97
565.008	23.9
565.35	24.02
565.692	23.9
566.033	23.99
566.375	24.29
566.716	24.11
567.058	24.2
567.399	23.91
567.741	24
568.082	23.89
568.423	23.97
568.764	24.04
569.105	24.13
569.447	24
569.788	24.1
570.129	24.08
570.47	24.21
570.811	24.23
571.151	24.45
571.492	24.24
571.833	24.42
572.174	24.27
572.514	24.43
572.855	24.35
573.195	24.22
573.536	24.33
573.876	24.2
574.217	24.24
574.557	24.25
574.898	24.16
575.238	24.36
575.578	24.41
575.918	24.36
576.258	24.48
576.598	24.45
576.938	24.55
577.278	24.61
577.618	24.8
577.958	24.74
578.298	24.62
578.638	24.58
578.977	24.87
579.317	25.11
579.657	24.96
579.996	24.66
580.336	24.74
580.675	25.07
581.014	24.79
581.354	25.21
581.693	25.12
582.032	25.35
582.372	25.18
582.711	25.27
583.05	25.24
583.389	25.35
583.728	25.37
584.067	25.52
584.406	25.14
584.745	25.46
585.083	25.39
585.422	25.33
585.761	25.39
586.1	25.27
586.438	25.31
586.777	25.51
587.115	25.73
587.454	25.28
587.792	25.48
588.13	25.55
588.469	25.61
588.807	25.22
589.145	25.49
589.483	25.63
589.821	25.71
590.159	25.59
590.497	25.73
590.835	25.44
591.173	25.69
591.511	25.71
591.849	25.52
592.187	25.45
592.524	26.08
592.862	25.95
593.2	25.84
593.537	25.74
593.875	25.69
594.212	26.27
594.55	25.93
594.887	25.69
595.224	26.06
595.561	25.97
595.899	25.83
596.236	25.83
596.573	26.11
596.91	25.85
597.247	25.81
597.584	26.13
597.921	26.08
598.258	25.66
598.594	25.92
598.931	25.88
599.268	25.78
599.604	25.83
599.941	25.97
600.277	26.23
600.614	25.87
600.95	25.92
601.287	26.3
601.623	26.07
601.959	26.26
602.296	26.28
602.632	26.04
602.968	25.99
603.304	26.59
603.64	26.34
603.976	26.34
604.312	26.28
604.648	26.87
604.984	26.25
605.319	26.24
605.655	26.18
605.991	26.44
606.326	26.2
606.662	26.37
606.998	26.43
607.333	26.53
607.668	26.42
608.004	26.32
608.339	26.55
608.674	26.61
609.01	26.53
609.345	26.72
609.68	26.82
610.015	27.14
610.35	26.77
610.685	26.49
611.02	26.54
611.355	26.6
611.689	26.76
612.024	26.64
612.359	26.7
612.694	27.01
613.028	26.79
613.363	27.12
613.697	27.08
614.032	26.66
614.366	27.19
614.7	27.07
615.035	27.24
615.369	27.37
615.703	27.09
616.037	27.55
616.371	27
616.705	27.05
617.039	26.96
617.373	27.4
617.707	27.07
618.041	27.17
618.375	27.51
618.709	27.09
619.042	27.57
619.376	27.36
619.71	27.4
620.043	27.24
620.377	27.31
620.71	27.23
621.043	27.39
621.377	26.99
621.71	27.58
622.043	27.21
622.376	27.47
622.709	27.35
623.043	27.61
623.376	27.85
623.709	27.84
624.041	28.07
624.374	27.66
624.707	27.8
625.04	27.79
625.373	27.78
625.705	27.6
626.038	27.74
626.37	27.88
626.703	27.87
627.035	27.88
627.368	27.65
627.7	27.78
628.032	27.4
628.365	27.88
628.697	27.98
629.029	27.93
629.361	27.93
629.693	28.2
630.025	28.14
630.357	27.83
630.689	27.89
631.021	27.95
631.353	28.18
631.684	27.87
632.016	28.39
632.348	28.19
632.679	27.8
633.011	28.34
633.342	28.23
633.674	28.05
634.005	27.95
634.336	28.37
634.668	28.12
634.999	27.97
635.33	28.18
635.661	28.31
635.992	28.14
636.323	28.1
636.654	28.64
636.985	28.38
637.316	28.72
637.647	28.27
637.977	28.19
638.308	28.2
638.639	28.09
638.969	28.64
639.3	28.23
639.63	27.94
639.961	28.64
640.291	28.39
640.622	28.5
640.952	28.45
641.282	28.63
641.612	28.44
641.943	28.64
642.273	28.68
642.603	29.48
642.933	29.22
643.263	28.63
643.592	28.64
643.922	29.16
644.252	29.17
644.582	29.39
644.911	28.71
645.241	29
645.571	28.82
645.9	28.89
646.23	29.44
646.559	28.98
646.888	29.37
647.218	29.11
647.547	29.03
647.876	28.82
648.205	28.8
648.534	28.89
648.863	29.06
649.192	29.09
649.521	29.36
649.85	28.98
650.179	28.99
650.508	29.39
650.837	29.74
651.165	30.03
651.494	29.23
651.822	29.12
652.151	29.07
652.479	29.14
652.808	28.8
653.136	28.72
653.465	29.25
653.793	29.49
654.121	29.43
654.449	29.67
654.777	29.26
655.105	29.74
655.433	29.12
655.761	29.76
656.089	29.81
656.417	29.04
656.745	29.64
657.073	29.41
657.4	29.6
657.728	29.51
658.056	29.8
658.383	29.97
658.711	30.01
659.038	29.36
659.365	29.39
659.693	30.02
660.02	30.19
660.347	29.16
660.674	29.31
661.001	30.12
661.329	29.9
661.656	30.29
661.982	29.86
662.309	30.21
662.636	30.19
662.963	29.94
663.29	30.06
663.616	30.13
663.943	30.03
664.27	29.95
664.596	29.81
664.923	30.43
665.249	30.57
665.576	30.31
665.902	29.63
666.228	30.57
666.554	29.81
666.881	29.63
667.207	30.56
667.533	30.11
667.859	29.79
668.185	30.18
668.511	29.94
668.837	30.23
669.162	30.77
669.488	29.85
669.814	30.35
670.139	30.86
670.465	30.29
670.791	30.66
671.116	30.29
671.442	30.81
671.767	30.09
672.092	30.18
672.418	30.65
672.743	30.63
673.068	30.36
673.393	29.78
673.718	30.16
674.043	30.44
674.368	30.85
674.693	30.8
675.018	30.56
675.343	30.76
675.667	30.37
675.992	30.82
676.317	30.89
676.641	29.91
676.966	30.69
677.29	31.05
677.615	31.28
677.939	30.7
678.264	30.84
678.588	30.74
678.912	30.51
679.236	31.27
679.56	30.86
679.885	30.88
680.209	31.3
680.532	30.84
680.856	31.44
681.18	30.71
681.504	30.83
681.828	31.25
682.152	31.07
682.475	30.96
682.799	31.01
683.122	30.47
683.446	30.93
683.769	31.28
684.093	31.26
684.416	31.04
684.739	31.14
685.062	31.09
685.386	31.04
685.709	31.26
686.032	31.39
686.355	31.54
686.678	31.43
687.001	31.76
687.324	31.85
687.646	31.44
687.969	32.14
688.292	30.94
688.614	31.62
688.937	31.46
689.26	31.23
689.582	31.09
689.904	31.47
690.227	31.45
690.549	30.68
690.871	32.32
691.194	31.36
691.516	31.59
691.838	31.45
692.16	31.55
692.482	31.87
692.804	31.63
693.126	32.34
693.448	30.98
693.769	31.52
694.091	30.73
694.413	31.56
694.735	31.62
695.056	31.48
695.378	31.97
695.699	31.95
696.021	31.81
696.342	32.38
696.663	31.82
696.984	31.84
697.306	32.18
697.627	31.74
697.948	31.5
698.269	32
698.59	32.1
698.911	31.66
699.232	31.95
699.553	31.21
699.873	31.98
700.194	32.07
700.515	31.62
700.835	32.02
701.156	31.88
701.477	31.93
701.797	32.15
702.117	32.1
702.438	31.53
702.758	32.02
703.078	32.04
703.398	32.85
703.719	31.71
704.039	31.62
704.359	32.46
704.679	31.83
704.999	32.02
705.319	31.97
705.638	32.27
705.958	32.1
706.278	32.36
706.597	34.16
706.917	32.5
707.237	32.33
707.556	33.04
707.876	32.48
708.195	32.02
708.514	32.18
708.834	31.31
709.153	32.35
709.472	32.32
709.791	32.06
710.11	32.89
710.429	31.95
710.748	32.55
711.067	32.19
711.386	31.84
711.705	32.02
712.023	32.98
712.342	32.97
712.661	32.96
712.979	32.15
713.298	32.83
713.616	32.45
713.935	32.5
714.253	33.41
714.572	32.47
714.89	32.26
715.208	32.51
715.526	33.28
715.844	32.23
716.162	32.7
716.48	33.25
716.798	32.31
717.116	33.08
717.434	32.72
717.752	32.9
718.069	33.83
718.387	33.18
718.705	32.32
719.022	32.52
719.34	32.19
719.657	33.08
719.975	33.21
720.292	32.58
720.609	32.49
720.927	33.51
721.244	33.37
721.561	33.57
721.878	33.02
722.195	33.79
722.512	33.27
722.829	32.29
723.146	35.02
723.463	32.42
723.779	33.64
724.096	32.75
724.413	33.38
724.729	32.33
725.046	33.6
725.362	34.09
725.679	32.23
725.995	32.02
726.311	32.23
726.628	31.81
726.944	34.01
727.26	33.06
727.576	33.61
727.892	32.41
728.208	32.35
728.524	33.11
728.84	33.48
729.156	32.72
729.472	34.03
729.787	34.46
730.103	34.23
730.419	34.02
730.734	34.58
731.05	34.43
731.365	32.11
731.681	33.46
731.996	33.17
732.311	33.64
732.626	33.42
732.942	32.81
733.257	33.48
733.572	34.01
733.887	34.59
734.202	33.45
734.517	34.08
734.832	34.08
735.146	33.95
735.461	33.9
735.776	34.16
736.091	34.32
736.405	33.24
736.72	33.44
737.034	33.34
737.349	31.67
737.663	34.52
737.977	34.12
738.292	33.79
738.606	35.69
738.92	33.88
739.234	33.72
739.548	34.15
739.862	34.38
740.176	32.72
740.49	33.87
740.804	33.93
741.117	32.69
741.431	34.81
741.745	34.53
742.058	33.16
742.372	34.68
742.685	34.51
742.999	34.64
743.312	33.9
743.626	34.32
743.939	35.52
744.252	33.68
744.565	33.71
744.878	34.21
745.191	34.24
745.505	34.12
745.817	33.97
746.13	33.41
746.443	35.47
746.756	35.22
747.069	35.04
747.381	33.66
747.694	34.91
748.007	35.42
748.319	35.33
748.632	34.89
748.944	33.66
749.256	33.83
749.569	34
749.881	33.19
750.193	35.22
750.505	34.89
750.817	34.55
751.129	33.83
751.441	34.5
751.753	35.54
752.065	35.86
752.377	33.02
752.689	35.01
753	37.23
753.312	33.75
753.624	35.37
753.935	34.88
754.247	35.46
754.558	37.15
754.869	36.51
755.181	34.35
755.492	36.86
755.803	33.73
756.114	34.74
756.425	33.88
756.736	34.56
757.047	34.73
757.358	35.48
757.669	32.84
757.98	34.7
758.291	35.41
758.601	35.97
758.912	34.48
759.223	34.45
759.533	34.69
759.844	35.94
760.154	35.98
760.464	36.12
760.775	34.48
761.085	34.96
761.395	34.51
761.705	36.72
762.016	36.78
762.326	35.94
762.636	33.18
762.945	35.18
763.255	35.8
763.565	35.21
763.875	36.09
764.185	34.08
764.494	36.27
764.804	33.47
765.113	35.92
765.423	36.49
765.732	35.07
766.042	35.83
766.351	35.2
766.66	34.38
766.97	35.95
767.279	35.49
767.588	35.73
767.897	36.1
768.206	35.76
768.515	34.95
768.824	37.13
769.133	34.14
769.441	35.18
769.75	34.97
770.059	36.08
770.367	35.62
770.676	35.46
770.984	34.32
771.293	35.44
771.601	36.12
771.91	36.71
772.218	34.7
772.526	34.91
772.834	34.23
773.142	33.85
773.45	38.73
773.758	37.81
774.066	35.43
774.374	35.08
774.682	37.11
774.99	35.46
775.298	36.67
775.605	35.03
775.913	34.95
776.22	34.29
776.528	35.21
776.835	35.33
777.143	32.81
777.45	35.43
777.757	35.82
778.065	37.38
778.372	35.22
778.679	36.41
778.986	38.47
779.293	38.31
779.6	36.09
779.907	34.31
780.214	35.96
780.52	36.88
780.827	39.54
781.134	36.72
781.44	38.02
781.747	36.9
782.053	38.48
782.36	36.32
782.666	32.83
782.973	38.08
783.279	34.7
783.585	36.33
783.891	38.62
784.197	34.47
784.503	37.44
784.809	34.2
785.115	35.72
785.421	38.36
785.727	36.62
786.033	40.66
786.339	35.66
786.644	34.31
786.95	41.92
787.255	36.1
787.561	35.38
787.866	32.61
788.172	39.66
788.477	37.79
788.782	34.99
789.088	35.94
789.393	37.17
789.698	37.25
790.003	38.01
790.308	39.06
790.613	35.88
790.918	34.25
791.223	34.84
791.527	36.33
791.832	34.62
792.137	37.08
792.441	34.45
792.746	37.88
793.05	35.4
793.355	36.33
793.659	35.16
793.963	37.11
794.268	38.83
794.572	38.74
794.876	41.51
795.18	37.12
795.484	36.51
795.788	35.81
796.092	37.97
796.396	38.58
796.7	35.86
797.004	34.27
797.307	35.61
797.611	35.96
797.915	37.87
798.218	39.22
798.522	36.29
798.825	37.5
799.128	36.44
799.432	37.39
799.735	35.26
800.038	38.25
800.341	39.42
800.644	34.1
800.947	38.79
801.25	38.37
801.553	37.7
801.856	34.33
802.159	35.64
802.462	34.82
802.764	40.48
803.067	33.3
803.37	34.37
803.672	37.28
803.975	34.58
804.277	35.04
804.579	38.02
804.882	37.62
805.184	36.31
805.486	37.79
805.788	38.02
806.09	41.85
806.392	37.61
806.694	38.94
806.996	34.8
807.298	39.2
807.6	38.04
807.902	37.59
808.203	35.94
808.505	37.35
808.807	39.7
809.108	40.17
809.409	39.99
809.711	35.88
810.012	35.54
810.313	33.62
810.615	32.45
810.916	36.97
811.217	38.96
811.518	33.61
811.819	38.91
812.12	38.25
812.421	39.76
812.722	35.88
813.023	39.06
813.323	40.74
813.624	41.24
813.925	38.05
814.225	38.4
814.526	38.78
814.826	38.32
815.126	38.76
815.427	42.03
815.727	33.75
816.027	32.39
816.327	40.09
816.627	36.83
816.927	41.98
817.227	38.03
817.527	34.56
817.827	39.54
818.127	36.78
818.427	38.88
818.727	43.59
819.026	41.17
819.326	41.68
819.625	35.76
819.925	39.9
820.224	36.8
820.524	34.68
820.823	37.87
821.122	41.37
821.421	33.59
821.72	40.31
822.019	39.5
822.318	40.6
822.617	40.26
822.916	41.06
823.215	37.39
823.514	33.28
823.813	39.16
824.111	37.91
824.41	36.82
824.709	38.31
825.007	38
825.306	38.61
825.604	37.17
825.902	37.83
826.201	38.72
826.499	38.08
826.797	37.55
827.095	37.81
827.393	38.49
827.691	36.6
827.989	38.38
828.287	38.23
828.585	38.61
828.882	37.23
829.18	37.52
829.478	36.29
829.775	38.67
830.073	39.3
830.37	38.47
830.668	39.02
830.965	38.86
831.263	38.09
831.56	36
831.857	36.99
832.154	39.69
832.451	38.03
832.748	35.18
833.045	41.04
833.342	41.05
833.639	37.63
833.936	37.16
834.232	39.22
834.529	45.45
834.826	34.38
835.122	40.1
835.419	37.54
835.715	38.9
836.012	38.02
836.308	38.41
836.604	39.72
836.901	35.73
837.197	39.66
837.493	35.88
837.789	37.39
838.085	36.26
838.381	37.8
838.677	36.51
838.972	35.38
839.268	37.53
839.564	38.29
839.86	36.75
840.155	44.18
840.451	41.11
840.746	44.8
841.042	39.25
841.337	44.07
841.632	38.41
841.928	44.28
842.223	40.61
842.518	41.11
842.813	40.8
843.108	40.96
843.403	39.76
843.698	38.96
843.993	45.58
844.287	44.59
844.582	32.79
844.877	40.28
845.171	44.62
845.466	44.39
845.761	40.96
846.055	41.42
846.349	33.21
846.644	44.06
846.938	27.76
847.232	34.72
847.526	30.53
847.82	48.3
848.114	26.93
848.408	45.43
848.702	38.92
848.996	40.37
849.29	45.07
849.584	32.73
849.877	29.05
850.171	31.97
850.465	42.14
850.758	24.73
851.052	28.67
851.345	50.71
851.638	35.38
851.932	37
852.225	26.94
852.518	20.62
852.811	42.51
853.104	31.8
853.397	32.11
853.69	39.42
853.983	15.41
854.276	55.46
854.569	37.78
854.861	32.43
855.154	39.41
855.447	42.92
855.739	44.78
856.032	34.91
856.324	45
856.616	28.98
856.909	24.87
857.201	28.09
857.493	39.36
857.785	42.63
858.077	38
858.369	41.05
858.661	48.14
858.953	3.02
859.245	16.37
859.537	55.13
859.829	46.24
860.12	41.63
860.412	34.95
860.703	53.6
860.995	43.71
861.286	50.21
861.578	46.64
861.869	31.51
862.16	31.35
862.452	45.66
862.743	32.1
863.034	28.99
863.325	31.18
863.616	45.29
863.907	36.92
864.198	26.02
864.488	42.21
864.779	24.34
865.07	44.28
865.36	34.05
865.651	37.75
865.941	46.1
866.232	38.84
866.522	34.36
866.813	52.6
867.103	44.37
867.393	12.78
867.683	61.69
867.973	48.39
868.263	55.52
868.553	42.15
868.843	40.01
869.133	35.37
869.423	52.4
869.713	13.84
870.002	17.69
870.292	58.2
870.582	48.58
870.871	38.35
871.161	41.37
871.45	45.3
871.739	63.26
872.029	52.64
872.318	32.46
872.607	31.71
872.896	34.39
873.185	60.42
873.474	34.9
873.763	45.75
874.052	54.32
874.341	22.38
874.63	26.43
874.918	49.43
875.207	60.31
875.496	34.34
875.784	26.32
876.073	37.1
876.361	46.47
876.649	33.12
876.938	57.32
877.226	0.22
877.514	37.9
877.802	33.22
878.09	48.41
878.378	49.94
878.666	47.15
878.954	43.12
879.242	37.94
879.53	32.09
879.817	44.8
880.105	52.88
880.392	48.53
880.68	44.24
880.967	38.54
881.255	40.26
881.542	49.72
881.83	40.44
882.117	41.18
882.404	20.17
882.691	33.56
882.978	40.25
883.265	38.13
883.552	31.22
883.839	22.73
884.126	31.82
884.413	41.37
884.699	46.72
884.986	39.53
885.273	42.36
885.559	42.36
885.846	42.36
