Data from 97281_crown_Reflection__3__59.txt Node

Date: Fri Sep 23 20:08:48 CDT 2022
User: ToomeyLab
Spectrometer: FLMS14357
Trigger mode: 0
Integration Time (sec): 1.000000E-2
Scans to average: 100
Electric dark correction enabled: true
Nonlinearity correction enabled: false
Boxcar width: 0
XAxis mode: Wavelengths
Number of Pixels in Spectrum: 2048
>>>>>Begin Spectral Data<<<<<
189.047	-14.74
189.435	-14.74
189.823	-14.74
190.211	-86.06
190.599	24.89
190.987	320.95
191.375	1273.6
191.763	39.37
192.151	-85.19
192.538	209.68
192.926	137.89
193.314	221.26
193.702	56.54
194.089	-41.32
194.477	101.54
194.864	201.96
195.252	525.91
195.639	-83.97
196.027	99.93
196.414	187.06
196.801	-14.45
197.189	86.26
197.576	79.08
197.963	-104.38
198.351	27.72
198.738	-26.71
199.125	12.87
199.512	1.5
199.899	4.14
200.286	-54.54
200.673	25.93
201.06	4.25
201.447	17.61
201.833	16.91
202.22	7.62
202.607	-0.57
202.994	-31.27
203.38	-83.17
203.767	-74.91
204.154	-16.22
204.54	5.91
204.927	37.78
205.313	14.94
205.699	-0.46
206.086	-23.3
206.472	1.95
206.858	-1.08
207.245	-1.07
207.631	3.31
208.017	6.29
208.403	2.32
208.789	21.94
209.175	-8.05
209.561	15.54
209.947	-14.31
210.333	25.32
210.719	-4.97
211.105	36.17
211.491	15.01
211.876	23.11
212.262	-32.22
212.648	-59.8
213.034	-64.43
213.419	-45
213.805	44.67
214.19	-54.81
214.576	8.76
214.961	10.22
215.346	-29.24
215.732	3.46
216.117	26.82
216.502	3.04
216.888	5.81
217.273	13.34
217.658	-8.41
218.043	3.75
218.428	-26.09
218.813	4.45
219.198	-14.22
219.583	13.38
219.968	14.37
220.353	13.21
220.738	19.32
221.122	-5.42
221.507	14.1
221.892	4.1
222.276	-17.46
222.661	0.18
223.046	-8.5
223.43	-1.9
223.815	14.57
224.199	7.73
224.583	7.94
224.968	-6.61
225.352	7.56
225.736	-6.07
226.121	12.42
226.505	1.64
226.889	0.44
227.273	-3.91
227.657	0.34
228.041	5.68
228.425	7.63
228.809	2.25
229.193	5.14
229.577	4.83
229.961	5.16
230.344	5.3
230.728	4.22
231.112	5.26
231.495	5.39
231.879	2.82
232.263	6.85
232.646	5.77
233.03	6.11
233.413	7.01
233.797	4.88
234.18	7.89
234.563	4.24
234.946	5.4
235.33	4.6
235.713	5.16
236.096	2.56
236.479	3.6
236.862	5.95
237.245	4.46
237.628	4.97
238.011	5.98
238.394	5.31
238.777	4.93
239.16	4.55
239.543	5.17
239.925	7.02
240.308	5.01
240.691	4
241.073	4.78
241.456	5.32
241.838	6.63
242.221	6.03
242.603	5.01
242.986	4.14
243.368	4.7
243.75	4.59
244.133	5.36
244.515	5.01
244.897	5.1
245.279	5.34
245.661	5.59
246.043	6.04
246.425	4.04
246.807	3.58
247.189	4.92
247.571	4.94
247.953	4.41
248.335	4.95
248.717	4.64
249.098	4.66
249.48	5
249.862	4.96
250.243	5.12
250.625	4.81
251.006	5.03
251.388	4.46
251.769	4.82
252.151	3.25
252.532	5.08
252.913	5.47
253.295	4.69
253.676	4.35
254.057	4.82
254.438	4.31
254.819	5.48
255.2	4.72
255.581	5.88
255.962	5.17
256.343	5.82
256.724	4.32
257.105	4.44
257.486	4.13
257.867	3.8
258.247	4.64
258.628	4.68
259.009	4.63
259.389	3.62
259.77	2.76
260.15	3.8
260.531	4.36
260.911	4.03
261.292	4.25
261.672	4.27
262.052	4.23
262.432	4.22
262.813	4.74
263.193	4.25
263.573	4.51
263.953	4.43
264.333	3.95
264.713	4.55
265.093	4.23
265.473	5.2
265.853	3.96
266.233	3.58
266.612	4.28
266.992	4.36
267.372	3.88
267.752	4.28
268.131	3.8
268.511	4.14
268.89	4.24
269.27	4.27
269.649	4
270.029	4.69
270.408	4.89
270.787	3.89
271.167	3.84
271.546	3.86
271.925	4.23
272.304	4.31
272.683	4.39
273.062	3.96
273.441	4.2
273.82	4.04
274.199	4.12
274.578	4.04
274.957	3.84
275.336	4.23
275.715	3.75
276.093	4.81
276.472	5.34
276.851	4.81
277.229	4.32
277.608	4.62
277.986	3.87
278.365	3.66
278.743	4.18
279.122	3.37
279.5	4.03
279.878	3.62
280.257	3.96
280.635	4.07
281.013	4.4
281.391	3.98
281.769	4.43
282.147	3.54
282.525	4.43
282.903	4.14
283.281	4.51
283.659	3.79
284.037	4.17
284.415	3.59
284.792	4.18
285.17	3.72
285.548	4.07
285.925	4.38
286.303	4.84
286.68	4.06
287.058	4.2
287.435	4.02
287.813	4.35
288.19	4.41
288.567	4.45
288.945	4.27
289.322	4.02
289.699	4.24
290.076	3.45
290.453	4.14
290.83	4.11
291.207	3.96
291.584	4.29
291.961	3.89
292.338	3.88
292.715	3.55
293.092	3.72
293.469	4.22
293.845	4.45
294.222	4.32
294.599	4.04
294.975	4.26
295.352	4.26
295.728	4.34
296.105	4.11
296.481	3.83
296.858	3.88
297.234	3.98
297.61	3.86
297.986	4.25
298.363	3.71
298.739	4.33
299.115	4
299.491	3.95
299.867	4.17
300.243	4
300.619	4.24
300.995	4.35
301.371	3.98
301.746	4.34
302.122	3.91
302.498	4.02
302.874	3.76
303.249	4.04
303.625	3.99
304	4.05
304.376	3.87
304.751	3.5
305.127	3.64
305.502	4.19
305.878	4.14
306.253	3.88
306.628	3.93
307.003	3.52
307.378	4.42
307.754	4.69
308.129	3.78
308.504	3.94
308.879	3.88
309.254	3.84
309.629	3.98
310.003	3.9
310.378	3.78
310.753	3.82
311.128	3.77
311.502	3.8
311.877	3.67
312.252	3.71
312.626	3.95
313.001	3.66
313.375	3.98
313.75	3.61
314.124	3.71
314.498	3.78
314.873	4.1
315.247	3.87
315.621	4.38
315.995	4.19
316.369	4.01
316.743	3.73
317.117	3.06
317.491	3.52
317.865	3.66
318.239	3.83
318.613	3.35
318.987	3.1
319.361	3.27
319.734	4.05
320.108	3.26
320.482	3.93
320.855	3.18
321.229	3.78
321.602	4.06
321.976	4.15
322.349	3.4
322.723	3.61
323.096	3.85
323.469	2.87
323.843	3.56
324.216	3.95
324.589	3.67
324.962	3.87
325.335	3.76
325.708	3.45
326.081	3.58
326.454	3.42
326.827	3.42
327.2	3.21
327.573	3.71
327.945	4.07
328.318	3.4
328.691	3.8
329.063	3.64
329.436	3.44
329.809	4.42
330.181	3.81
330.553	3.67
330.926	3.32
331.298	3.68
331.671	3.79
332.043	3.86
332.415	3.5
332.787	3.39
333.159	3.83
333.532	3.39
333.904	3.35
334.276	3.5
334.648	3.9
335.02	3.48
335.391	4.03
335.763	3.43
336.135	3.62
336.507	3.75
336.879	3.9
337.25	3.59
337.622	3.5
337.993	3.81
338.365	3.39
338.736	3.99
339.108	4.11
339.479	3.2
339.851	4.2
340.222	3.73
340.593	3.19
340.964	3.96
341.336	3.24
341.707	3.95
342.078	3.61
342.449	3.89
342.82	3.34
343.191	3.55
343.562	3.79
343.933	4.1
344.303	3.73
344.674	3.84
345.045	3.96
345.416	3.61
345.786	3.77
346.157	3.1
346.527	3.72
346.898	3.68
347.268	3.51
347.639	3.3
348.009	3.34
348.38	3.66
348.75	3.69
349.12	3.68
349.49	3.57
349.861	4.09
350.231	3.23
350.601	3.49
350.971	3.63
351.341	3.58
351.711	3.43
352.081	3.44
352.45	3.48
352.82	3.44
353.19	3.96
353.56	3.38
353.929	3.03
354.299	3.73
354.669	3.75
355.038	3.61
355.408	3.28
355.777	3.58
356.147	3.52
356.516	3.54
356.885	3.5
357.254	3.32
357.624	3.32
357.993	3.62
358.362	3.51
358.731	3.58
359.1	4.01
359.469	3.38
359.838	3.64
360.207	3.64
360.576	3.58
360.945	3.58
361.314	3.44
361.682	3.24
362.051	3.7
362.42	3.84
362.788	3.51
363.157	3.85
363.525	3.61
363.894	3.69
364.262	3.38
364.631	3.84
364.999	3.57
365.367	3.78
365.735	3.94
366.104	3.75
366.472	3.67
366.84	3.7
367.208	3.73
367.576	3.81
367.944	3.56
368.312	3.74
368.68	3.67
369.048	3.53
369.416	3.61
369.783	3.77
370.151	3.6
370.519	3.69
370.886	3.78
371.254	3.59
371.621	3.68
371.989	3.62
372.356	3.96
372.724	3.44
373.091	3.69
373.458	3.41
373.826	3.57
374.193	3.88
374.56	3.76
374.927	3.89
375.294	4.13
375.661	3.76
376.028	3.6
376.395	3.64
376.762	3.58
377.129	3.52
377.496	3.73
377.863	4.15
378.229	3.73
378.596	3.7
378.963	3.63
379.329	3.67
379.696	3.52
380.062	3.58
380.429	3.63
380.795	3.5
381.161	3.85
381.528	3.79
381.894	3.66
382.26	3.57
382.626	3.61
382.993	3.72
383.359	3.6
383.725	3.86
384.091	3.61
384.457	3.74
384.823	3.62
385.188	3.73
385.554	3.95
385.92	4.01
386.286	3.82
386.651	3.83
387.017	4.08
387.383	3.89
387.748	3.63
388.114	3.74
388.479	3.61
388.845	3.86
389.21	3.63
389.575	3.72
389.94	3.74
390.306	3.61
390.671	3.44
391.036	3.62
391.401	3.82
391.766	3.64
392.131	3.84
392.496	3.67
392.861	3.56
393.226	3.65
393.591	3.71
393.956	3.62
394.32	3.79
394.685	3.71
395.05	3.67
395.414	3.76
395.779	3.64
396.143	3.62
396.508	3.72
396.872	3.82
397.236	3.87
397.601	3.81
397.965	3.99
398.329	3.91
398.694	3.88
399.058	3.89
399.422	3.95
399.786	3.79
400.15	3.6
400.514	3.62
400.878	3.73
401.242	3.63
401.605	4.13
401.969	3.95
402.333	3.74
402.697	3.58
403.06	3.76
403.424	3.82
403.787	3.7
404.151	3.61
404.514	3.6
404.878	3.62
405.241	3.78
405.604	3.73
405.968	3.59
406.331	3.64
406.694	3.76
407.057	3.76
407.42	3.94
407.783	3.68
408.146	3.8
408.509	3.9
408.872	3.96
409.235	3.85
409.598	3.9
409.961	3.91
410.323	3.71
410.686	3.7
411.049	3.6
411.411	3.9
411.774	3.53
412.136	3.65
412.499	3.84
412.861	3.76
413.223	3.8
413.586	3.79
413.948	3.8
414.31	3.68
414.672	3.71
415.035	3.73
415.397	3.98
415.759	3.71
416.121	3.88
416.483	3.76
416.845	3.46
417.206	3.57
417.568	3.83
417.93	3.6
418.292	3.77
418.653	3.7
419.015	3.64
419.377	3.7
419.738	3.6
420.1	3.66
420.461	3.68
420.822	3.81
421.184	3.71
421.545	3.68
421.906	3.81
422.267	3.7
422.629	3.59
422.99	3.68
423.351	3.75
423.712	3.73
424.073	3.7
424.434	3.73
424.795	3.93
425.155	3.62
425.516	3.7
425.877	3.63
426.238	3.69
426.598	3.76
426.959	3.7
427.32	3.81
427.68	3.79
428.041	3.74
428.401	3.74
428.761	3.82
429.122	3.89
429.482	3.86
429.842	3.87
430.202	3.8
430.563	3.78
430.923	3.97
431.283	3.92
431.643	3.74
432.003	3.72
432.363	3.92
432.722	3.75
433.082	3.62
433.442	3.67
433.802	3.78
434.161	3.8
434.521	3.84
434.881	3.64
435.24	3.71
435.6	3.72
435.959	3.74
436.319	3.85
436.678	3.8
437.037	4.07
437.396	3.7
437.756	3.74
438.115	3.79
438.474	3.9
438.833	3.95
439.192	3.86
439.551	3.9
439.91	3.75
440.269	3.82
440.628	3.75
440.987	3.74
441.345	3.8
441.704	3.76
442.063	3.79
442.421	3.67
442.78	3.78
443.138	3.79
443.497	3.77
443.855	3.68
444.214	3.77
444.572	3.74
444.93	3.75
445.288	3.75
445.647	3.96
446.005	4
446.363	3.79
446.721	3.73
447.079	3.76
447.437	3.73
447.795	3.73
448.153	3.63
448.51	3.75
448.868	3.71
449.226	3.83
449.584	3.77
449.941	3.82
450.299	3.8
450.656	3.92
451.014	3.91
451.371	3.76
451.729	3.77
452.086	3.9
452.443	3.83
452.801	3.78
453.158	3.83
453.515	3.81
453.872	3.85
454.229	3.92
454.586	3.84
454.943	3.83
455.3	3.78
455.657	3.75
456.014	3.95
456.371	3.76
456.727	3.93
457.084	3.72
457.441	3.86
457.797	3.69
458.154	3.78
458.51	3.8
458.867	3.96
459.223	3.79
459.58	3.92
459.936	3.77
460.292	3.7
460.648	3.82
461.005	3.81
461.361	3.74
461.717	3.74
462.073	3.8
462.429	3.72
462.785	3.97
463.141	3.89
463.496	3.83
463.852	3.94
464.208	3.81
464.564	4.03
464.919	3.95
465.275	3.84
465.631	3.77
465.986	3.62
466.342	3.74
466.697	3.74
467.052	3.94
467.408	3.97
467.763	3.91
468.118	3.81
468.473	3.86
468.829	3.75
469.184	3.83
469.539	3.89
469.894	3.9
470.249	3.76
470.603	3.94
470.958	3.9
471.313	3.89
471.668	3.94
472.023	3.88
472.377	3.79
472.732	3.94
473.086	3.87
473.441	3.92
473.795	3.88
474.15	3.94
474.504	4.04
474.859	3.93
475.213	3.92
475.567	3.77
475.921	3.92
476.275	3.82
476.63	3.88
476.984	4.12
477.338	3.92
477.692	3.79
478.045	3.77
478.399	3.82
478.753	3.97
479.107	3.88
479.461	3.88
479.814	3.79
480.168	3.89
480.521	3.82
480.875	3.84
481.228	4.08
481.582	3.82
481.935	3.81
482.289	3.98
482.642	3.79
482.995	3.91
483.348	3.75
483.701	3.82
484.055	3.76
484.408	3.66
484.761	3.73
485.114	3.52
485.466	3.48
485.819	3.51
486.172	3.61
486.525	3.78
486.878	3.8
487.23	3.84
487.583	3.81
487.936	3.87
488.288	3.76
488.641	3.68
488.993	3.6
489.345	3.7
489.698	3.63
490.05	3.7
490.402	3.73
490.754	3.83
491.107	3.9
491.459	3.78
491.811	3.86
492.163	3.83
492.515	3.76
492.866	3.65
493.218	3.61
493.57	3.63
493.922	3.74
494.274	3.85
494.625	3.87
494.977	3.94
495.328	3.98
495.68	3.95
496.031	3.96
496.383	3.92
496.734	3.97
497.086	4.07
497.437	3.95
497.788	3.9
498.139	3.84
498.49	3.75
498.842	3.83
499.193	4.03
499.544	3.85
499.894	3.91
500.245	3.86
500.596	3.87
500.947	3.71
501.298	3.89
501.648	4.02
501.999	4
502.35	4.02
502.7	3.92
503.051	3.97
503.401	3.94
503.752	3.93
504.102	3.96
504.452	3.91
504.803	3.9
505.153	3.99
505.503	3.88
505.853	4.04
506.203	3.95
506.553	3.97
506.903	4.06
507.253	3.88
507.603	3.97
507.953	3.89
508.303	3.89
508.652	3.96
509.002	3.94
509.352	4
509.701	3.86
510.051	3.86
510.4	3.94
510.75	3.89
511.099	3.87
511.449	3.82
511.798	3.94
512.147	3.88
512.496	3.92
512.846	3.95
513.195	3.94
513.544	4.02
513.893	3.92
514.242	3.86
514.591	3.88
514.939	3.86
515.288	4.05
515.637	3.91
515.986	3.97
516.334	3.85
516.683	4.03
517.032	3.97
517.38	3.93
517.729	3.88
518.077	3.88
518.426	3.92
518.774	3.87
519.122	3.92
519.47	3.89
519.819	3.92
520.167	3.81
520.515	3.76
520.863	3.95
521.211	3.97
521.559	3.89
521.907	3.94
522.255	3.93
522.602	3.98
522.95	4
523.298	3.85
523.645	3.85
523.993	3.91
524.341	3.94
524.688	3.88
525.036	4.06
525.383	3.92
525.73	4.03
526.078	3.94
526.425	4.02
526.772	3.85
527.119	3.89
527.466	3.73
527.814	3.8
528.161	3.9
528.508	3.84
528.854	3.92
529.201	3.78
529.548	3.8
529.895	3.7
530.242	3.56
530.588	3.64
530.935	3.76
531.282	3.81
531.628	3.88
531.975	3.85
532.321	3.91
532.667	3.89
533.014	3.91
533.36	3.89
533.706	3.89
534.052	3.89
534.399	3.83
534.745	3.77
535.091	3.74
535.437	3.86
535.783	3.86
536.129	3.97
536.474	3.9
536.82	3.89
537.166	4.04
537.512	3.88
537.857	3.87
538.203	3.79
538.549	3.79
538.894	3.89
539.239	3.98
539.585	3.84
539.93	3.95
540.276	4.05
540.621	3.91
540.966	3.92
541.311	4.01
541.656	3.81
542.001	3.98
542.346	3.82
542.691	3.72
543.036	3.72
543.381	3.75
543.726	3.82
544.071	3.89
544.415	3.92
544.76	3.91
545.105	4
545.449	3.96
545.794	4.02
546.138	3.96
546.483	3.94
546.827	4.07
547.171	4.03
547.516	3.99
547.86	3.95
548.204	3.86
548.548	3.8
548.892	3.93
549.236	4.02
549.58	4
549.924	4.16
550.268	4.15
550.612	3.99
550.956	4.06
551.3	3.97
551.643	3.91
551.987	4.26
552.33	3.87
552.674	3.98
553.017	4.1
553.361	3.96
553.704	3.92
554.048	4.04
554.391	3.98
554.734	4.05
555.077	3.86
555.42	4.01
555.764	4.01
556.107	4.03
556.45	3.93
556.793	4.01
557.135	4.12
557.478	4.12
557.821	3.96
558.164	4.04
558.507	4.06
558.849	4.21
559.192	4.04
559.534	4.19
559.877	4.05
560.219	3.98
560.562	4.21
560.904	4.26
561.246	4.01
561.589	4.21
561.931	4.13
562.273	4.18
562.615	4.18
562.957	4.01
563.299	4.05
563.641	4.06
563.983	4.09
564.325	4.1
564.667	4.02
565.008	4
565.35	4.17
565.692	4.19
566.033	4.12
566.375	4.19
566.716	4.07
567.058	4.02
567.399	3.77
567.741	4.04
568.082	4.04
568.423	3.89
568.764	4.01
569.105	4.06
569.447	3.96
569.788	4.17
570.129	4.08
570.47	4.22
570.811	4.15
571.151	4.18
571.492	3.96
571.833	4.08
572.174	4
572.514	3.97
572.855	3.91
573.195	3.95
573.536	4.18
573.876	3.87
574.217	3.84
574.557	4.01
574.898	4
575.238	4.12
575.578	4.17
575.918	4.01
576.258	4.1
576.598	4.07
576.938	4.04
577.278	4.05
577.618	4.07
577.958	4.12
578.298	3.99
578.638	3.95
578.977	4.13
579.317	4.27
579.657	4.28
579.996	3.89
580.336	4.11
580.675	4.14
581.014	4.21
581.354	4.24
581.693	4.21
582.032	4.14
582.372	4.36
582.711	4.14
583.05	4.07
583.389	4.21
583.728	4.07
584.067	4.17
584.406	4.07
584.745	3.97
585.083	4.08
585.422	4.07
585.761	3.94
586.1	4
586.438	4.18
586.777	4.34
587.115	4.31
587.454	4.1
587.792	4.27
588.13	4.26
588.469	4.05
588.807	4.1
589.145	4.24
589.483	4.26
589.821	4.24
590.159	4.12
590.497	4.12
590.835	3.99
591.173	4.02
591.511	4.28
591.849	3.87
592.187	4.09
592.524	4.26
592.862	4.42
593.2	4.25
593.537	4.36
593.875	4.07
594.212	4.43
594.55	4.15
594.887	4.25
595.224	4
595.561	4.13
595.899	4.04
596.236	4.06
596.573	4.37
596.91	4.23
597.247	4.12
597.584	4.03
597.921	4.12
598.258	3.87
598.594	3.96
598.931	3.97
599.268	4.12
599.604	4.15
599.941	4.17
600.277	4.18
600.614	4.32
600.95	3.99
601.287	4.12
601.623	4.11
601.959	3.97
602.296	4.08
602.632	4.1
602.968	3.91
603.304	4.17
603.64	4.11
603.976	4.14
604.312	4.02
604.648	4.15
604.984	4.02
605.319	4.18
605.655	4.13
605.991	4.14
606.326	4.06
606.662	4.16
606.998	4.29
607.333	4.16
607.668	4.07
608.004	4.17
608.339	4.17
608.674	4.3
609.01	4.18
609.345	4.21
609.68	4.2
610.015	4.2
610.35	4.13
610.685	3.82
611.02	4.21
611.355	4.17
611.689	4.18
612.024	4.27
612.359	4.15
612.694	4.29
613.028	4.22
613.363	4.63
613.697	4.02
614.032	4.06
614.366	4.21
614.7	3.99
615.035	4.22
615.369	4.5
615.703	4.23
616.037	4.1
616.371	4.17
616.705	4.26
617.039	4.1
617.373	4.66
617.707	4.41
618.041	4.22
618.375	4.63
618.709	4.13
619.042	4.24
619.376	4.28
619.71	4.38
620.043	4.07
620.377	3.95
620.71	4.02
621.043	4.47
621.377	3.93
621.71	4.11
622.043	4.21
622.376	4.21
622.709	4.04
623.043	3.98
623.376	4.32
623.709	4.15
624.041	4.32
624.374	4.14
624.707	4.45
625.04	4.36
625.373	4.32
625.705	4.38
626.038	4.22
626.37	4.19
626.703	3.95
627.035	4.42
627.368	4.16
627.7	4.25
628.032	3.94
628.365	4.08
628.697	4.14
629.029	4.31
629.361	4.41
629.693	4.24
630.025	4.33
630.357	4.39
630.689	4.23
631.021	4.16
631.353	4.42
631.684	4.22
632.016	4.44
632.348	4.25
632.679	4.42
633.011	4.54
633.342	4.31
633.674	4.62
634.005	4.32
634.336	4.53
634.668	4.38
634.999	4.34
635.33	4.01
635.661	4.69
635.992	4.42
636.323	4.41
636.654	4.37
636.985	4.67
637.316	4.29
637.647	4.36
637.977	4.73
638.308	4.28
638.639	4
638.969	4.38
639.3	4.22
639.63	4.4
639.961	4.61
640.291	4.28
640.622	4.3
640.952	4.31
641.282	4.51
641.612	4.12
641.943	4.33
642.273	4.52
642.603	4.33
642.933	4.55
643.263	4.19
643.592	4.24
643.922	4.57
644.252	4.74
644.582	4.63
644.911	4.34
645.241	4.24
645.571	4.5
645.9	4.5
646.23	5.1
646.559	4.07
646.888	4.63
647.218	4.59
647.547	4.39
647.876	4.13
648.205	4.16
648.534	4.35
648.863	4.66
649.192	4.94
649.521	4.25
649.85	4.35
650.179	4.11
650.508	4.08
650.837	4.62
651.165	4.44
651.494	4.15
651.822	4.14
652.151	4.34
652.479	4.23
652.808	4.33
653.136	4.3
653.465	4.31
653.793	4.13
654.121	4.11
654.449	4.02
654.777	4.28
655.105	4.6
655.433	4.61
655.761	4.6
656.089	4.5
656.417	4.17
656.745	4.29
657.073	3.84
657.4	4.53
657.728	4.25
658.056	4.57
658.383	4.2
658.711	4.24
659.038	4.08
659.365	4.27
659.693	4.43
660.02	4.32
660.347	4.39
660.674	4.27
661.001	4.64
661.329	4.35
661.656	4.84
661.982	4.46
662.309	4.64
662.636	4.37
662.963	4.4
663.29	4.7
663.616	4.38
663.943	4.26
664.27	4.25
664.596	4.8
664.923	5.17
665.249	4.82
665.576	5.09
665.902	4.11
666.228	5.12
666.554	4.64
666.881	4.52
667.207	4.29
667.533	4.36
667.859	4.36
668.185	4.64
668.511	4.24
668.837	4.76
669.162	3.9
669.488	4.41
669.814	4.71
670.139	4.09
670.465	5.13
670.791	4.27
671.116	4.1
671.442	4.63
671.767	4.16
672.092	4.18
672.418	4.89
672.743	4.49
673.068	4.15
673.393	4.17
673.718	4.9
674.043	4.39
674.368	4.58
674.693	4.29
675.018	4.94
675.343	5.64
675.667	4.53
675.992	5.18
676.317	5.36
676.641	4.66
676.966	4.64
677.29	4.73
677.615	4.96
677.939	4.64
678.264	3.87
678.588	4.58
678.912	4.37
679.236	3.9
679.56	4.87
679.885	4.77
680.209	4.52
680.532	4.5
680.856	4.89
681.18	5.08
681.504	4.93
681.828	4.92
682.152	5.23
682.475	4.6
682.799	5
683.122	4.86
683.446	4.82
683.769	4.15
684.093	4.83
684.416	4.89
684.739	4.91
685.062	4.61
685.386	4.71
685.709	4.93
686.032	4.28
686.355	4.99
686.678	4.77
687.001	4.77
687.324	4.94
687.646	5.05
687.969	4.74
688.292	4.37
688.614	4.73
688.937	5.29
689.26	4.43
689.582	3.93
689.904	5.1
690.227	4.89
690.549	4.82
690.871	5.46
691.194	4.53
691.516	4.51
691.838	5.2
692.16	4.95
692.482	5.28
692.804	4.56
693.126	5.45
693.448	4.16
693.769	5.9
694.091	4.66
694.413	4.04
694.735	4.73
695.056	4.7
695.378	4.81
695.699	4.79
696.021	5.22
696.342	5.24
696.663	5.21
696.984	5.54
697.306	5.05
697.627	4.54
697.948	4.31
698.269	4.39
698.59	4.16
698.911	5.22
699.232	4.82
699.553	3.77
699.873	5.53
700.194	5.53
700.515	4.18
700.835	4.55
701.156	4.7
701.477	4.82
701.797	5.3
702.117	4.73
702.438	4.49
702.758	4.94
703.078	5.22
703.398	4.69
703.719	4.79
704.039	4.94
704.359	5.18
704.679	4.99
704.999	4.22
705.319	4.67
705.638	4.97
705.958	4.85
706.278	5.06
706.597	5
706.917	5.02
707.237	5.25
707.556	4.53
707.876	5.01
708.195	4.24
708.514	5.26
708.834	4.46
709.153	4.54
709.472	4.51
709.791	5.23
710.11	5.14
710.429	4.92
710.748	4.75
711.067	4.87
711.386	4.7
711.705	4.17
712.023	5.1
712.342	5.02
712.661	4.36
712.979	5.17
713.298	4.87
713.616	5.8
713.935	5.4
714.253	5.44
714.572	5.33
714.89	5.66
715.208	4.68
715.526	4.63
715.844	4.97
716.162	4.19
716.48	5.46
716.798	5.59
717.116	5.85
717.434	5.31
717.752	5.44
718.069	5.56
718.387	4.57
718.705	5.09
719.022	5.44
719.34	4.28
719.657	5.44
719.975	5.23
720.292	5.72
720.609	4.58
720.927	4.88
721.244	5.01
721.561	5.24
721.878	4.41
722.195	6.16
722.512	6.45
722.829	5.61
723.146	6.04
723.463	5.01
723.779	4.27
724.096	5.04
724.413	5.8
724.729	5.02
725.046	5.36
725.362	4.67
725.679	5.46
725.995	4.78
726.311	4.15
726.628	5.09
726.944	5.34
727.26	5.98
727.576	4.28
727.892	3.85
728.208	4.34
728.524	4.78
728.84	4.19
729.156	4.73
729.472	5.83
729.787	6.26
730.103	5.45
730.419	5.82
730.734	6.56
731.05	4.44
731.365	5.85
731.681	5.37
731.996	5.76
732.311	5.8
732.626	4.19
732.942	5.43
733.257	5.19
733.572	4.43
733.887	5.61
734.202	5.21
734.517	5.82
734.832	6.34
735.146	6.55
735.461	5.97
735.776	4.13
736.091	6.7
736.405	5.67
736.72	5.69
737.034	5.33
737.349	5.1
737.663	5.89
737.977	5.23
738.292	5.96
738.606	5.69
738.92	4.91
739.234	6.01
739.548	4.1
739.862	5.17
740.176	4.46
740.49	4.66
740.804	5.81
741.117	5.7
741.431	5.29
741.745	6.45
742.058	6.28
742.372	5.5
742.685	4.23
742.999	6.17
743.312	5.08
743.626	4.91
743.939	4.68
744.252	6.19
744.565	4.63
744.878	5.64
745.191	5.65
745.505	6.12
745.817	4.94
746.13	5.04
746.443	4.49
746.756	6.77
747.069	5.6
747.381	6.05
747.694	6.14
748.007	6.65
748.319	5.48
748.632	5.2
748.944	4.34
749.256	6.61
749.569	5.9
749.881	4.83
750.193	5.31
750.505	5.86
750.817	5.1
751.129	5.43
751.441	5.01
751.753	7.05
752.065	6.31
752.377	2.56
752.689	4.22
753	6.26
753.312	3.58
753.624	5.33
753.935	5.39
754.247	5.68
754.558	6.67
754.869	5.94
755.181	5.37
755.492	6.07
755.803	3.27
756.114	4.67
756.425	5.13
756.736	6.65
757.047	6.18
757.358	7.03
757.669	4.13
757.98	5.88
758.291	6.38
758.601	8.7
758.912	4.55
759.223	6.08
759.533	6.26
759.844	5.45
760.154	6.77
760.464	6.49
760.775	5.32
761.085	5.68
761.395	4.93
761.705	7.15
762.016	4.68
762.326	5.79
762.636	6.6
762.945	5.82
763.255	5.65
763.565	4.7
763.875	4.93
764.185	5.77
764.494	4.57
764.804	4.85
765.113	6.24
765.423	6.5
765.732	7.03
766.042	6.58
766.351	4.79
766.66	5.24
766.97	6.27
767.279	5.92
767.588	6.56
767.897	6.22
768.206	7.63
768.515	5.26
768.824	6.27
769.133	6.31
769.441	6.54
769.75	4.11
770.059	6.02
770.367	6.59
770.676	7.63
770.984	5.48
771.293	5.79
771.601	6.4
771.91	6.15
772.218	4.4
772.526	4.62
772.834	5.28
773.142	7.33
773.45	7.39
773.758	8.02
774.066	6.82
774.374	5.41
774.682	6.94
774.99	4.32
775.298	6.33
775.605	5.66
775.913	5.5
776.22	4.45
776.528	7.09
776.835	6.91
777.143	4.52
777.45	6.12
777.757	4.66
778.065	6.08
778.372	2.97
778.679	7.46
778.986	8.56
779.293	5.67
779.6	7.4
779.907	4.67
780.214	6.22
780.52	7.58
780.827	7.46
781.134	7.37
781.44	9.2
781.747	7.24
782.053	5.89
782.36	8.4
782.666	6.21
782.973	7.39
783.279	4.76
783.585	5.1
783.891	5.35
784.197	7.37
784.503	9.83
784.809	5.61
785.115	8.47
785.421	6.85
785.727	8.35
786.033	9.44
786.339	3.06
786.644	6.7
786.95	3.87
787.255	4.44
787.561	8.25
787.866	5.62
788.172	8.11
788.477	9.53
788.782	2.9
789.088	10.17
789.393	8.69
789.698	6.44
790.003	6.94
790.308	4.76
790.613	3.13
790.918	4.2
791.223	5.58
791.527	8.06
791.832	3.53
792.137	9.88
792.441	7.94
792.746	8.9
793.05	-1.49
793.355	6.94
793.659	7.29
793.963	9.88
794.268	8.81
794.572	4.58
794.876	6.54
795.18	7.4
795.484	8.41
795.788	3.43
796.092	6.71
796.396	4.42
796.7	3.15
797.004	6.59
797.307	4.18
797.611	5.56
797.915	9.46
798.218	7
798.522	6.97
798.825	5.07
799.128	4.99
799.432	6.34
799.735	11.67
800.038	5.53
800.341	5.09
800.644	0.19
800.947	9.52
801.25	8.48
801.553	5.58
801.856	7.74
802.159	2.31
802.462	7.23
802.764	5.57
803.067	7.88
803.37	8.79
803.672	4.79
803.975	4.15
804.277	7.29
804.579	8.46
804.882	4.71
805.184	5.35
805.486	8.72
805.788	9.28
806.09	8.52
806.392	5.76
806.694	7.33
806.996	4.1
807.298	7.82
807.6	10.27
807.902	5.22
808.203	5.84
808.505	8.52
808.807	9.16
809.108	7.13
809.409	7.2
809.711	5.58
810.012	7.99
810.313	5.84
810.615	2.14
810.916	3.14
811.217	8.55
811.518	3.48
811.819	14.06
812.12	9.18
812.421	8.46
812.722	9.81
813.023	11.52
813.323	10.59
813.624	6.27
813.925	9.78
814.225	6.17
814.526	8.66
814.826	9.63
815.126	6.04
815.427	8.66
815.727	12.85
816.027	4.04
816.327	7.33
816.627	4.49
816.927	11.08
817.227	5.15
817.527	9.19
817.827	14.46
818.127	4.1
818.427	9.95
818.727	6.88
819.026	9.63
819.326	7.65
819.625	6.28
819.925	7.89
820.224	8.28
820.524	4.1
820.823	3.18
821.122	8.09
821.421	6.64
821.72	5.41
822.019	4.96
822.318	11.37
822.617	8.54
822.916	9.12
823.215	5.18
823.514	6.96
823.813	4.73
824.111	7.79
824.41	6.94
824.709	7.19
825.007	7.3
825.306	7.19
825.604	7.33
825.902	7.95
826.201	8.39
826.499	7.63
826.797	7.87
827.095	8.38
827.393	7.93
827.691	8.05
827.989	7.6
828.287	8.79
828.585	7.16
828.882	7.74
829.18	8.26
829.478	6.21
829.775	6.09
830.073	8.06
830.37	7.36
830.668	6.66
830.965	8.18
831.263	8.68
831.56	7.15
831.857	10.2
832.154	4.81
832.451	10
832.748	5.22
833.045	5.59
833.342	10.08
833.639	6.58
833.936	12.83
834.232	9.17
834.529	11.55
834.826	9.89
835.122	9.99
835.419	4.96
835.715	8.5
836.012	7.34
836.308	8.23
836.604	11.36
836.901	6.18
837.197	9.16
837.493	6.97
837.789	7.47
838.085	3.93
838.381	6.61
838.677	7.19
838.972	8.71
839.268	9.98
839.564	9.52
839.86	3.86
840.155	5.74
840.451	6.19
840.746	4.09
841.042	16.12
841.337	10.49
841.632	3.66
841.928	20.99
842.223	14.3
842.518	9.9
842.813	6.7
843.108	15.32
843.403	9.18
843.698	4.24
843.993	7.39
844.287	16.6
844.582	4.85
844.877	-2.26
845.171	8.37
845.466	12.03
845.761	13.7
846.055	10.19
846.349	10.14
846.644	-2.2
846.938	-1.96
847.232	14.84
847.526	14.7
847.82	21.18
848.114	8.05
848.408	10.13
848.702	10.26
848.996	17.45
849.29	16.4
849.584	-1.08
849.877	15.18
850.171	-3.22
850.465	-0.91
850.758	-12.93
851.052	-6.43
851.345	15.98
851.638	18.92
851.932	3.14
852.225	4.15
852.518	3.02
852.811	-5.5
853.104	3.28
853.397	11.31
853.69	11.51
853.983	8.55
854.276	-1.22
854.569	2.9
854.861	10.22
855.154	23.37
855.447	25.64
855.739	10.17
856.032	20.57
856.324	-5.52
856.616	8.73
856.909	-2.29
857.201	5.81
857.493	-11.16
857.785	6.34
858.077	20.03
858.369	21.25
858.661	22.85
858.953	-6.17
859.245	7.07
859.537	15.17
859.829	-39.73
860.12	-3.03
860.412	16.44
860.703	-14.39
860.995	12.72
861.286	0.33
861.578	7.62
861.869	5.2
862.16	9.03
862.452	20.89
862.743	-9.1
863.034	-8.31
863.325	15.59
863.616	-0.7
863.907	-5.06
864.198	6.47
864.488	-6.83
864.779	7.28
865.07	-0.93
865.36	-1.07
865.651	23.36
865.941	29.27
866.232	31.55
866.522	5.2
866.813	41.56
867.103	3.71
867.393	-22.03
867.683	-0.46
867.973	0.75
868.263	2.02
868.553	-12.38
868.843	25.5
869.133	-5.39
869.423	0.01
869.713	-23.43
870.002	3.94
870.292	11.41
870.582	4.88
870.871	-5.72
871.161	16.64
871.45	24.27
871.739	24.16
872.029	38.93
872.318	27.48
872.607	4.31
872.896	24.01
873.185	-5.84
873.474	9.36
873.763	7.57
874.052	-6.77
874.341	4.56
874.63	17.28
874.918	20.17
875.207	20.28
875.496	-36.6
875.784	-1.74
876.073	-29.44
876.361	12.16
876.649	-6.24
876.938	6.42
877.226	-22.54
877.514	7.96
877.802	2.89
878.09	3.89
878.378	23.08
878.666	8.54
878.954	-23.16
879.242	-5.4
879.53	5.69
879.817	39.95
880.105	-15.26
880.392	23.38
880.68	5.31
880.967	4.47
881.255	7.15
881.542	3.11
881.83	21.91
882.117	15.72
882.404	-16.42
882.691	-4.85
882.978	-7.01
883.265	-13.23
883.552	17.22
883.839	-12.64
884.126	16.52
884.413	15.49
884.699	7.9
884.986	6.32
885.273	10.52
885.559	10.52
885.846	10.52
