Data from 0007_chest_Reflection__4__290.txt Node

Date: Thu Dec 15 18:59:02 CST 2022
User: ToomeyLab
Spectrometer: FLMS14357
Trigger mode: 0
Integration Time (sec): 1.000000E-2
Scans to average: 100
Electric dark correction enabled: true
Nonlinearity correction enabled: false
Boxcar width: 0
XAxis mode: Wavelengths
Number of Pixels in Spectrum: 2048
>>>>>Begin Spectral Data<<<<<
189.047	-13.47
189.435	-13.47
189.823	-13.47
190.211	-0.43
190.599	44.71
190.987	105.69
191.375	-35.7
191.763	158.53
192.151	187.71
192.538	77.08
192.926	96.05
193.314	15.18
193.702	142.94
194.089	128.96
194.477	786.98
194.864	334.09
195.252	-155.77
195.639	64.62
196.027	278.13
196.414	64.39
196.801	103.43
197.189	99.08
197.576	98.61
197.963	50.24
198.351	-3.77
198.738	-39.66
199.125	-114.3
199.512	10.33
199.899	17.04
200.286	-44.81
200.673	-2.68
201.06	7.02
201.447	15.16
201.833	12.23
202.22	-27.72
202.607	-107.85
202.994	78.52
203.38	50.37
203.767	-3.94
204.154	37.22
204.54	38.52
204.927	28.69
205.313	31.82
205.699	29.15
206.086	29.39
206.472	28.42
206.858	16.09
207.245	-39.41
207.631	15.71
208.017	33.33
208.403	-101.65
208.789	-0.58
209.175	-89.25
209.561	-105.32
209.947	-4.55
210.333	41.76
210.719	43.87
211.105	25.84
211.491	21.84
211.876	-31.21
212.262	-12.17
212.648	-36.3
213.034	-0.21
213.419	-10.91
213.805	-46.83
214.19	-21.73
214.576	-31.91
214.961	-10
215.346	-8.41
215.732	-10.85
216.117	-5.12
216.502	4.18
216.888	-7.8
217.273	-0.72
217.658	-0.81
218.043	-4.95
218.428	0.79
218.813	19.65
219.198	-5.08
219.583	-17.88
219.968	17.31
220.353	-26.02
220.738	16.66
221.122	-13.29
221.507	-9.31
221.892	-22.49
222.276	-44.27
222.661	-6.41
223.046	-11.61
223.43	14.61
223.815	2.87
224.199	-12.18
224.583	3.74
224.968	4.44
225.352	-2.47
225.736	4.32
226.121	4.17
226.505	6.33
226.889	-2.7
227.273	0.28
227.657	5.36
228.041	5.81
228.425	2.61
228.809	5
229.193	4.18
229.577	4.75
229.961	5.54
230.344	6.26
230.728	5.66
231.112	6.52
231.495	4.37
231.879	5.66
232.263	4.98
232.646	5.08
233.03	6.19
233.413	5.4
233.797	3.79
234.18	4.97
234.563	5.73
234.946	3.44
235.33	4.07
235.713	5.66
236.096	6.75
236.479	4.96
236.862	6.08
237.245	4.27
237.628	4.77
238.011	5.03
238.394	4.28
238.777	6.89
239.16	5.43
239.543	4.4
239.925	5.52
240.308	3.38
240.691	4.85
241.073	5.05
241.456	5.48
241.838	5.21
242.221	6.17
242.603	5.74
242.986	4.86
243.368	5.3
243.75	5.18
244.133	5.44
244.515	5.6
244.897	5.26
245.279	4.75
245.661	4.91
246.043	5.56
246.425	4.92
246.807	5.23
247.189	5.03
247.571	5.33
247.953	5.33
248.335	5.34
248.717	5.29
249.098	5.46
249.48	5.06
249.862	4.85
250.243	5.23
250.625	5.22
251.006	6.16
251.388	4.73
251.769	3.23
252.151	5.16
252.532	4.66
252.913	4.58
253.295	4.95
253.676	4.63
254.057	4.79
254.438	5.25
254.819	5.35
255.2	5.78
255.581	6.24
255.962	5.59
256.343	5.16
256.724	5.68
257.105	4.48
257.486	3.84
257.867	5.06
258.247	5.11
258.628	5.89
259.009	4.01
259.389	4.55
259.77	4.42
260.15	5.23
260.531	4.73
260.911	4.91
261.292	4.84
261.672	5.1
262.052	5.03
262.432	4.73
262.813	4.53
263.193	5.12
263.573	4.76
263.953	4.61
264.333	5.08
264.713	4.66
265.093	4.45
265.473	4.78
265.853	5.27
266.233	4.94
266.612	4.7
266.992	4.36
267.372	5.45
267.752	5.19
268.131	4.68
268.511	4.53
268.89	4.85
269.27	4.28
269.649	4.02
270.029	4.74
270.408	4.33
270.787	4.72
271.167	5.29
271.546	5.4
271.925	4.65
272.304	4.5
272.683	4.21
273.062	4.4
273.441	4.66
273.82	4.63
274.199	4.82
274.578	4.56
274.957	4.59
275.336	4.55
275.715	4.56
276.093	3.7
276.472	3.94
276.851	4.24
277.229	4.65
277.608	4.33
277.986	4.98
278.365	4.48
278.743	4.96
279.122	4.1
279.5	3.86
279.878	4.57
280.257	4.54
280.635	4.94
281.013	4.44
281.391	4.04
281.769	4.5
282.147	4.64
282.525	4.26
282.903	4.38
283.281	5.15
283.659	4.65
284.037	4.03
284.415	4.39
284.792	4.31
285.17	4.41
285.548	4.46
285.925	4.27
286.303	4.89
286.68	4.34
287.058	4.47
287.435	4.43
287.813	4.48
288.19	4.42
288.567	4.76
288.945	4.23
289.322	4.52
289.699	4.57
290.076	4.39
290.453	4.38
290.83	4.34
291.207	4.35
291.584	4.7
291.961	4.53
292.338	4.44
292.715	4.36
293.092	4.64
293.469	4.27
293.845	4.75
294.222	4.96
294.599	4.28
294.975	4.07
295.352	4.63
295.728	4.68
296.105	4.37
296.481	5.02
296.858	4.77
297.234	4.25
297.61	4.72
297.986	5.03
298.363	4.88
298.739	4.78
299.115	4.77
299.491	5.19
299.867	4.41
300.243	4.77
300.619	4.66
300.995	4.87
301.371	4.64
301.746	5.21
302.122	4.47
302.498	4.54
302.874	4.98
303.249	4.78
303.625	4.14
304	5.32
304.376	5.01
304.751	4.93
305.127	4.6
305.502	4.72
305.878	4.72
306.253	4.58
306.628	4.57
307.003	4.74
307.378	4.82
307.754	4.61
308.129	4.45
308.504	4.78
308.879	4.7
309.254	5.05
309.629	4.61
310.003	4.59
310.378	4.92
310.753	4.98
311.128	4.52
311.502	4.83
311.877	5.14
312.252	4.84
312.626	5.26
313.001	5.07
313.375	4.96
313.75	5.3
314.124	4.99
314.498	5.19
314.873	4.76
315.247	4.45
315.621	4.57
315.995	5
316.369	4.5
316.743	4.85
317.117	4.74
317.491	5.43
317.865	4.13
318.239	5.54
318.613	4.72
318.987	4.85
319.361	5.07
319.734	4.79
320.108	4.9
320.482	5.07
320.855	5.01
321.229	4.95
321.602	4.94
321.976	4.62
322.349	5.31
322.723	5.15
323.096	5.09
323.469	5.04
323.843	4.64
324.216	4.88
324.589	5.19
324.962	5.42
325.335	5.15
325.708	4.92
326.081	5
326.454	5.25
326.827	5.29
327.2	4.39
327.573	5.43
327.945	4.56
328.318	4.9
328.691	5.26
329.063	4.84
329.436	4.5
329.809	4.99
330.181	5.59
330.553	5.45
330.926	5.34
331.298	4.62
331.671	5.28
332.043	5.41
332.415	5.33
332.787	5.45
333.159	5.02
333.532	5.63
333.904	5.17
334.276	5.04
334.648	5.1
335.02	4.95
335.391	4.62
335.763	5.22
336.135	5.47
336.507	4.91
336.879	5.37
337.25	5.15
337.622	5.42
337.993	5.59
338.365	5.12
338.736	5.56
339.108	5.26
339.479	4.85
339.851	5.41
340.222	5.55
340.593	5.04
340.964	5.34
341.336	5.21
341.707	5.49
342.078	5.2
342.449	5.31
342.82	5.62
343.191	5.24
343.562	5.45
343.933	5.19
344.303	5.36
344.674	5.49
345.045	5.45
345.416	5.88
345.786	5.23
346.157	5.49
346.527	5.44
346.898	5.47
347.268	5.61
347.639	5.18
348.009	5.43
348.38	5.45
348.75	5.6
349.12	5.32
349.49	5.67
349.861	5.54
350.231	5
350.601	5.33
350.971	5.12
351.341	5.47
351.711	5.54
352.081	5.05
352.45	5.04
352.82	4.76
353.19	5.39
353.56	5.35
353.929	5.53
354.299	5.58
354.669	5.52
355.038	5.72
355.408	5.37
355.777	5.84
356.147	5.81
356.516	5.35
356.885	5.51
357.254	5.51
357.624	5.25
357.993	5.67
358.362	5.65
358.731	5.87
359.1	5.53
359.469	5.76
359.838	5.88
360.207	5.59
360.576	5.74
360.945	5.9
361.314	5.28
361.682	5.18
362.051	5.71
362.42	5.53
362.788	5.64
363.157	5.5
363.525	5.6
363.894	5.44
364.262	5.44
364.631	5.41
364.999	5.59
365.367	5.32
365.735	5.65
366.104	5.48
366.472	5.64
366.84	5.56
367.208	5.95
367.576	5.53
367.944	5.56
368.312	5.45
368.68	5.9
369.048	5.94
369.416	5.41
369.783	5.63
370.151	5.9
370.519	5.98
370.886	5.84
371.254	5.88
371.621	6
371.989	5.79
372.356	5.75
372.724	5.36
373.091	5.8
373.458	5.54
373.826	5.72
374.193	5.92
374.56	5.87
374.927	5.47
375.294	6.03
375.661	5.99
376.028	5.83
376.395	6.19
376.762	5.63
377.129	5.71
377.496	5.81
377.863	5.68
378.229	6.21
378.596	5.8
378.963	5.87
379.329	5.91
379.696	5.81
380.062	5.7
380.429	5.53
380.795	6.08
381.161	5.9
381.528	5.7
381.894	6.09
382.26	6.12
382.626	5.89
382.993	6.17
383.359	5.89
383.725	5.79
384.091	6.06
384.457	5.68
384.823	5.93
385.188	5.86
385.554	5.91
385.92	5.63
386.286	6.23
386.651	6.03
387.017	6.19
387.383	5.86
387.748	6.26
388.114	6.39
388.479	6.22
388.845	5.82
389.21	6.4
389.575	6.19
389.94	6.35
390.306	5.82
390.671	6.09
391.036	6.04
391.401	6.19
391.766	6.02
392.131	6.25
392.496	6.18
392.861	5.86
393.226	6.14
393.591	6.17
393.956	6.21
394.32	6.37
394.685	6.25
395.05	6.22
395.414	6.11
395.779	6.56
396.143	6.06
396.508	6.19
396.872	6.07
397.236	6.53
397.601	6.47
397.965	6.15
398.329	6.36
398.694	6.1
399.058	6.4
399.422	6.2
399.786	6.17
400.15	6.16
400.514	6.46
400.878	6.32
401.242	6.51
401.605	6.45
401.969	6.45
402.333	6.34
402.697	6.76
403.06	6.21
403.424	6.19
403.787	6.38
404.151	6.47
404.514	6.59
404.878	6.19
405.241	6.4
405.604	6.39
405.968	6.48
406.331	6.42
406.694	6.48
407.057	6.4
407.42	6.36
407.783	6.6
408.146	6.52
408.509	6.47
408.872	6.19
409.235	6.74
409.598	6.57
409.961	6.54
410.323	6.55
410.686	6.48
411.049	6.57
411.411	6.44
411.774	6.45
412.136	6.42
412.499	6.74
412.861	6.09
413.223	6.52
413.586	6.49
413.948	6.5
414.31	6.7
414.672	6.52
415.035	6.66
415.397	6.42
415.759	6.34
416.121	6.54
416.483	6.34
416.845	6.58
417.206	6.53
417.568	6.51
417.93	6.51
418.292	6.34
418.653	6.31
419.015	6.66
419.377	6.55
419.738	6.52
420.1	6.52
420.461	6.52
420.822	6.66
421.184	6.54
421.545	6.53
421.906	6.49
422.267	6.53
422.629	6.48
422.99	6.54
423.351	6.51
423.712	6.62
424.073	6.61
424.434	6.7
424.795	6.53
425.155	6.52
425.516	6.54
425.877	6.48
426.238	6.63
426.598	6.62
426.959	6.64
427.32	6.51
427.68	6.58
428.041	6.74
428.401	6.57
428.761	6.77
429.122	6.82
429.482	6.81
429.842	6.86
430.202	6.84
430.563	6.77
430.923	6.86
431.283	6.89
431.643	6.88
432.003	6.81
432.363	6.79
432.722	6.78
433.082	6.81
433.442	6.97
433.802	6.77
434.161	6.88
434.521	6.92
434.881	6.88
435.24	6.92
435.6	6.88
435.959	6.96
436.319	6.96
436.678	7.03
437.037	6.81
437.396	6.97
437.756	6.86
438.115	6.88
438.474	6.94
438.833	6.94
439.192	6.91
439.551	6.76
439.91	7.01
440.269	7.01
440.628	6.87
440.987	6.88
441.345	6.93
441.704	6.93
442.063	6.93
442.421	6.88
442.78	6.97
443.138	7.01
443.497	6.81
443.855	7.09
444.214	6.86
444.572	7.15
444.93	6.87
445.288	7.08
445.647	6.8
446.005	7.05
446.363	6.95
446.721	7.02
447.079	6.93
447.437	7
447.795	6.98
448.153	7.05
448.51	6.95
448.868	6.97
449.226	7.01
449.584	7.05
449.941	7.11
450.299	6.95
450.656	7.02
451.014	7.2
451.371	7.22
451.729	7.19
452.086	7.15
452.443	7.24
452.801	7.29
453.158	7.46
453.515	7.12
453.872	7.14
454.229	7.08
454.586	7.21
454.943	7.31
455.3	7.35
455.657	7.23
456.014	7.22
456.371	7.21
456.727	7.41
457.084	7.44
457.441	7.26
457.797	7.23
458.154	7.36
458.51	7.26
458.867	7.26
459.223	7.2
459.58	7.31
459.936	7.3
460.292	7.25
460.648	7.21
461.005	7.15
461.361	7.2
461.717	7.18
462.073	7.26
462.429	7.33
462.785	7.34
463.141	7.34
463.496	7.3
463.852	7.45
464.208	7.32
464.564	7.25
464.919	7.48
465.275	7.24
465.631	7.64
465.986	7.51
466.342	7.18
466.697	7.55
467.052	7.55
467.408	7.41
467.763	7.4
468.118	7.35
468.473	7.49
468.829	7.39
469.184	7.5
469.539	7.38
469.894	7.69
470.249	7.44
470.603	7.68
470.958	7.46
471.313	7.55
471.668	7.45
472.023	7.59
472.377	7.5
472.732	7.54
473.086	7.42
473.441	7.71
473.795	7.76
474.15	7.56
474.504	7.52
474.859	7.34
475.213	7.69
475.567	7.65
475.921	7.53
476.275	7.59
476.63	7.78
476.984	7.65
477.338	7.78
477.692	7.55
478.045	7.66
478.399	7.75
478.753	7.56
479.107	7.51
479.461	7.77
479.814	7.76
480.168	7.79
480.521	7.77
480.875	7.68
481.228	7.75
481.582	7.74
481.935	7.94
482.289	7.85
482.642	7.92
482.995	7.78
483.348	7.59
483.701	7.78
484.055	7.68
484.408	7.61
484.761	7.52
485.114	7.34
485.466	7.39
485.819	7.38
486.172	7.41
486.525	7.4
486.878	7.52
487.23	7.5
487.583	7.63
487.936	7.59
488.288	7.6
488.641	7.57
488.993	7.54
489.345	7.48
489.698	7.53
490.05	7.53
490.402	7.64
490.754	7.62
491.107	7.66
491.459	7.72
491.811	7.79
492.163	7.85
492.515	7.74
492.866	7.64
493.218	7.65
493.57	7.72
493.922	7.75
494.274	7.86
494.625	7.85
494.977	7.88
495.328	7.85
495.68	7.96
496.031	8.02
496.383	7.97
496.734	8.02
497.086	8.15
497.437	8.13
497.788	8.09
498.139	8.01
498.49	8.08
498.842	8.08
499.193	8
499.544	8.15
499.894	8.03
500.245	8.14
500.596	8.14
500.947	8.18
501.298	7.99
501.648	8.17
501.999	8.37
502.35	8.1
502.7	8.34
503.051	8.34
503.401	8.27
503.752	8.19
504.102	8.26
504.452	8.19
504.803	8.21
505.153	8.35
505.503	8.39
505.853	8.43
506.203	8.41
506.553	8.33
506.903	8.45
507.253	8.38
507.603	8.46
507.953	8.34
508.303	8.44
508.652	8.31
509.002	8.44
509.352	8.36
509.701	8.3
510.051	8.53
510.4	8.54
510.75	8.33
511.099	8.28
511.449	8.49
511.798	8.49
512.147	8.43
512.496	8.5
512.846	8.4
513.195	8.52
513.544	8.55
513.893	8.51
514.242	8.51
514.591	8.52
514.939	8.46
515.288	8.62
515.637	8.56
515.986	8.62
516.334	8.67
516.683	8.63
517.032	8.64
517.38	8.55
517.729	8.68
518.077	8.72
518.426	8.71
518.774	8.64
519.122	8.7
519.47	8.58
519.819	8.55
520.167	8.63
520.515	8.62
520.863	8.67
521.211	8.72
521.559	8.64
521.907	8.66
522.255	8.78
522.602	8.73
522.95	8.95
523.298	8.86
523.645	8.89
523.993	8.88
524.341	8.89
524.688	9.03
525.036	8.94
525.383	9.02
525.73	8.83
526.078	9.07
526.425	9.01
526.772	8.91
527.119	8.8
527.466	8.96
527.814	8.92
528.161	9.01
528.508	8.98
528.854	8.88
529.201	8.87
529.548	8.95
529.895	8.73
530.242	8.73
530.588	8.76
530.935	8.76
531.282	8.68
531.628	8.85
531.975	8.85
532.321	8.88
532.667	9.04
533.014	9.11
533.36	9.11
533.706	9.08
534.052	9.21
534.399	9.04
534.745	9.09
535.091	9.09
535.437	9.04
535.783	9.05
536.129	9.02
536.474	9.25
536.82	9.32
537.166	9.26
537.512	9.34
537.857	9.34
538.203	9.33
538.549	9.34
538.894	9.34
539.239	9.39
539.585	9.49
539.93	9.59
540.276	9.49
540.621	9.6
540.966	9.55
541.311	9.66
541.656	9.66
542.001	9.62
542.346	9.47
542.691	9.46
543.036	9.38
543.381	9.46
543.726	9.46
544.071	9.45
544.415	9.41
544.76	9.52
545.105	9.54
545.449	9.63
545.794	9.62
546.138	9.73
546.483	9.89
546.827	9.7
547.171	9.83
547.516	9.87
547.86	9.91
548.204	9.83
548.548	9.85
548.892	10
549.236	9.9
549.58	10
549.924	10.04
550.268	10.1
550.612	10.17
550.956	10.13
551.3	10.31
551.643	10.21
551.987	10.33
552.33	10.37
552.674	10.27
553.017	10.25
553.361	10.44
553.704	10.23
554.048	10.34
554.391	10.33
554.734	10.22
555.077	10.34
555.42	10.26
555.764	10.29
556.107	10.35
556.45	10.59
556.793	10.59
557.135	10.58
557.478	10.45
557.821	10.58
558.164	10.67
558.507	10.59
558.849	10.71
559.192	10.6
559.534	10.6
559.877	10.52
560.219	10.68
560.562	10.64
560.904	11.03
561.246	10.93
561.589	11
561.931	10.74
562.273	10.64
562.615	10.87
562.957	10.93
563.299	10.9
563.641	10.87
563.983	10.75
564.325	11.06
564.667	11.01
565.008	10.79
565.35	10.83
565.692	11
566.033	11.07
566.375	11
566.716	10.87
567.058	11.1
567.399	11.12
567.741	11.23
568.082	11.24
568.423	11.18
568.764	11.14
569.105	11.23
569.447	11.22
569.788	11.1
570.129	11.4
570.47	11.34
570.811	11.25
571.151	11.6
571.492	11.36
571.833	11.36
572.174	11.59
572.514	11.41
572.855	11.56
573.195	11.46
573.536	11.46
573.876	11.4
574.217	11.52
574.557	11.55
574.898	11.48
575.238	11.63
575.578	11.65
575.918	11.68
576.258	11.66
576.598	11.61
576.938	11.7
577.278	11.71
577.618	11.82
577.958	11.81
578.298	11.81
578.638	11.82
578.977	12.07
579.317	11.9
579.657	12.1
579.996	11.97
580.336	12.04
580.675	11.99
581.014	12.25
581.354	12
581.693	12.09
582.032	12.38
582.372	12.21
582.711	12.51
583.05	12.15
583.389	12.41
583.728	12.45
584.067	12.35
584.406	12.39
584.745	12.46
585.083	12.42
585.422	12.42
585.761	12.34
586.1	12.64
586.438	12.78
586.777	12.59
587.115	12.8
587.454	12.56
587.792	12.63
588.13	12.55
588.469	12.52
588.807	12.72
589.145	12.73
589.483	12.49
589.821	12.79
590.159	12.87
590.497	12.93
590.835	13.07
591.173	13.02
591.511	12.98
591.849	13.2
592.187	12.75
592.524	12.89
592.862	12.76
593.2	13.09
593.537	13.18
593.875	13.03
594.212	13.03
594.55	13.25
594.887	13.4
595.224	13.31
595.561	13.16
595.899	13.31
596.236	13.22
596.573	13.16
596.91	13.4
597.247	13.35
597.584	13.51
597.921	13.48
598.258	13.61
598.594	13.46
598.931	13.3
599.268	13.44
599.604	13.42
599.941	13.44
600.277	13.56
600.614	13.57
600.95	13.79
601.287	13.43
601.623	13.74
601.959	13.93
602.296	13.89
602.632	13.85
602.968	13.98
603.304	13.95
603.64	13.98
603.976	13.64
604.312	14.06
604.648	13.91
604.984	14.15
605.319	14.02
605.655	14
605.991	14
606.326	14.17
606.662	13.77
606.998	14.16
607.333	14.08
607.668	13.94
608.004	14.18
608.339	14.03
608.674	14.44
609.01	14.63
609.345	14.5
609.68	14.28
610.015	14.51
610.35	14.57
610.685	14.36
611.02	14.28
611.355	14.4
611.689	14.48
612.024	14.51
612.359	14.78
612.694	14.46
613.028	14.28
613.363	14.68
613.697	14.42
614.032	14.61
614.366	14.75
614.7	15
615.035	14.82
615.369	14.9
615.703	14.57
616.037	15.18
616.371	14.96
616.705	15.19
617.039	15.18
617.373	15.15
617.707	15.16
618.041	15.01
618.375	14.8
618.709	15.13
619.042	15.3
619.376	15.22
619.71	15.17
620.043	15.7
620.377	15.42
620.71	15.16
621.043	15.31
621.377	15.18
621.71	15.6
622.043	15.93
622.376	15.42
622.709	15.77
623.043	15.4
623.376	15.73
623.709	15.65
624.041	15.67
624.374	15.65
624.707	15.63
625.04	15.58
625.373	15.85
625.705	15.97
626.038	15.9
626.37	15.74
626.703	15.83
627.035	16.11
627.368	15.97
627.7	15.92
628.032	16.06
628.365	16.46
628.697	16.13
629.029	15.99
629.361	16.3
629.693	16.12
630.025	16.13
630.357	16.2
630.689	15.91
631.021	16.25
631.353	16.57
631.684	16.29
632.016	16.3
632.348	16.38
632.679	16.69
633.011	16.18
633.342	16.25
633.674	16.25
634.005	16.79
634.336	16.5
634.668	16.62
634.999	16.63
635.33	17.01
635.661	16.94
635.992	16.71
636.323	16.78
636.654	16.75
636.985	16.48
637.316	16.93
637.647	16.79
637.977	16.52
638.308	17.36
638.639	17.15
638.969	17.1
639.3	16.96
639.63	17.03
639.961	17.34
640.291	17.04
640.622	17.63
640.952	17.51
641.282	16.74
641.612	17.36
641.943	17.12
642.273	17.51
642.603	17.28
642.933	17.75
643.263	17.66
643.592	17.77
643.922	17.45
644.252	17.77
644.582	17.41
644.911	17.35
645.241	17.76
645.571	17.58
645.9	17.79
646.23	18.2
646.559	17.41
646.888	18.01
647.218	17.67
647.547	17.54
647.876	17.84
648.205	17.82
648.534	18.08
648.863	17.92
649.192	17.49
649.521	17.95
649.85	18.32
650.179	18.07
650.508	17.91
650.837	18.26
651.165	18.23
651.494	18.07
651.822	18.25
652.151	18.28
652.479	18.23
652.808	18.23
653.136	18.21
653.465	18.15
653.793	18.04
654.121	18.1
654.449	17.92
654.777	18.26
655.105	18.35
655.433	18.38
655.761	18.69
656.089	18.29
656.417	19.25
656.745	18.9
657.073	18.77
657.4	18.31
657.728	18.37
658.056	19.02
658.383	18.96
658.711	18.82
659.038	18.82
659.365	19.32
659.693	18.82
660.02	19.01
660.347	18.9
660.674	18.96
661.001	19.02
661.329	19.17
661.656	18.93
661.982	18.89
662.309	18.68
662.636	19.71
662.963	19.41
663.29	19.63
663.616	19.44
663.943	19.4
664.27	19.58
664.596	19.23
664.923	19.39
665.249	19.19
665.576	18.86
665.902	19.41
666.228	20.01
666.554	19.54
666.881	19.57
667.207	19.66
667.533	19.17
667.859	19.66
668.185	19.62
668.511	19.96
668.837	20.35
669.162	20.06
669.488	19.5
669.814	19.77
670.139	19.53
670.465	20.63
670.791	19.91
671.116	19.75
671.442	19.89
671.767	19.78
672.092	19.83
672.418	19.88
672.743	19.93
673.068	19.93
673.393	20.06
673.718	20.02
674.043	19.79
674.368	19.99
674.693	19.48
675.018	20.49
675.343	21.1
675.667	20.18
675.992	20.58
676.317	20.03
676.641	20.89
676.966	20.36
677.29	20.22
677.615	20.53
677.939	21.01
678.264	20.66
678.588	20.66
678.912	20.62
679.236	20.43
679.56	20.72
679.885	20.7
680.209	21.27
680.532	21.39
680.856	21.33
681.18	21.65
681.504	20.94
681.828	20.61
682.152	20.73
682.475	21.3
682.799	21.21
683.122	20.9
683.446	20.5
683.769	21.08
684.093	21.49
684.416	21
684.739	20.95
685.062	21.08
685.386	21.89
685.709	21.85
686.032	21.56
686.355	20.77
686.678	21.72
687.001	20.83
687.324	22.17
687.646	21.99
687.969	22.36
688.292	21.81
688.614	21.7
688.937	21.98
689.26	22.39
689.582	22.07
689.904	22.27
690.227	22.3
690.549	22.27
690.871	22.02
691.194	21.8
691.516	21.54
691.838	22.33
692.16	21.99
692.482	21.72
692.804	21.94
693.126	21.9
693.448	21.46
693.769	22.11
694.091	22.35
694.413	22.18
694.735	22.13
695.056	23
695.378	22.58
695.699	22.09
696.021	22.73
696.342	22.29
696.663	22.27
696.984	21.99
697.306	22.67
697.627	23.2
697.948	22.63
698.269	22.57
698.59	23.46
698.911	21.83
699.232	23.69
699.553	22.67
699.873	22.71
700.194	22.62
700.515	23.04
700.835	23.23
701.156	22.7
701.477	22.76
701.797	22.61
702.117	22.74
702.438	23.13
702.758	22.68
703.078	23.23
703.398	22.81
703.719	23.84
704.039	23.32
704.359	23.95
704.679	23.08
704.999	23.14
705.319	22.9
705.638	23.27
705.958	23.4
706.278	23.06
706.597	24.33
706.917	23.93
707.237	23.27
707.556	24.15
707.876	23.62
708.195	24.37
708.514	23.36
708.834	23.27
709.153	23.91
709.472	24.41
709.791	23.47
710.11	24.14
710.429	23.85
710.748	24.47
711.067	23.96
711.386	24.61
711.705	23.75
712.023	24.07
712.342	23.62
712.661	24.35
712.979	24.42
713.298	24.79
713.616	24.66
713.935	24.26
714.253	24.86
714.572	24.67
714.89	24.6
715.208	24.44
715.526	24.86
715.844	24.53
716.162	24.62
716.48	25.36
716.798	24.27
717.116	24.76
717.434	24.31
717.752	24.95
718.069	24.11
718.387	25.06
718.705	24.84
719.022	24.78
719.34	23.41
719.657	25.29
719.975	25.21
720.292	24.44
720.609	24.82
720.927	25.32
721.244	25.91
721.561	24.73
721.878	25.87
722.195	24.78
722.512	26.17
722.829	24.96
723.146	25.05
723.463	24.94
723.779	24.54
724.096	24.24
724.413	24.54
724.729	25.28
725.046	25.45
725.362	24.87
725.679	24.88
725.995	24.88
726.311	26.03
726.628	25.51
726.944	26.02
727.26	25.38
727.576	26.72
727.892	27.02
728.208	25.7
728.524	25.11
728.84	25.36
729.156	25.33
729.472	25.56
729.787	25.13
730.103	25.08
730.419	25.91
730.734	26.98
731.05	25.14
731.365	26.78
731.681	26.97
731.996	26.3
732.311	25.12
732.626	24.28
732.942	26.35
733.257	25.97
733.572	25
733.887	27.67
734.202	26.75
734.517	26.87
734.832	26.01
735.146	27.05
735.461	26.4
735.776	26.34
736.091	27.91
736.405	26.9
736.72	26.77
737.034	26.55
737.349	25.92
737.663	27.44
737.977	26.53
738.292	26.27
738.606	26.25
738.92	28.71
739.234	26.35
739.548	27.23
739.862	27.1
740.176	26.27
740.49	28.22
740.804	28.95
741.117	27.26
741.431	26.71
741.745	27.05
742.058	26.66
742.372	27.85
742.685	27.9
742.999	27.04
743.312	27.97
743.626	27.45
743.939	27.57
744.252	26.53
744.565	27.17
744.878	24.54
745.191	27.75
745.505	27.18
745.817	26.21
746.13	27.6
746.443	26.53
746.756	25.93
747.069	26.46
747.381	29.96
747.694	27.67
748.007	27.26
748.319	27.91
748.632	27.9
748.944	26.64
749.256	28.34
749.569	26.64
749.881	27.49
750.193	28.67
750.505	27.47
750.817	30.16
751.129	29.1
751.441	26.77
751.753	31.14
752.065	28.35
752.377	29.16
752.689	28.05
753	28.78
753.312	29.5
753.624	27.68
753.935	26.69
754.247	28.25
754.558	30.86
754.869	28.42
755.181	29.32
755.492	27.91
755.803	29.94
756.114	27.26
756.425	27.72
756.736	29.71
757.047	29.39
757.358	28.25
757.669	27.41
757.98	29.06
758.291	29.32
758.601	28.66
758.912	27.58
759.223	28.28
759.533	29.21
759.844	28.88
760.154	28.78
760.464	29.57
760.775	29.56
761.085	29.21
761.395	27.62
761.705	28.9
762.016	29.33
762.326	28.56
762.636	30.42
762.945	29.46
763.255	29.94
763.565	29.74
763.875	28.78
764.185	30.58
764.494	28.85
764.804	29.46
765.113	29.84
765.423	30.11
765.732	29.99
766.042	30.11
766.351	30.48
766.66	29.58
766.97	28.88
767.279	28.8
767.588	29.18
767.897	28.4
768.206	28.51
768.515	28.81
768.824	30.28
769.133	29.24
769.441	28.5
769.75	28.46
770.059	30.28
770.367	32.12
770.676	29.81
770.984	29.05
771.293	30.85
771.601	26.8
771.91	28.32
772.218	28.66
772.526	28.41
772.834	27.85
773.142	27.91
773.45	28.83
773.758	30.81
774.066	29.73
774.374	31.44
774.682	29.09
774.99	27.91
775.298	30.1
775.605	28.54
775.913	27.68
776.22	27.71
776.528	28.91
776.835	31.79
777.143	32.76
777.45	28.53
777.757	32.07
778.065	27.93
778.372	29.01
778.679	32.41
778.986	30.92
779.293	31.66
779.6	32.77
779.907	32.42
780.214	28.26
780.52	28.8
780.827	31.45
781.134	28.93
781.44	32.62
781.747	31.52
782.053	28.24
782.36	32.11
782.666	27.12
782.973	27.38
783.279	29.24
783.585	32.66
783.891	33.89
784.197	28.66
784.503	29.21
784.809	37.5
785.115	33.81
785.421	32.34
785.727	29.69
786.033	29.61
786.339	33.5
786.644	31.47
786.95	30.5
787.255	29.91
787.561	29.04
787.866	29.46
788.172	30.9
788.477	34.42
788.782	30.85
789.088	26.56
789.393	33.27
789.698	31.45
790.003	34.6
790.308	32.86
790.613	31.15
790.918	31.65
791.223	33.49
791.527	34.01
791.832	24.84
792.137	32.15
792.441	29.67
792.746	32.67
793.05	29.47
793.355	30.52
793.659	30.24
793.963	31.57
794.268	31.99
794.572	29.22
794.876	27.33
795.18	32.84
795.484	32.48
795.788	35.71
796.092	28.96
796.396	29.6
796.7	28.77
797.004	31.26
797.307	32.67
797.611	33.65
797.915	27.94
798.218	36.53
798.522	28.88
798.825	32.47
799.128	33.09
799.432	30.85
799.735	29.8
800.038	33.7
800.341	35.48
800.644	30.88
800.947	31.07
801.25	35.28
801.553	33.79
801.856	34.89
802.159	32.66
802.462	32.34
802.764	33.14
803.067	35.16
803.37	36.56
803.672	29.57
803.975	31.85
804.277	31.3
804.579	31.56
804.882	33.28
805.184	35.58
805.486	35.27
805.788	35.7
806.09	37.85
806.392	30.09
806.694	30.85
806.996	32.38
807.298	27.89
807.6	33.83
807.902	34.77
808.203	29.06
808.505	28.06
808.807	36.9
809.108	30.94
809.409	36.71
809.711	28.4
810.012	35.73
810.313	30.94
810.615	29.07
810.916	33.26
811.217	29.64
811.518	28.75
811.819	35.06
812.12	34.59
812.421	27.45
812.722	36.28
813.023	33.72
813.323	28.49
813.624	34.74
813.925	33.31
814.225	33.9
814.526	32.82
814.826	31.62
815.126	35.16
815.427	31.56
815.727	30.35
816.027	33.93
816.327	36.5
816.627	30.9
816.927	38.22
817.227	33.35
817.527	34
817.827	32.01
818.127	27.1
818.427	26.96
818.727	29.86
819.026	32.1
819.326	31.89
819.625	36.14
819.925	35.55
820.224	34.69
820.524	35.73
820.823	29.73
821.122	28.3
821.421	31.29
821.72	29.93
822.019	31.29
822.318	34.05
822.617	36.63
822.916	31.25
823.215	35.86
823.514	37.57
823.813	35.31
824.111	34.68
824.41	34.63
824.709	36.2
825.007	36.62
825.306	35.98
825.604	35.92
825.902	36.32
826.201	34.89
826.499	35.13
826.797	35.5
827.095	34.76
827.393	36.37
827.691	36.85
827.989	37.39
828.287	34.88
828.585	36.47
828.882	36.22
829.18	33.42
829.478	35.57
829.775	36.07
830.073	36.34
830.37	33.99
830.668	35.47
830.965	38.8
831.263	35.29
831.56	33.23
831.857	34.03
832.154	35.78
832.451	35.73
832.748	36.34
833.045	35.45
833.342	38.81
833.639	35.22
833.936	31.85
834.232	34.41
834.529	35.34
834.826	35.23
835.122	36.36
835.419	36.93
835.715	31.91
836.012	34.59
836.308	37.79
836.604	36.91
836.901	33.48
837.197	36.17
837.493	38.11
837.789	36.21
838.085	31.97
838.381	35.94
838.677	36.1
838.972	34.17
839.268	37.46
839.564	40.51
839.86	27.19
840.155	48.38
840.451	33.92
840.746	29.04
841.042	26.53
841.337	33.16
841.632	34.75
841.928	40.66
842.223	30.93
842.518	43.15
842.813	32.64
843.108	38.04
843.403	34.35
843.698	37.44
843.993	35.91
844.287	35.18
844.582	37.83
844.877	40.52
845.171	38.81
845.466	33.41
845.761	27.77
846.055	38.21
846.349	45.68
846.644	29.46
846.938	35.96
847.232	40.84
847.526	30.68
847.82	23.95
848.114	35.17
848.408	32.54
848.702	27.8
848.996	38.9
849.29	42.68
849.584	32.71
849.877	20.55
850.171	23.15
850.465	30.15
850.758	26.1
851.052	48.39
851.345	29.69
851.638	18.1
851.932	40.83
852.225	44.32
852.518	49.09
852.811	35.13
853.104	39.63
853.397	42.08
853.69	59.02
853.983	38.87
854.276	33.01
854.569	13.07
854.861	44.95
855.154	37.39
855.447	37.57
855.739	32.56
856.032	25.03
856.324	25.88
856.616	38.55
856.909	3.21
857.201	-0.15
857.493	15.32
857.785	33.66
858.077	29.62
858.369	35.82
858.661	30.91
858.953	44.83
859.245	60.24
859.537	11.35
859.829	32.52
860.12	36.4
860.412	23.75
860.703	29.93
860.995	39.5
861.286	-24.9
861.578	41.48
861.869	41.46
862.16	33.07
862.452	21.33
862.743	21.46
863.034	51.71
863.325	27.48
863.616	37.09
863.907	43.76
864.198	31.59
864.488	24.94
864.779	43.32
865.07	28.13
865.36	16.16
865.651	55.52
865.941	38.07
866.232	36.53
866.522	3.14
866.813	28.05
867.103	47.22
867.393	39.93
867.683	30.47
867.973	40.04
868.263	7.92
868.553	44.36
868.843	31.82
869.133	24.98
869.423	24.28
869.713	24.51
870.002	48.81
870.292	6.18
870.582	48.02
870.871	51.73
871.161	8.08
871.45	18.26
871.739	41.92
872.029	61.84
872.318	17.81
872.607	34.56
872.896	69.26
873.185	30.84
873.474	-1.64
873.763	44.32
874.052	11.67
874.341	24.63
874.63	30.54
874.918	48.26
875.207	-10.91
875.496	24.26
875.784	70.3
876.073	72.21
876.361	39.79
876.649	20.86
876.938	42.95
877.226	48.44
877.514	25.71
877.802	15.9
878.09	22.3
878.378	70.13
878.666	56.23
878.954	33.65
879.242	52.89
879.53	32.36
879.817	18.32
880.105	42.48
880.392	13.38
880.68	28.47
880.967	26.46
881.255	34.56
881.542	34.28
881.83	53.05
882.117	41.59
882.404	51.3
882.691	1.81
882.978	37.83
883.265	49.51
883.552	38.55
883.839	30.8
884.126	41.69
884.413	41.27
884.699	50.11
884.986	38.29
885.273	36.18
885.559	36.18
885.846	36.18
