Data from 0139_chest_Reflection__2__185.txt Node

Date: Mon Aug 28 20:16:26 CDT 2023
User: ToomeyLab
Spectrometer: FLMS14357
Trigger mode: 0
Integration Time (sec): 1.000000E-2
Scans to average: 100
Electric dark correction enabled: true
Nonlinearity correction enabled: false
Boxcar width: 0
XAxis mode: Wavelengths
Number of Pixels in Spectrum: 2048
>>>>>Begin Spectral Data<<<<<
189.047	-58.28
189.435	-58.28
189.823	-58.28
190.211	-46.19
190.599	-75.2
190.987	28.92
191.375	153.55
191.763	65.39
192.151	-114.3
192.538	-12.9
192.926	169.24
193.314	635.67
193.702	671.35
194.089	67.15
194.477	324.69
194.864	-108.82
195.252	-205.68
195.639	85
196.027	85.75
196.414	65.61
196.801	-37.85
197.189	25.61
197.576	-55.61
197.963	-3624.82
198.351	6.19
198.738	40.94
199.125	-26.81
199.512	-24.55
199.899	8.57
200.286	-24.57
200.673	66.7
201.06	19.25
201.447	-31.44
201.833	-38.6
202.22	10.4
202.607	4.33
202.994	29.69
203.38	13.45
203.767	11.89
204.154	-42.32
204.54	-37.51
204.927	-45.89
205.313	28.02
205.699	-14.9
206.086	6.77
206.472	-11.77
206.858	-11.94
207.245	-1.58
207.631	20.64
208.017	7.36
208.403	-5.47
208.789	15.77
209.175	-27.47
209.561	-58.1
209.947	5.95
210.333	-29.57
210.719	39.09
211.105	17.13
211.491	-32.9
211.876	26.64
212.262	-14.22
212.648	16.23
213.034	2.82
213.419	-2.46
213.805	17.54
214.19	4.97
214.576	-9.37
214.961	-25.56
215.346	-9.35
215.732	28.33
216.117	-32.41
216.502	10.35
216.888	-40.28
217.273	-44.05
217.658	19.91
218.043	19.1
218.428	4.14
218.813	-6.4
219.198	12.01
219.583	15.49
219.968	21.76
220.353	-42.26
220.738	10.17
221.122	18.71
221.507	-25.96
221.892	16.91
222.276	7.88
222.661	-10.13
223.046	11.29
223.43	1.18
223.815	17.79
224.199	9.24
224.583	-3.61
224.968	5.51
225.352	3.52
225.736	-0.97
226.121	-7.02
226.505	2.19
226.889	-0.31
227.273	7.48
227.657	12.79
228.041	2.57
228.425	2.05
228.809	0.52
229.193	5.84
229.577	5.98
229.961	1.97
230.344	3.52
230.728	3.17
231.112	3.78
231.495	3.75
231.879	3.5
232.263	2.97
232.646	2.53
233.03	4.32
233.413	5.36
233.797	4.32
234.18	2.99
234.563	2.62
234.946	7.52
235.33	2.07
235.713	0.91
236.096	4.88
236.479	2.66
236.862	4.03
237.245	3
237.628	2.87
238.011	5.28
238.394	4.71
238.777	4.39
239.16	2.64
239.543	1.23
239.925	3.55
240.308	2.37
240.691	3.37
241.073	0.81
241.456	3.06
241.838	2.26
242.221	6
242.603	3.32
242.986	3.34
243.368	4.16
243.75	3.35
244.133	3.06
244.515	3.21
244.897	3.39
245.279	3.99
245.661	3.25
246.043	3.29
246.425	3.17
246.807	4.13
247.189	2.59
247.571	3.93
247.953	3.62
248.335	3.54
248.717	3.25
249.098	3.66
249.48	3.69
249.862	3.51
250.243	3.15
250.625	4
251.006	3.33
251.388	4.3
251.769	4.15
252.151	4.2
252.532	3.14
252.913	4.36
253.295	2.46
253.676	3.18
254.057	3.2
254.438	3.41
254.819	3.37
255.2	4.21
255.581	3.29
255.962	3.71
256.343	4.87
256.724	1.95
257.105	3.36
257.486	2.96
257.867	2.45
258.247	3.01
258.628	4.82
259.009	2.66
259.389	2.62
259.77	3.21
260.15	2.55
260.531	2.47
260.911	3.4
261.292	3.15
261.672	3.37
262.052	3.21
262.432	3.4
262.813	3.61
263.193	3.12
263.573	3.04
263.953	3.03
264.333	3.4
264.713	3.28
265.093	3.16
265.473	2.29
265.853	2.55
266.233	2.41
266.612	3.17
266.992	2.89
267.372	3.29
267.752	4.13
268.131	3.69
268.511	2.79
268.89	3.29
269.27	2.74
269.649	2.7
270.029	3.65
270.408	3.45
270.787	3.09
271.167	2.95
271.546	3.29
271.925	3.19
272.304	3.14
272.683	3.53
273.062	3.33
273.441	3.49
273.82	3.28
274.199	2.6
274.578	3.31
274.957	3.4
275.336	3.71
275.715	3.82
276.093	2.38
276.472	2.79
276.851	2.61
277.229	3.7
277.608	3.41
277.986	3.27
278.365	3.29
278.743	3.41
279.122	3.29
279.5	2.48
279.878	2.29
280.257	2.75
280.635	3.04
281.013	3.24
281.391	3.04
281.769	3.05
282.147	3.52
282.525	3.09
282.903	2.81
283.281	3.06
283.659	3.33
284.037	3.16
284.415	3.05
284.792	3.08
285.17	3.05
285.548	3.21
285.925	3.53
286.303	3.01
286.68	3.44
287.058	3.17
287.435	2.91
287.813	3.03
288.19	3.46
288.567	3.03
288.945	3.16
289.322	3.42
289.699	3.51
290.076	3.7
290.453	3.53
290.83	2.27
291.207	2.51
291.584	3.14
291.961	3.47
292.338	2.9
292.715	2.92
293.092	3.33
293.469	3.31
293.845	3.03
294.222	2.9
294.599	3.31
294.975	3.28
295.352	2.77
295.728	3.41
296.105	3.38
296.481	3
296.858	3.91
297.234	3.47
297.61	3.74
297.986	3.12
298.363	3.37
298.739	3.01
299.115	3.05
299.491	3.3
299.867	3.21
300.243	3.3
300.619	3.15
300.995	3.55
301.371	3.3
301.746	3.19
302.122	3.27
302.498	3.32
302.874	3.73
303.249	2.91
303.625	3.71
304	2.83
304.376	2.68
304.751	2.8
305.127	3.06
305.502	3.06
305.878	3.17
306.253	3.41
306.628	3.42
307.003	3.29
307.378	3.51
307.754	3.59
308.129	3.08
308.504	3.72
308.879	3.21
309.254	3.5
309.629	3.14
310.003	3.35
310.378	2.8
310.753	3.14
311.128	3.12
311.502	3.45
311.877	3.76
312.252	3.32
312.626	3.66
313.001	3.58
313.375	3.46
313.75	3.34
314.124	3.42
314.498	3.49
314.873	3.52
315.247	3.75
315.621	3.18
315.995	3.97
316.369	3.46
316.743	2.98
317.117	3.62
317.491	2.68
317.865	3.31
318.239	3.21
318.613	3.48
318.987	3.86
319.361	3.77
319.734	3.51
320.108	3.81
320.482	3.65
320.855	3.5
321.229	3.34
321.602	3.61
321.976	2.63
322.349	3.65
322.723	2.77
323.096	4.11
323.469	3.56
323.843	3.27
324.216	3.73
324.589	3.24
324.962	3.87
325.335	3.53
325.708	2.82
326.081	3.51
326.454	3.75
326.827	3.86
327.2	3.35
327.573	3.55
327.945	3.6
328.318	3.56
328.691	3.19
329.063	2.66
329.436	2.89
329.809	3.75
330.181	3.19
330.553	3.1
330.926	3.82
331.298	3.55
331.671	3.5
332.043	3.16
332.415	3.49
332.787	3.39
333.159	3.52
333.532	4.11
333.904	3.22
334.276	3.15
334.648	3.77
335.02	3.6
335.391	3.37
335.763	3.33
336.135	3.52
336.507	3.66
336.879	3
337.25	4.03
337.622	3.22
337.993	3.33
338.365	3.43
338.736	3.91
339.108	3.3
339.479	2.99
339.851	3.42
340.222	3.54
340.593	3.43
340.964	3.35
341.336	3.41
341.707	3.46
342.078	3.2
342.449	3.88
342.82	3.45
343.191	3.65
343.562	3.14
343.933	3.31
344.303	3.36
344.674	3.33
345.045	3.54
345.416	3.44
345.786	3.92
346.157	3.53
346.527	2.77
346.898	3.15
347.268	3.44
347.639	2.98
348.009	3.14
348.38	3.45
348.75	3.25
349.12	3.64
349.49	3.45
349.861	3.1
350.231	3.06
350.601	3.97
350.971	3.88
351.341	3.73
351.711	3.68
352.081	3.46
352.45	3.69
352.82	3.65
353.19	3.9
353.56	3.54
353.929	3.39
354.299	3.15
354.669	3.78
355.038	3.62
355.408	3.64
355.777	3.73
356.147	3.21
356.516	3.76
356.885	3.98
357.254	3.7
357.624	3.41
357.993	3.51
358.362	3.31
358.731	3.58
359.1	3.6
359.469	3.52
359.838	3.47
360.207	3.63
360.576	3.81
360.945	3.47
361.314	3.44
361.682	3.26
362.051	3.73
362.42	3.6
362.788	3.33
363.157	3.63
363.525	3.38
363.894	3.64
364.262	3.72
364.631	3.32
364.999	3.63
365.367	3.76
365.735	3.4
366.104	3.75
366.472	3.44
366.84	3.45
367.208	3.57
367.576	3.22
367.944	3.88
368.312	3.61
368.68	3.55
369.048	3.74
369.416	3.52
369.783	3.55
370.151	3.76
370.519	3.77
370.886	3.67
371.254	3.54
371.621	3.29
371.989	3.77
372.356	3.79
372.724	3.86
373.091	3.79
373.458	3.45
373.826	3.81
374.193	3.55
374.56	3.43
374.927	3.38
375.294	3.6
375.661	3.73
376.028	3.42
376.395	3.28
376.762	3.91
377.129	3.74
377.496	3.6
377.863	3.94
378.229	3.46
378.596	3.84
378.963	3.76
379.329	3.79
379.696	3.61
380.062	3.72
380.429	3.54
380.795	3.7
381.161	3.78
381.528	4.13
381.894	3.51
382.26	3.66
382.626	3.93
382.993	3.78
383.359	3.8
383.725	3.86
384.091	3.54
384.457	3.71
384.823	3.85
385.188	3.75
385.554	3.76
385.92	3.86
386.286	3.77
386.651	3.55
387.017	3.73
387.383	3.85
387.748	3.69
388.114	3.68
388.479	3.54
388.845	3.6
389.21	3.56
389.575	3.98
389.94	3.89
390.306	3.7
390.671	3.67
391.036	3.59
391.401	3.91
391.766	4.06
392.131	3.78
392.496	3.63
392.861	3.64
393.226	3.81
393.591	3.56
393.956	3.7
394.32	3.55
394.685	3.81
395.05	3.61
395.414	3.77
395.779	3.53
396.143	3.74
396.508	3.52
396.872	3.73
397.236	3.74
397.601	3.78
397.965	3.93
398.329	3.77
398.694	3.79
399.058	3.65
399.422	3.82
399.786	3.92
400.15	4.29
400.514	3.81
400.878	3.53
401.242	3.64
401.605	3.74
401.969	3.64
402.333	3.78
402.697	3.82
403.06	4.02
403.424	4.05
403.787	3.8
404.151	3.56
404.514	3.72
404.878	4.01
405.241	3.84
405.604	3.82
405.968	3.7
406.331	3.89
406.694	3.83
407.057	3.96
407.42	3.84
407.783	3.78
408.146	3.86
408.509	3.94
408.872	3.69
409.235	3.88
409.598	3.74
409.961	3.83
410.323	4.33
410.686	4.03
411.049	4.03
411.411	4.05
411.774	4.12
412.136	3.79
412.499	3.74
412.861	3.77
413.223	3.77
413.586	3.76
413.948	3.88
414.31	4.02
414.672	3.74
415.035	3.77
415.397	3.72
415.759	4.2
416.121	3.95
416.483	3.77
416.845	3.78
417.206	4.02
417.568	3.88
417.93	3.84
418.292	3.99
418.653	4.01
419.015	3.85
419.377	3.61
419.738	4
420.1	3.79
420.461	3.96
420.822	3.89
421.184	3.92
421.545	3.88
421.906	3.95
422.267	3.94
422.629	3.94
422.99	3.78
423.351	3.82
423.712	3.8
424.073	3.86
424.434	4
424.795	3.78
425.155	3.86
425.516	3.9
425.877	3.89
426.238	3.77
426.598	3.79
426.959	3.96
427.32	3.94
427.68	3.91
428.041	3.93
428.401	4.09
428.761	4.06
429.122	3.92
429.482	3.91
429.842	4.04
430.202	4.06
430.563	4.03
430.923	4.18
431.283	3.89
431.643	3.94
432.003	3.99
432.363	4.08
432.722	4.23
433.082	4.06
433.442	4.17
433.802	4.1
434.161	4.18
434.521	4.09
434.881	3.95
435.24	4.03
435.6	3.99
435.959	4.03
436.319	4.07
436.678	4.02
437.037	3.99
437.396	4.08
437.756	4.01
438.115	4.13
438.474	4.26
438.833	4.05
439.192	4.02
439.551	4.1
439.91	4.16
440.269	3.9
440.628	4.02
440.987	4.06
441.345	4.05
441.704	4.1
442.063	4.04
442.421	4.07
442.78	4.11
443.138	4.06
443.497	4.01
443.855	4.04
444.214	4.24
444.572	4.14
444.93	4.16
445.288	4.05
445.647	4.19
446.005	4.19
446.363	4.24
446.721	4.2
447.079	4.25
447.437	4.12
447.795	4.12
448.153	4.2
448.51	4.17
448.868	4.12
449.226	4.05
449.584	4.08
449.941	4.1
450.299	4.18
450.656	4.18
451.014	4.15
451.371	4.18
451.729	4.03
452.086	4.09
452.443	4.46
452.801	4.25
453.158	4.27
453.515	4.24
453.872	4.07
454.229	4.28
454.586	4.35
454.943	4.28
455.3	4.27
455.657	4.28
456.014	4.3
456.371	4.32
456.727	4.3
457.084	4.27
457.441	4.33
457.797	4.38
458.154	4.41
458.51	4.42
458.867	4.25
459.223	4.41
459.58	4.14
459.936	4.22
460.292	4.3
460.648	4.18
461.005	4.29
461.361	4.17
461.717	4.17
462.073	4.23
462.429	4.22
462.785	4.24
463.141	4.28
463.496	4.41
463.852	4.36
464.208	4.32
464.564	4.44
464.919	4.47
465.275	4.42
465.631	4.49
465.986	4.56
466.342	4.65
466.697	4.23
467.052	4.34
467.408	4.45
467.763	4.31
468.118	4.17
468.473	4.4
468.829	4.41
469.184	4.28
469.539	4.39
469.894	4.3
470.249	4.44
470.603	4.38
470.958	4.44
471.313	4.62
471.668	4.38
472.023	4.43
472.377	4.55
472.732	4.53
473.086	4.42
473.441	4.39
473.795	4.55
474.15	4.52
474.504	4.61
474.859	4.42
475.213	4.43
475.567	4.4
475.921	4.73
476.275	4.41
476.63	4.66
476.984	4.57
477.338	4.51
477.692	4.61
478.045	4.46
478.399	4.49
478.753	4.42
479.107	4.4
479.461	4.51
479.814	4.69
480.168	4.58
480.521	4.57
480.875	4.52
481.228	4.55
481.582	4.55
481.935	4.53
482.289	4.54
482.642	4.66
482.995	4.58
483.348	4.54
483.701	4.63
484.055	4.59
484.408	4.5
484.761	4.5
485.114	4.46
485.466	4.42
485.819	4.31
486.172	4.27
486.525	4.37
486.878	4.39
487.23	4.49
487.583	4.56
487.936	4.56
488.288	4.56
488.641	4.49
488.993	4.5
489.345	4.44
489.698	4.48
490.05	4.4
490.402	4.46
490.754	4.51
491.107	4.57
491.459	4.57
491.811	4.65
492.163	4.64
492.515	4.64
492.866	4.68
493.218	4.64
493.57	4.54
493.922	4.5
494.274	4.53
494.625	4.57
494.977	4.73
495.328	4.79
495.68	4.69
496.031	4.85
496.383	4.66
496.734	4.87
497.086	4.82
497.437	4.96
497.788	4.82
498.139	4.74
498.49	4.82
498.842	4.79
499.193	4.7
499.544	4.84
499.894	4.71
500.245	4.72
500.596	4.81
500.947	4.85
501.298	4.92
501.648	4.79
501.999	4.89
502.35	4.96
502.7	5
503.051	4.96
503.401	5.02
503.752	4.91
504.102	4.94
504.452	5.02
504.803	5.08
505.153	5.01
505.503	4.96
505.853	4.88
506.203	4.97
506.553	4.92
506.903	5.01
507.253	5.02
507.603	5
507.953	5.19
508.303	5.23
508.652	5.13
509.002	5.15
509.352	5.01
509.701	4.99
510.051	5.05
510.4	5.06
510.75	5.09
511.099	5
511.449	5.03
511.798	5.09
512.147	5.05
512.496	5.17
512.846	5.03
513.195	5.21
513.544	5.17
513.893	5.07
514.242	5.17
514.591	5.21
514.939	4.92
515.288	5.14
515.637	5.17
515.986	5.1
516.334	5.15
516.683	5.21
517.032	5.27
517.38	5.15
517.729	5.26
518.077	5.37
518.426	5.2
518.774	5.27
519.122	5.3
519.47	5.17
519.819	5.2
520.167	5.2
520.515	5.17
520.863	5.16
521.211	5.27
521.559	5.27
521.907	5.26
522.255	5.28
522.602	5.29
522.95	5.44
523.298	5.45
523.645	5.34
523.993	5.37
524.341	5.49
524.688	5.52
525.036	5.43
525.383	5.52
525.73	5.52
526.078	5.6
526.425	5.54
526.772	5.39
527.119	5.47
527.466	5.38
527.814	5.37
528.161	5.32
528.508	5.36
528.854	5.4
529.201	5.39
529.548	5.35
529.895	5.41
530.242	5.35
530.588	5.22
530.935	5.23
531.282	5.32
531.628	5.36
531.975	5.41
532.321	5.51
532.667	5.52
533.014	5.62
533.36	5.59
533.706	5.67
534.052	5.6
534.399	5.63
534.745	5.58
535.091	5.55
535.437	5.42
535.783	5.56
536.129	5.54
536.474	5.65
536.82	5.66
537.166	5.8
537.512	5.8
537.857	5.78
538.203	5.67
538.549	5.67
538.894	5.72
539.239	5.65
539.585	5.75
539.93	5.76
540.276	5.94
540.621	5.93
540.966	5.84
541.311	6.03
541.656	5.92
542.001	5.95
542.346	5.97
542.691	5.79
543.036	5.74
543.381	5.72
543.726	5.71
544.071	5.83
544.415	5.83
544.76	5.78
545.105	5.98
545.449	5.9
545.794	5.98
546.138	5.97
546.483	6.01
546.827	6.08
547.171	6.1
547.516	6.21
547.86	6.15
548.204	6.1
548.548	6.16
548.892	5.99
549.236	6.02
549.58	6.07
549.924	6.04
550.268	6.24
550.612	6.24
550.956	6.32
551.3	6.42
551.643	6.34
551.987	6.18
552.33	6.4
552.674	6.38
553.017	6.48
553.361	6.39
553.704	6.28
554.048	6.43
554.391	6.46
554.734	6.55
555.077	6.41
555.42	6.47
555.764	6.48
556.107	6.45
556.45	6.46
556.793	6.48
557.135	6.62
557.478	6.66
557.821	6.51
558.164	6.69
558.507	6.58
558.849	6.71
559.192	6.66
559.534	6.6
559.877	6.68
560.219	6.79
560.562	6.66
560.904	6.84
561.246	6.72
561.589	6.87
561.931	6.95
562.273	6.83
562.615	6.82
562.957	6.87
563.299	6.89
563.641	6.79
563.983	6.76
564.325	6.84
564.667	6.86
565.008	6.91
565.35	7.15
565.692	6.86
566.033	6.94
566.375	6.84
566.716	7.01
567.058	7.02
567.399	6.88
567.741	6.98
568.082	6.98
568.423	7.04
568.764	6.89
569.105	7.2
569.447	7.06
569.788	7.08
570.129	7.11
570.47	7.25
570.811	7.27
571.151	7.09
571.492	7.1
571.833	7.28
572.174	7.5
572.514	7.31
572.855	7.24
573.195	7.46
573.536	7.41
573.876	7.09
574.217	7.35
574.557	7.33
574.898	7.35
575.238	7.44
575.578	7.35
575.918	7.48
576.258	7.7
576.598	7.5
576.938	7.41
577.278	7.42
577.618	7.34
577.958	7.6
578.298	7.67
578.638	7.46
578.977	7.75
579.317	7.47
579.657	7.68
579.996	7.82
580.336	7.73
580.675	7.85
581.014	8.04
581.354	7.85
581.693	7.84
582.032	8.07
582.372	7.84
582.711	8.17
583.05	7.77
583.389	8.1
583.728	8.02
584.067	8.13
584.406	7.87
584.745	8.25
585.083	8.12
585.422	7.97
585.761	7.91
586.1	8.34
586.438	8.07
586.777	8.04
587.115	8.32
587.454	8.32
587.792	8.13
588.13	8.48
588.469	8.27
588.807	8.1
589.145	8.36
589.483	8.25
589.821	8.14
590.159	8.35
590.497	8.35
590.835	8.63
591.173	8.39
591.511	8.3
591.849	8.45
592.187	8.62
592.524	8.57
592.862	8.7
593.2	8.47
593.537	8.77
593.875	8.91
594.212	8.67
594.55	8.94
594.887	8.68
595.224	8.65
595.561	8.49
595.899	8.53
596.236	8.73
596.573	8.9
596.91	8.92
597.247	9.06
597.584	8.67
597.921	8.76
598.258	8.78
598.594	8.66
598.931	8.8
599.268	8.98
599.604	9.15
599.941	8.9
600.277	8.97
600.614	9.38
600.95	9.24
601.287	9.2
601.623	9.3
601.959	9.01
602.296	9.08
602.632	9.16
602.968	9.01
603.304	9.22
603.64	9.23
603.976	9.48
604.312	9.03
604.648	9.21
604.984	8.98
605.319	9.51
605.655	9.44
605.991	9.49
606.326	9.44
606.662	9.38
606.998	9.47
607.333	9.42
607.668	9.33
608.004	9.46
608.339	9.61
608.674	9.51
609.01	9.52
609.345	9.73
609.68	9.69
610.015	9.79
610.35	9.9
610.685	9.87
611.02	9.71
611.355	10.06
611.689	9.86
612.024	9.82
612.359	9.98
612.694	10
613.028	9.75
613.363	9.79
613.697	9.8
614.032	9.87
614.366	10.08
614.7	10.19
615.035	9.91
615.369	10.01
615.703	10.19
616.037	10.14
616.371	10.27
616.705	9.97
617.039	9.95
617.373	10.21
617.707	10.2
618.041	10.29
618.375	10.47
618.709	10.69
619.042	10.43
619.376	10.18
619.71	10.24
620.043	10.37
620.377	10.68
620.71	10.02
621.043	10.37
621.377	10.67
621.71	10.67
622.043	10.1
622.376	10.91
622.709	10.49
623.043	10.69
623.376	10.82
623.709	10.81
624.041	10.7
624.374	10.68
624.707	10.45
625.04	10.64
625.373	10.72
625.705	11.43
626.038	10.77
626.37	10.83
626.703	11.27
627.035	11.35
627.368	11.65
627.7	11.19
628.032	10.98
628.365	10.85
628.697	11.1
629.029	11.17
629.361	11.03
629.693	10.98
630.025	10.99
630.357	11.12
630.689	11.36
631.021	11.31
631.353	11.3
631.684	11.71
632.016	11.11
632.348	10.67
632.679	11.82
633.011	11.63
633.342	11.4
633.674	11.59
634.005	11.29
634.336	11.54
634.668	11.73
634.999	11.73
635.33	11.81
635.661	11.76
635.992	11.74
636.323	11.9
636.654	11.66
636.985	11.54
637.316	11.82
637.647	11.74
637.977	12.03
638.308	11.65
638.639	11.92
638.969	11.84
639.3	11.98
639.63	11.92
639.961	12.34
640.291	12.12
640.622	12.18
640.952	11.8
641.282	12.22
641.612	12.16
641.943	12.2
642.273	12.46
642.603	11.9
642.933	11.84
643.263	12.47
643.592	12.42
643.922	12.41
644.252	12.28
644.582	12.62
644.911	12.52
645.241	12.23
645.571	12.06
645.9	12.32
646.23	12.59
646.559	12.62
646.888	12.85
647.218	11.82
647.547	12.71
647.876	12.75
648.205	12.19
648.534	13.08
648.863	12.7
649.192	12.98
649.521	13.31
649.85	13.22
650.179	12.33
650.508	12.9
650.837	12.98
651.165	12.71
651.494	12.96
651.822	12.82
652.151	12.77
652.479	13.19
652.808	12.95
653.136	12.78
653.465	13.39
653.793	13.43
654.121	13.18
654.449	12.97
654.777	13.14
655.105	13.31
655.433	13.37
655.761	13.24
656.089	13.31
656.417	12.91
656.745	13.76
657.073	13.53
657.4	13.31
657.728	13.83
658.056	13.11
658.383	13.23
658.711	13.53
659.038	13.42
659.365	13.7
659.693	13.44
660.02	13.85
660.347	13.82
660.674	13.69
661.001	13.86
661.329	13.42
661.656	13.66
661.982	13.8
662.309	14.28
662.636	13.67
662.963	13.9
663.29	13.96
663.616	13.92
663.943	14.07
664.27	13.97
664.596	13.74
664.923	14.6
665.249	13.91
665.576	13.45
665.902	14.01
666.228	14.09
666.554	14.25
666.881	14.6
667.207	14.38
667.533	14.76
667.859	13.84
668.185	14.19
668.511	14.96
668.837	14.11
669.162	14.4
669.488	14.08
669.814	14.56
670.139	14.37
670.465	14.66
670.791	14.53
671.116	14.8
671.442	14.88
671.767	14.18
672.092	14.66
672.418	14.72
672.743	15.31
673.068	14.31
673.393	14.87
673.718	13.98
674.043	14.96
674.368	14.91
674.693	15.21
675.018	15.29
675.343	14.87
675.667	14.91
675.992	15.3
676.317	14.78
676.641	15.66
676.966	14.92
677.29	14.9
677.615	15.55
677.939	15.27
678.264	15.09
678.588	15.35
678.912	15.67
679.236	15.12
679.56	15.21
679.885	15.46
680.209	15.02
680.532	16.12
680.856	15.41
681.18	15.97
681.504	15.69
681.828	15.7
682.152	15.85
682.475	15.88
682.799	15.63
683.122	15.33
683.446	15.74
683.769	15.99
684.093	15.55
684.416	16.07
684.739	16.03
685.062	15.91
685.386	14.91
685.709	15.91
686.032	15.66
686.355	15.59
686.678	15.74
687.001	15.81
687.324	15.49
687.646	15.68
687.969	15.85
688.292	16.77
688.614	16.53
688.937	15.8
689.26	15.92
689.582	15.95
689.904	16.45
690.227	16.67
690.549	15.8
690.871	16.48
691.194	16.55
691.516	16.16
691.838	16.17
692.16	16.95
692.482	17.13
692.804	17.1
693.126	16.54
693.448	16.67
693.769	16.7
694.091	16.58
694.413	15.29
694.735	16.8
695.056	16.26
695.378	16.94
695.699	16.82
696.021	16.85
696.342	16.02
696.663	16.37
696.984	16.19
697.306	16.24
697.627	16.39
697.948	16.78
698.269	16.92
698.59	16.37
698.911	16.96
699.232	17.15
699.553	16.8
699.873	16.71
700.194	16.81
700.515	17.11
700.835	17.09
701.156	17.41
701.477	17.52
701.797	16.83
702.117	16.67
702.438	17.52
702.758	17.32
703.078	17.77
703.398	17.03
703.719	18.07
704.039	17.77
704.359	17.25
704.679	16.82
704.999	17.34
705.319	17.78
705.638	17.72
705.958	17.52
706.278	17.51
706.597	16.6
706.917	18.58
707.237	17.64
707.556	17.19
707.876	18.13
708.195	18.4
708.514	18
708.834	16.73
709.153	18.39
709.472	18.31
709.791	18.06
710.11	18.48
710.429	17.23
710.748	19.27
711.067	18.37
711.386	17.87
711.705	17.88
712.023	18.01
712.342	18.36
712.661	17.88
712.979	18.13
713.298	17.94
713.616	18.2
713.935	18.18
714.253	18.16
714.572	18.18
714.89	18.91
715.208	18.86
715.526	18.34
715.844	17.96
716.162	18.27
716.48	18
716.798	18.37
717.116	18.56
717.434	18.77
717.752	18.77
718.069	18.55
718.387	18.37
718.705	18.6
719.022	18.41
719.34	19.23
719.657	18.89
719.975	18.43
720.292	19.26
720.609	19.35
720.927	19.53
721.244	19.18
721.561	18.61
721.878	19.01
722.195	18.44
722.512	18.71
722.829	19.86
723.146	19.67
723.463	18.97
723.779	19.37
724.096	19.31
724.413	19.96
724.729	19.9
725.046	18.29
725.362	19.18
725.679	19.77
725.995	19.15
726.311	19.26
726.628	20.04
726.944	19.43
727.26	19.5
727.576	19.39
727.892	19
728.208	19.98
728.524	19.34
728.84	21.45
729.156	20.53
729.472	19.35
729.787	21.42
730.103	19.93
730.419	20.67
730.734	19.93
731.05	18.64
731.365	19.75
731.681	20.14
731.996	19.34
732.311	19.3
732.626	20.56
732.942	21.09
733.257	21.48
733.572	20.5
733.887	19.39
734.202	21.23
734.517	21.05
734.832	21.76
735.146	21.07
735.461	19.99
735.776	20.07
736.091	20.63
736.405	20.19
736.72	21.59
737.034	20.33
737.349	20.12
737.663	19.59
737.977	20.79
738.292	20.35
738.606	23.07
738.92	20.07
739.234	20.19
739.548	20.74
739.862	21.27
740.176	20.53
740.49	20.84
740.804	19.45
741.117	20.31
741.431	22.18
741.745	20.19
742.058	21.48
742.372	21.79
742.685	22.19
742.999	21.88
743.312	22.3
743.626	22.7
743.939	20.72
744.252	22.19
744.565	20.05
744.878	22.75
745.191	19.97
745.505	23.25
745.817	23.94
746.13	21.62
746.443	21.95
746.756	21.61
747.069	22.25
747.381	19.02
747.694	21.87
748.007	20.99
748.319	20.31
748.632	20.27
748.944	20.69
749.256	22.65
749.569	21.59
749.881	23.21
750.193	21.63
750.505	23.68
750.817	21.68
751.129	20.74
751.441	22.67
751.753	22.52
752.065	22.38
752.377	21.02
752.689	21.21
753	21.54
753.312	24.52
753.624	24.1
753.935	22.28
754.247	21.69
754.558	21.95
754.869	20.76
755.181	23.27
755.492	20.98
755.803	23.29
756.114	21.84
756.425	21.87
756.736	22.31
757.047	21.09
757.358	24.29
757.669	23.28
757.98	22.96
758.291	21.94
758.601	24.71
758.912	23.85
759.223	23.36
759.533	22.27
759.844	23.15
760.154	22.55
760.464	23.29
760.775	23.05
761.085	22.51
761.395	21.78
761.705	22.44
762.016	24.28
762.326	22.51
762.636	20.87
762.945	21.4
763.255	23.9
763.565	21.35
763.875	22.74
764.185	22.56
764.494	23.76
764.804	21.03
765.113	22.48
765.423	23.81
765.732	23.06
766.042	23.47
766.351	23.2
766.66	22.9
766.97	24.68
767.279	25.01
767.588	23.22
767.897	23.93
768.206	23.61
768.515	23.94
768.824	23.16
769.133	24.22
769.441	24.72
769.75	25.86
770.059	25.54
770.367	25.7
770.676	23.62
770.984	22.62
771.293	23.47
771.601	25.66
771.91	23.56
772.218	24.3
772.526	25.2
772.834	23.95
773.142	23.51
773.45	24.37
773.758	24.23
774.066	21.95
774.374	23.25
774.682	27.48
774.99	22.24
775.298	24.9
775.605	22.32
775.913	22.37
776.22	21.2
776.528	23.4
776.835	25.09
777.143	23.76
777.45	24.43
777.757	23.36
778.065	23.15
778.372	27.16
778.679	25.95
778.986	22.38
779.293	23.16
779.6	25.11
779.907	25.1
780.214	25.17
780.52	23.04
780.827	26.31
781.134	27.14
781.44	23.92
781.747	24.57
782.053	25.77
782.36	22.09
782.666	25.8
782.973	26.33
783.279	24.79
783.585	23.06
783.891	23.34
784.197	24.42
784.503	24.13
784.809	25.53
785.115	23.53
785.421	25.07
785.727	24.58
786.033	26.47
786.339	24.54
786.644	21.7
786.95	22.99
787.255	25.04
787.561	25.65
787.866	25.78
788.172	26.43
788.477	26.43
788.782	24.84
789.088	23.84
789.393	27.11
789.698	25.85
790.003	25.55
790.308	26.29
790.613	25.59
790.918	26.08
791.223	24.36
791.527	22.3
791.832	24.02
792.137	26.37
792.441	25.51
792.746	24.47
793.05	23.99
793.355	27.39
793.659	24.68
793.963	24.77
794.268	25.55
794.572	25.86
794.876	22.45
795.18	25.61
795.484	24.19
795.788	21.95
796.092	22.7
796.396	29.08
796.7	27.05
797.004	21.68
797.307	24.86
797.611	25.45
797.915	26.36
798.218	23.18
798.522	28.25
798.825	28.8
799.128	21.53
799.432	27.74
799.735	29.22
800.038	28.89
800.341	25.59
800.644	29.33
800.947	24.81
801.25	26.45
801.553	28.49
801.856	25.86
802.159	25.37
802.462	27.04
802.764	29.72
803.067	22.87
803.37	23.6
803.672	20.25
803.975	25.04
804.277	25.13
804.579	29.06
804.882	27.18
805.184	23.03
805.486	28.61
805.788	21.92
806.09	26.86
806.392	29.39
806.694	29.29
806.996	28.06
807.298	29
807.6	23.36
807.902	23.49
808.203	25.88
808.505	24.7
808.807	22.4
809.108	25.39
809.409	26.49
809.711	25.18
810.012	27.87
810.313	28.68
810.615	21.09
810.916	24.72
811.217	27.03
811.518	20.83
811.819	27.22
812.12	28.28
812.421	26.03
812.722	25.05
813.023	25.36
813.323	20.39
813.624	22.61
813.925	26.73
814.225	28.46
814.526	24.72
814.826	28.4
815.126	20.64
815.427	30.77
815.727	22
816.027	25.32
816.327	25.24
816.627	33.56
816.927	22.2
817.227	26.31
817.527	18.15
817.827	29.83
818.127	21.61
818.427	25.45
818.727	29
819.026	29.5
819.326	23.59
819.625	25.9
819.925	29.38
820.224	24.64
820.524	28.5
820.823	20.75
821.122	26.45
821.421	32.82
821.72	21.26
822.019	30.77
822.318	22.34
822.617	27.07
822.916	27.96
823.215	27.82
823.514	27.01
823.813	27.66
824.111	31.45
824.41	26.63
824.709	29.25
825.007	28.62
825.306	27.94
825.604	29.14
825.902	30.31
826.201	29.83
826.499	29.13
826.797	29.15
827.095	28.51
827.393	30.02
827.691	28.91
827.989	30.51
828.287	27.89
828.585	28.77
828.882	29.47
829.18	27.39
829.478	30.14
829.775	27.79
830.073	30.28
830.37	29.84
830.668	28.08
830.965	28.76
831.263	28.29
831.56	29.77
831.857	28.57
832.154	30.07
832.451	28.87
832.748	31.54
833.045	25.8
833.342	28.43
833.639	25.77
833.936	32.64
834.232	29.25
834.529	28.1
834.826	33.02
835.122	29.25
835.419	31.34
835.715	32.6
836.012	28.55
836.308	30.25
836.604	29.96
836.901	32.6
837.197	31.35
837.493	29.54
837.789	29.79
838.085	34.73
838.381	30.77
838.677	27.77
838.972	29.34
839.268	30.64
839.564	29.85
839.86	28.32
840.155	31.74
840.451	29.46
840.746	31.49
841.042	26.36
841.337	26.63
841.632	24.54
841.928	19.88
842.223	35.59
842.518	30.69
842.813	37.64
843.108	28.4
843.403	30.66
843.698	26.99
843.993	30.53
844.287	40.69
844.582	29.88
844.877	30.01
845.171	26.1
845.466	21.25
845.761	26.08
846.055	25
846.349	20.58
846.644	22.31
846.938	10.58
847.232	26.67
847.526	23.46
847.82	15.01
848.114	14.97
848.408	18.04
848.702	22.99
848.996	24.3
849.29	23.7
849.584	15.45
849.877	26.16
850.171	14.54
850.465	32.15
850.758	21.41
851.052	22.28
851.345	29.7
851.638	39.28
851.932	32.32
852.225	33.52
852.518	26.58
852.811	25.06
853.104	32.43
853.397	24.65
853.69	25.8
853.983	26.89
854.276	34.76
854.569	26.49
854.861	16.72
855.154	17.68
855.447	19.46
855.739	19.03
856.032	19.28
856.324	21.3
856.616	19.21
856.909	8.23
857.201	20.47
857.493	45.08
857.785	24.6
858.077	15.8
858.369	35.14
858.661	40
858.953	33.51
859.245	37.06
859.537	19.7
859.829	26.79
860.12	27.39
860.412	31.13
860.703	26.23
860.995	17.17
861.286	29.27
861.578	21.78
861.869	27.03
862.16	23.17
862.452	48.37
862.743	24.83
863.034	43.56
863.325	30.09
863.616	17.14
863.907	19.04
864.198	15.8
864.488	21.19
864.779	16.76
865.07	36.72
865.36	28.68
865.651	33.26
865.941	33.23
866.232	8.58
866.522	20.24
866.813	19.51
867.103	35.91
867.393	28.41
867.683	40.74
867.973	16.37
868.263	8.69
868.553	11.95
868.843	36.63
869.133	46.22
869.423	50.22
869.713	28.53
870.002	21.61
870.292	22.48
870.582	49.12
870.871	27.38
871.161	27.66
871.45	25.42
871.739	32.9
872.029	22.57
872.318	24.95
872.607	46.88
872.896	31.67
873.185	24.87
873.474	21.11
873.763	7.16
874.052	7.73
874.341	7.23
874.63	34.1
874.918	19.99
875.207	32.93
875.496	32.93
875.784	38.95
876.073	-8.53
876.361	19.35
876.649	16.68
876.938	29.54
877.226	18.65
877.514	26.23
877.802	42.58
878.09	41.82
878.378	38.38
878.666	49.79
878.954	15.81
879.242	-12.19
879.53	14.43
879.817	18.75
880.105	32.74
880.392	25.95
880.68	25.81
880.967	22.19
881.255	35.78
881.542	29.27
881.83	18.16
882.117	52.04
882.404	36.65
882.691	26.98
882.978	20.57
883.265	41.44
883.552	29.6
883.839	19.83
884.126	28.08
884.413	21.3
884.699	25.62
884.986	32.35
885.273	29.05
885.559	29.05
885.846	29.05
