Data from 97283_chest_Reflection__1__32.txt Node

Date: Fri Sep 23 19:58:00 CDT 2022
User: ToomeyLab
Spectrometer: FLMS14357
Trigger mode: 0
Integration Time (sec): 1.000000E-2
Scans to average: 100
Electric dark correction enabled: true
Nonlinearity correction enabled: false
Boxcar width: 0
XAxis mode: Wavelengths
Number of Pixels in Spectrum: 2048
>>>>>Begin Spectral Data<<<<<
189.047	10.89
189.435	10.89
189.823	10.89
190.211	241.45
190.599	-3053.44
190.987	111.26
191.375	1105.15
191.763	94.99
192.151	-73.28
192.538	80.69
192.926	111.58
193.314	100.09
193.702	105.08
194.089	60.79
194.477	23.85
194.864	-256.15
195.252	86.25
195.639	-24.94
196.027	-49.35
196.414	480.33
196.801	203.07
197.189	29.73
197.576	-275.67
197.963	-26.85
198.351	47.5
198.738	-29.37
199.125	48.25
199.512	34.16
199.899	36.07
200.286	-31.37
200.673	16.99
201.06	7.97
201.447	77.33
201.833	-3.74
202.22	23.27
202.607	7.88
202.994	23.84
203.38	-17.41
203.767	-48.9
204.154	15.94
204.54	16.51
204.927	12.47
205.313	19.5
205.699	3.84
206.086	19.32
206.472	14.58
206.858	13.89
207.245	44.12
207.631	7.31
208.017	12.01
208.403	21.51
208.789	14.3
209.175	36.31
209.561	16.71
209.947	24.68
210.333	-8.67
210.719	-21.56
211.105	14.44
211.491	16.2
211.876	35.97
212.262	3.25
212.648	14.6
213.034	-20.86
213.419	-35.12
213.805	33.58
214.19	-2.04
214.576	8.79
214.961	25.58
215.346	-6.8
215.732	29.09
216.117	27.86
216.502	15.24
216.888	24.09
217.273	29.68
217.658	-21.84
218.043	5.01
218.428	-8.92
218.813	26.78
219.198	9.81
219.583	-12.21
219.968	28.78
220.353	-9.7
220.738	14.1
221.122	7.79
221.507	10.88
221.892	-6.44
222.276	-21.99
222.661	8.43
223.046	16.1
223.43	5.58
223.815	10.86
224.199	6.18
224.583	12.25
224.968	-3.74
225.352	6.2
225.736	3.98
226.121	10.74
226.505	1.69
226.889	3.11
227.273	5.63
227.657	-1.89
228.041	-1.13
228.425	4.9
228.809	3.55
229.193	6.33
229.577	3.08
229.961	3.14
230.344	3.1
230.728	3.09
231.112	3.26
231.495	2.75
231.879	1.4
232.263	3.11
232.646	3.29
233.03	2.67
233.413	4.19
233.797	3.27
234.18	5.53
234.563	2.29
234.946	4.81
235.33	2.21
235.713	3.76
236.096	0.54
236.479	1.88
236.862	2.83
237.245	5.67
237.628	4.35
238.011	5.19
238.394	3.21
238.777	2.37
239.16	2.85
239.543	3.44
239.925	4.45
240.308	4.08
240.691	3.81
241.073	2.63
241.456	3.3
241.838	5.88
242.221	4.89
242.603	3.7
242.986	2.43
243.368	3.28
243.75	3.4
244.133	3.38
244.515	3.25
244.897	3.46
245.279	4.18
245.661	3.51
246.043	3.84
246.425	3.38
246.807	2.19
247.189	4.27
247.571	3.46
247.953	3.48
248.335	3.45
248.717	3.28
249.098	3.25
249.48	3.15
249.862	3.32
250.243	3.24
250.625	3.5
251.006	4.25
251.388	3.3
251.769	4.23
252.151	2.19
252.532	3.16
252.913	4.01
253.295	3.41
253.676	2.84
254.057	3.02
254.438	3.62
254.819	3.62
255.2	3.37
255.581	4.31
255.962	2.47
256.343	4.74
256.724	3.51
257.105	4.28
257.486	2.53
257.867	3.18
258.247	4.1
258.628	3.85
259.009	2.69
259.389	3.15
259.77	2.8
260.15	3.25
260.531	3.25
260.911	3.47
261.292	3.33
261.672	2.72
262.052	3.05
262.432	3
262.813	3.38
263.193	2.95
263.573	3.14
263.953	3.47
264.333	3.36
264.713	2.93
265.093	3.07
265.473	2.7
265.853	2.37
266.233	2.36
266.612	3.29
266.992	4.37
267.372	3.16
267.752	3.85
268.131	2.93
268.511	2.73
268.89	3.1
269.27	2.93
269.649	3.01
270.029	2.95
270.408	3.36
270.787	2.54
271.167	3.07
271.546	2.94
271.925	2.98
272.304	2.72
272.683	3.43
273.062	2.72
273.441	2.64
273.82	3.15
274.199	2.98
274.578	3
274.957	3.02
275.336	3.04
275.715	3
276.093	3.97
276.472	3.73
276.851	3.63
277.229	3.1
277.608	2.69
277.986	2.78
278.365	3.28
278.743	3.42
279.122	2.94
279.5	3.04
279.878	2.82
280.257	2.79
280.635	2.56
281.013	2.17
281.391	2.9
281.769	3.26
282.147	2.86
282.525	3.2
282.903	2.75
283.281	2.66
283.659	2.75
284.037	3.06
284.415	2.44
284.792	2.95
285.17	2.96
285.548	2.9
285.925	3.21
286.303	3.48
286.68	2.86
287.058	3.17
287.435	2.76
287.813	3.03
288.19	2.99
288.567	3.07
288.945	2.94
289.322	2.98
289.699	3.19
290.076	3.39
290.453	2.89
290.83	3.45
291.207	2.76
291.584	3.27
291.961	2.92
292.338	3.14
292.715	2.46
293.092	3.35
293.469	3.47
293.845	3.76
294.222	3.51
294.599	3.25
294.975	3.9
295.352	3.04
295.728	3.66
296.105	3.01
296.481	3.23
296.858	3.12
297.234	3.28
297.61	3.05
297.986	3.42
298.363	3.26
298.739	3.44
299.115	3.25
299.491	3.05
299.867	3.01
300.243	3.54
300.619	3.76
300.995	3.35
301.371	2.97
301.746	3.7
302.122	3.14
302.498	3.52
302.874	3.05
303.249	3.79
303.625	3.25
304	3.25
304.376	3.43
304.751	3.68
305.127	3.95
305.502	3.71
305.878	3.81
306.253	3.44
306.628	3.31
307.003	3.29
307.378	3.86
307.754	3.93
308.129	3.1
308.504	3.8
308.879	3.13
309.254	3.86
309.629	3.52
310.003	3.75
310.378	3.96
310.753	3.38
311.128	3.38
311.502	3.4
311.877	3.32
312.252	3.41
312.626	3.5
313.001	3.75
313.375	3.64
313.75	3.26
314.124	3.17
314.498	3.95
314.873	3.88
315.247	3.88
315.621	3.97
315.995	4.13
316.369	3.88
316.743	3.61
317.117	3.36
317.491	3.57
317.865	3.3
318.239	4.13
318.613	3.18
318.987	2.98
319.361	3.45
319.734	3.47
320.108	3.18
320.482	4.05
320.855	3.49
321.229	4.27
321.602	4.28
321.976	4.53
322.349	4.11
322.723	3.99
323.096	3.9
323.469	3.5
323.843	3.63
324.216	4.26
324.589	4.57
324.962	3.89
325.335	3.44
325.708	3.68
326.081	3.66
326.454	3.97
326.827	3.25
327.2	3.59
327.573	4.1
327.945	4.33
328.318	3.5
328.691	3.76
329.063	4.1
329.436	4.25
329.809	4.44
330.181	4.1
330.553	3.3
330.926	3.77
331.298	3.58
331.671	3.84
332.043	4.23
332.415	3.79
332.787	3.82
333.159	4.08
333.532	3.57
333.904	3.64
334.276	3.32
334.648	3.57
335.02	3.36
335.391	3.77
335.763	3.37
336.135	4.02
336.507	4.18
336.879	3.96
337.25	3.73
337.622	4.12
337.993	3.73
338.365	4.11
338.736	4.58
339.108	4.75
339.479	3.78
339.851	4.21
340.222	4.47
340.593	3.75
340.964	4.32
341.336	3.67
341.707	4.63
342.078	3.73
342.449	4.21
342.82	4.23
343.191	3.89
343.562	3.99
343.933	4.65
344.303	4.28
344.674	4.18
345.045	4.21
345.416	3.51
345.786	4.5
346.157	3.86
346.527	3.66
346.898	4.1
347.268	4.09
347.639	3.94
348.009	3.82
348.38	3.68
348.75	4.05
349.12	4.08
349.49	4.2
349.861	4.17
350.231	3.66
350.601	4.04
350.971	4.01
351.341	4.11
351.711	3.98
352.081	3.99
352.45	4.24
352.82	3.82
353.19	4.65
353.56	4.1
353.929	4.31
354.299	4.18
354.669	3.98
355.038	4.34
355.408	4.08
355.777	4.09
356.147	3.85
356.516	4.14
356.885	4.1
357.254	3.99
357.624	3.86
357.993	4.13
358.362	4.22
358.731	4.02
359.1	4.23
359.469	4.07
359.838	4.04
360.207	4.1
360.576	3.81
360.945	3.86
361.314	4.05
361.682	4.14
362.051	4.15
362.42	4.11
362.788	3.98
363.157	4.04
363.525	4.38
363.894	4.19
364.262	3.64
364.631	4.28
364.999	4.12
365.367	4.12
365.735	4.09
366.104	4.17
366.472	4.26
366.84	4.19
367.208	4.33
367.576	4.58
367.944	4.04
368.312	4.35
368.68	3.97
369.048	3.92
369.416	4.26
369.783	4.24
370.151	4.35
370.519	3.94
370.886	4.32
371.254	4.64
371.621	4.56
371.989	4.23
372.356	4.79
372.724	3.87
373.091	3.97
373.458	4.27
373.826	4.24
374.193	4.31
374.56	4.1
374.927	4.21
375.294	4.4
375.661	4.32
376.028	4.45
376.395	4.21
376.762	4.15
377.129	3.96
377.496	4.45
377.863	4.6
378.229	4.25
378.596	4.29
378.963	4.45
379.329	4.42
379.696	4.21
380.062	4.24
380.429	4.38
380.795	4.07
381.161	3.93
381.528	4.56
381.894	4.08
382.26	4.25
382.626	4.3
382.993	4.5
383.359	4.55
383.725	4.56
384.091	4.36
384.457	4.32
384.823	4.16
385.188	4.64
385.554	4.55
385.92	4.54
386.286	4.21
386.651	4.62
387.017	4.5
387.383	4.21
387.748	4.69
388.114	4.45
388.479	4.69
388.845	4.25
389.21	4.14
389.575	4.09
389.94	4.18
390.306	4.1
390.671	4.25
391.036	4.39
391.401	4.85
391.766	4.65
392.131	4.46
392.496	4.44
392.861	4.62
393.226	4.24
393.591	4.29
393.956	4.48
394.32	4.52
394.685	4.64
395.05	4.43
395.414	4.59
395.779	4.28
396.143	4.46
396.508	4.46
396.872	4.51
397.236	4.69
397.601	4.47
397.965	4.67
398.329	4.9
398.694	4.53
399.058	4.53
399.422	4.7
399.786	4.96
400.15	4.82
400.514	4.49
400.878	4.46
401.242	4.54
401.605	4.98
401.969	4.61
402.333	4.47
402.697	4.07
403.06	4.55
403.424	4.64
403.787	4.68
404.151	4.8
404.514	4.37
404.878	4.32
405.241	4.67
405.604	4.68
405.968	4.43
406.331	4.52
406.694	4.69
407.057	4.79
407.42	4.74
407.783	4.77
408.146	4.55
408.509	4.47
408.872	4.73
409.235	4.66
409.598	4.85
409.961	4.91
410.323	4.49
410.686	4.54
411.049	4.62
411.411	4.76
411.774	4.53
412.136	4.53
412.499	4.71
412.861	4.61
413.223	4.71
413.586	4.84
413.948	5.01
414.31	4.59
414.672	4.69
415.035	4.75
415.397	4.74
415.759	4.78
416.121	4.82
416.483	4.75
416.845	4.67
417.206	4.84
417.568	4.84
417.93	4.7
418.292	4.75
418.653	4.7
419.015	4.65
419.377	4.67
419.738	4.79
420.1	4.66
420.461	4.64
420.822	4.8
421.184	4.73
421.545	4.62
421.906	4.64
422.267	4.61
422.629	4.51
422.99	4.53
423.351	4.67
423.712	4.58
424.073	4.55
424.434	4.74
424.795	4.72
425.155	4.7
425.516	4.82
425.877	4.63
426.238	4.72
426.598	4.72
426.959	4.66
427.32	4.72
427.68	4.84
428.041	4.64
428.401	4.64
428.761	4.94
429.122	4.75
429.482	4.68
429.842	5.06
430.202	5.06
430.563	4.7
430.923	4.97
431.283	5.07
431.643	4.84
432.003	4.92
432.363	5.08
432.722	4.81
433.082	4.85
433.442	4.88
433.802	4.96
434.161	4.87
434.521	4.98
434.881	4.81
435.24	4.95
435.6	4.81
435.959	4.85
436.319	4.81
436.678	4.84
437.037	5.03
437.396	4.93
437.756	4.92
438.115	4.94
438.474	4.81
438.833	5.01
439.192	4.98
439.551	4.88
439.91	4.88
440.269	4.98
440.628	4.76
440.987	4.89
441.345	4.79
441.704	4.94
442.063	5.04
442.421	4.89
442.78	4.85
443.138	4.8
443.497	4.98
443.855	4.87
444.214	4.99
444.572	4.98
444.93	4.95
445.288	5.01
445.647	5.13
446.005	4.93
446.363	4.94
446.721	4.92
447.079	5.08
447.437	5.11
447.795	4.92
448.153	4.82
448.51	4.87
448.868	4.9
449.226	4.99
449.584	4.91
449.941	5
450.299	4.98
450.656	5.02
451.014	5.09
451.371	4.97
451.729	5.01
452.086	5.15
452.443	5.16
452.801	5.03
453.158	5
453.515	5.12
453.872	5.12
454.229	5.23
454.586	5.22
454.943	5.1
455.3	4.98
455.657	5.16
456.014	5.3
456.371	4.92
456.727	5.17
457.084	5.1
457.441	5.27
457.797	5.04
458.154	4.96
458.51	5.07
458.867	5.34
459.223	5.24
459.58	5.25
459.936	5.23
460.292	5.06
460.648	5.24
461.005	5.14
461.361	5.12
461.717	5.08
462.073	5.12
462.429	5.14
462.785	5.17
463.141	5.2
463.496	5.19
463.852	5.42
464.208	5.23
464.564	5.33
464.919	5.39
465.275	5.22
465.631	5.33
465.986	5.22
466.342	5.29
466.697	5.36
467.052	5.3
467.408	5.33
467.763	5.29
468.118	5.25
468.473	5.42
468.829	5.23
469.184	5.34
469.539	5.17
469.894	5.3
470.249	5.35
470.603	5.34
470.958	5.47
471.313	5.46
471.668	5.43
472.023	5.28
472.377	5.29
472.732	5.39
473.086	5.32
473.441	5.34
473.795	5.5
474.15	5.49
474.504	5.41
474.859	5.32
475.213	5.56
475.567	5.31
475.921	5.32
476.275	5.38
476.63	5.32
476.984	5.65
477.338	5.48
477.692	5.4
478.045	5.37
478.399	5.59
478.753	5.41
479.107	5.43
479.461	5.53
479.814	5.43
480.168	5.34
480.521	5.41
480.875	5.61
481.228	5.61
481.582	5.53
481.935	5.63
482.289	5.46
482.642	5.44
482.995	5.61
483.348	5.3
483.701	5.48
484.055	5.41
484.408	5.33
484.761	5.32
485.114	5.16
485.466	5.14
485.819	5.09
486.172	5.13
486.525	5.21
486.878	5.25
487.23	5.3
487.583	5.37
487.936	5.39
488.288	5.37
488.641	5.34
488.993	5.3
489.345	5.28
489.698	5.22
490.05	5.33
490.402	5.3
490.754	5.43
491.107	5.47
491.459	5.39
491.811	5.35
492.163	5.54
492.515	5.53
492.866	5.46
493.218	5.3
493.57	5.29
493.922	5.35
494.274	5.45
494.625	5.49
494.977	5.59
495.328	5.67
495.68	5.68
496.031	5.65
496.383	5.79
496.734	5.7
497.086	5.87
497.437	5.87
497.788	5.75
498.139	5.74
498.49	5.61
498.842	5.64
499.193	5.82
499.544	5.69
499.894	5.77
500.245	5.84
500.596	5.94
500.947	5.68
501.298	5.76
501.648	5.89
501.999	5.88
502.35	5.86
502.7	5.84
503.051	5.84
503.401	5.75
503.752	5.86
504.102	5.84
504.452	5.9
504.803	5.83
505.153	5.94
505.503	5.73
505.853	5.92
506.203	5.9
506.553	5.99
506.903	5.93
507.253	5.91
507.603	5.99
507.953	6.02
508.303	5.95
508.652	5.98
509.002	6.05
509.352	6.03
509.701	5.97
510.051	5.97
510.4	6.11
510.75	5.96
511.099	6.01
511.449	5.85
511.798	6.04
512.147	5.97
512.496	5.97
512.846	6.05
513.195	5.99
513.544	6.08
513.893	5.96
514.242	5.99
514.591	5.93
514.939	6.26
515.288	6.19
515.637	6.11
515.986	6.14
516.334	6.02
516.683	6.22
517.032	6.17
517.38	6.24
517.729	6.06
518.077	6.05
518.426	6.22
518.774	6.15
519.122	6.15
519.47	6.12
519.819	6.2
520.167	6.06
520.515	6.09
520.863	6.12
521.211	6.1
521.559	6.27
521.907	6.22
522.255	6.27
522.602	6.23
522.95	6.23
523.298	6.36
523.645	6.29
523.993	6.36
524.341	6.49
524.688	6.24
525.036	6.33
525.383	6.38
525.73	6.53
526.078	6.32
526.425	6.37
526.772	6.32
527.119	6.32
527.466	6.3
527.814	6.27
528.161	6.4
528.508	6.41
528.854	6.45
529.201	6.34
529.548	6.28
529.895	6.25
530.242	6.14
530.588	6.15
530.935	6.22
531.282	6.26
531.628	6.3
531.975	6.33
532.321	6.41
532.667	6.46
533.014	6.44
533.36	6.57
533.706	6.52
534.052	6.49
534.399	6.54
534.745	6.46
535.091	6.5
535.437	6.46
535.783	6.57
536.129	6.57
536.474	6.66
536.82	6.69
537.166	6.66
537.512	6.62
537.857	6.65
538.203	6.72
538.549	6.57
538.894	6.7
539.239	6.71
539.585	6.92
539.93	6.86
540.276	6.87
540.621	6.98
540.966	6.9
541.311	6.94
541.656	6.85
542.001	7.08
542.346	6.89
542.691	6.68
543.036	6.76
543.381	6.72
543.726	6.75
544.071	6.8
544.415	6.88
544.76	6.87
545.105	6.88
545.449	7.01
545.794	6.94
546.138	7.14
546.483	7.09
546.827	7.21
547.171	7.19
547.516	7.28
547.86	7.11
548.204	7.16
548.548	7.1
548.892	7.17
549.236	7.23
549.58	7.27
549.924	7.54
550.268	7.42
550.612	7.34
550.956	7.5
551.3	7.36
551.643	7.32
551.987	7.53
552.33	7.42
552.674	7.57
553.017	7.5
553.361	7.5
553.704	7.59
554.048	7.57
554.391	7.54
554.734	7.63
555.077	7.4
555.42	7.67
555.764	7.73
556.107	7.63
556.45	7.69
556.793	7.65
557.135	7.87
557.478	7.78
557.821	7.91
558.164	7.82
558.507	7.68
558.849	7.99
559.192	7.99
559.534	8.1
559.877	8.06
560.219	7.87
560.562	8.18
560.904	8.13
561.246	7.98
561.589	8.12
561.931	8.15
562.273	8.22
562.615	8.08
562.957	8.16
563.299	7.96
563.641	8.25
563.983	8.15
564.325	8.27
564.667	8.27
565.008	8.26
565.35	8.51
565.692	8.24
566.033	8.11
566.375	8.36
566.716	8.3
567.058	8.38
567.399	8.11
567.741	8.23
568.082	8.33
568.423	8.3
568.764	8.4
569.105	8.32
569.447	8.34
569.788	8.44
570.129	8.46
570.47	8.59
570.811	8.55
571.151	8.75
571.492	8.34
571.833	8.71
572.174	8.64
572.514	8.81
572.855	8.63
573.195	8.71
573.536	8.86
573.876	8.46
574.217	8.6
574.557	8.7
574.898	8.94
575.238	8.84
575.578	8.81
575.918	8.73
576.258	8.89
576.598	8.88
576.938	8.93
577.278	9
577.618	8.88
577.958	9.06
578.298	8.93
578.638	9
578.977	9
579.317	9.15
579.657	9.14
579.996	9.1
580.336	9.43
580.675	9.07
581.014	9.27
581.354	9.66
581.693	9.22
582.032	9.69
582.372	9.7
582.711	9.45
583.05	9.71
583.389	9.41
583.728	9.69
584.067	9.58
584.406	9.64
584.745	9.82
585.083	9.49
585.422	9.68
585.761	9.72
586.1	9.48
586.438	9.42
586.777	9.56
587.115	9.88
587.454	9.5
587.792	9.72
588.13	9.81
588.469	9.8
588.807	9.66
589.145	9.84
589.483	10.02
589.821	10.04
590.159	9.81
590.497	9.83
590.835	9.62
591.173	10
591.511	10.06
591.849	9.99
592.187	9.98
592.524	10.32
592.862	10.17
593.2	10.4
593.537	10.01
593.875	10.15
594.212	10.39
594.55	10.03
594.887	10.22
595.224	10.18
595.561	10.27
595.899	10.12
596.236	10.15
596.573	10.2
596.91	10.25
597.247	10.48
597.584	10.4
597.921	10.47
598.258	10.44
598.594	10.38
598.931	10.45
599.268	10.49
599.604	10.43
599.941	10.53
600.277	10.58
600.614	10.64
600.95	10.63
601.287	10.74
601.623	10.68
601.959	10.53
602.296	10.6
602.632	10.71
602.968	10.53
603.304	11.04
603.64	10.84
603.976	10.87
604.312	11.08
604.648	10.94
604.984	10.9
605.319	10.91
605.655	10.94
605.991	10.88
606.326	10.99
606.662	10.9
606.998	11.22
607.333	10.87
607.668	10.87
608.004	11.07
608.339	11.09
608.674	11.01
609.01	11.28
609.345	11.39
609.68	11.27
610.015	11.23
610.35	11.11
610.685	10.96
611.02	11.32
611.355	11.42
611.689	11.45
612.024	11.52
612.359	11.24
612.694	11.53
613.028	11.77
613.363	11.84
613.697	11.54
614.032	11.64
614.366	11.61
614.7	11.93
615.035	11.8
615.369	12.09
615.703	11.88
616.037	11.67
616.371	12.01
616.705	11.56
617.039	11.97
617.373	11.95
617.707	12.06
618.041	12.24
618.375	12.24
618.709	11.9
619.042	12.22
619.376	12.35
619.71	12.48
620.043	12.26
620.377	12.09
620.71	12.04
621.043	12.35
621.377	12.04
621.71	12.68
622.043	12.07
622.376	11.77
622.709	12.05
623.043	12.13
623.376	12.66
623.709	12.17
624.041	12.64
624.374	12.21
624.707	12.55
625.04	12.73
625.373	12.79
625.705	12.59
626.038	12.02
626.37	12.41
626.703	12.48
627.035	12.68
627.368	12.95
627.7	12.73
628.032	12.9
628.365	12.58
628.697	12.72
629.029	12.91
629.361	12.9
629.693	12.46
630.025	13.17
630.357	13.12
630.689	12.81
631.021	12.49
631.353	13.1
631.684	12.94
632.016	13.39
632.348	12.73
632.679	13.27
633.011	13.18
633.342	13.22
633.674	13.48
634.005	13.17
634.336	13.47
634.668	13.38
634.999	13.59
635.33	13.23
635.661	13.54
635.992	13.36
636.323	13.63
636.654	13.69
636.985	13.61
637.316	13.3
637.647	13.64
637.977	13.7
638.308	13.54
638.639	13.22
638.969	13.41
639.3	13.71
639.63	13.73
639.961	13.98
640.291	13.69
640.622	13.44
640.952	13.87
641.282	14.09
641.612	14.05
641.943	13.5
642.273	14.23
642.603	13.92
642.933	14.03
643.263	13.8
643.592	14
643.922	13.98
644.252	14.36
644.582	14.33
644.911	13.94
645.241	13.98
645.571	14.63
645.9	14.43
646.23	14.59
646.559	13.84
646.888	14.55
647.218	14.29
647.547	14.42
647.876	14.19
648.205	14.43
648.534	14.47
648.863	14.56
649.192	14.97
649.521	14.57
649.85	14.3
650.179	14.3
650.508	14.61
650.837	14.74
651.165	14.94
651.494	14.53
651.822	15.09
652.151	14.8
652.479	14.61
652.808	14.75
653.136	14.85
653.465	14.69
653.793	14.52
654.121	14.81
654.449	15.21
654.777	14.78
655.105	14.91
655.433	14.64
655.761	15.34
656.089	15.09
656.417	14.97
656.745	15.42
657.073	14.71
657.4	15.46
657.728	15.1
658.056	15.77
658.383	15.31
658.711	14.91
659.038	15.3
659.365	15.16
659.693	15.79
660.02	15.27
660.347	15.25
660.674	14.79
661.001	15.69
661.329	15.25
661.656	15.32
661.982	15.71
662.309	15.16
662.636	15.34
662.963	15.77
663.29	15.49
663.616	15.84
663.943	15.74
664.27	15.2
664.596	15.95
664.923	16.17
665.249	15.85
665.576	16.03
665.902	15.36
666.228	16.48
666.554	16.3
666.881	15.65
667.207	16.24
667.533	15.64
667.859	15.6
668.185	16.02
668.511	16.05
668.837	16.48
669.162	15.74
669.488	15.8
669.814	16.24
670.139	15.88
670.465	16.19
670.791	16.28
671.116	16.04
671.442	16.34
671.767	16.04
672.092	15.67
672.418	16.59
672.743	16.37
673.068	16.18
673.393	16.51
673.718	16.26
674.043	16.87
674.368	16.93
674.693	16.59
675.018	16.7
675.343	16.76
675.667	16.79
675.992	16.29
676.317	16.74
676.641	16.21
676.966	17.39
677.29	16.64
677.615	16.47
677.939	16.67
678.264	16.07
678.588	16.89
678.912	16.93
679.236	16.33
679.56	16.07
679.885	16.93
680.209	16.67
680.532	16.37
680.856	17.18
681.18	16.84
681.504	17.91
681.828	17.16
682.152	17.2
682.475	16.93
682.799	17.87
683.122	17.01
683.446	17.2
683.769	16.81
684.093	16.95
684.416	17.32
684.739	17.4
685.062	16.58
685.386	17.46
685.709	17.23
686.032	17.02
686.355	17.43
686.678	17.47
687.001	17.2
687.324	17.7
687.646	17.66
687.969	17.57
688.292	17.26
688.614	16.89
688.937	16.88
689.26	17.69
689.582	17.37
689.904	17.74
690.227	17.43
690.549	17.79
690.871	18.17
691.194	16.92
691.516	17.64
691.838	17.33
692.16	17.14
692.482	18.15
692.804	17.64
693.126	18.44
693.448	17.47
693.769	18.43
694.091	17.43
694.413	17.85
694.735	17.77
695.056	17.9
695.378	18.07
695.699	18.66
696.021	18.47
696.342	19.5
696.663	17.98
696.984	18.25
697.306	18.87
697.627	18.48
697.948	18.19
698.269	18.33
698.59	17.75
698.911	18.09
699.232	18.76
699.553	17.6
699.873	18.54
700.194	18.7
700.515	17.82
700.835	18.49
701.156	18.1
701.477	18.76
701.797	18.3
702.117	18.53
702.438	18.11
702.758	18.1
703.078	18.59
703.398	18.34
703.719	19.26
704.039	18.33
704.359	19
704.679	18.73
704.999	17.94
705.319	19.19
705.638	18.58
705.958	19.3
706.278	19.05
706.597	18.64
706.917	18.92
707.237	18.69
707.556	19.42
707.876	19.14
708.195	19.2
708.514	18.15
708.834	17.81
709.153	18.57
709.472	19.4
709.791	18.88
710.11	18.51
710.429	18.98
710.748	19.75
711.067	18.48
711.386	19.26
711.705	18.31
712.023	19.52
712.342	19.55
712.661	19.01
712.979	19.86
713.298	19.45
713.616	19.04
713.935	19.71
714.253	20.7
714.572	20.39
714.89	19.97
715.208	18.8
715.526	19.11
715.844	19.33
716.162	19.2
716.48	20.42
716.798	19.77
717.116	20.07
717.434	19.47
717.752	19.79
718.069	20.35
718.387	19.03
718.705	19.6
719.022	19.86
719.34	19.53
719.657	20.66
719.975	18.6
720.292	20.89
720.609	19.02
720.927	19.66
721.244	21.43
721.561	20.41
721.878	19.72
722.195	20.53
722.512	20.36
722.829	20.83
723.146	20.52
723.463	20.28
723.779	18.98
724.096	20.18
724.413	20.29
724.729	18.76
725.046	19.66
725.362	21.23
725.679	19.69
725.995	19.6
726.311	21.08
726.628	20.36
726.944	20.5
727.26	20.99
727.576	21.36
727.892	19.91
728.208	19.87
728.524	20.71
728.84	20.27
729.156	21.23
729.472	20.22
729.787	21.69
730.103	21.54
730.419	21.46
730.734	20.85
731.05	20.37
731.365	19.97
731.681	20.51
731.996	21.2
732.311	21.28
732.626	20.8
732.942	20.97
733.257	20.71
733.572	20.29
733.887	21.84
734.202	20.84
734.517	22.01
734.832	20.84
735.146	21.19
735.461	21.62
735.776	20.79
736.091	21.28
736.405	21.96
736.72	20.58
737.034	21.84
737.349	21.41
737.663	22.23
737.977	20.82
738.292	21.68
738.606	22.34
738.92	21.52
739.234	20.32
739.548	21.13
739.862	21.41
740.176	20.1
740.49	20.74
740.804	20.5
741.117	21.19
741.431	22.79
741.745	21.88
742.058	20.54
742.372	21.95
742.685	21.66
742.999	22.55
743.312	21.75
743.626	22.37
743.939	20.72
744.252	21.21
744.565	20.22
744.878	21.41
745.191	21.23
745.505	22.39
745.817	22.57
746.13	21.79
746.443	23.2
746.756	23.18
747.069	23.35
747.381	22.37
747.694	21.91
748.007	21.86
748.319	22.06
748.632	20.19
748.944	21.56
749.256	20.42
749.569	21.61
749.881	20.4
750.193	22.75
750.505	22.61
750.817	22.31
751.129	22.35
751.441	21.47
751.753	23.53
752.065	22.13
752.377	21.6
752.689	23.43
753	23.43
753.312	22.45
753.624	21.69
753.935	22.88
754.247	22.9
754.558	24.46
754.869	23.11
755.181	21.39
755.492	23.04
755.803	22.32
756.114	22.95
756.425	23.6
756.736	22.74
757.047	22.1
757.358	25.32
757.669	21.93
757.98	23.21
758.291	24.22
758.601	25.02
758.912	23.01
759.223	25.21
759.533	23.74
759.844	23.38
760.154	23.92
760.464	22.16
760.775	21.58
761.085	21.47
761.395	22.85
761.705	24.21
762.016	23.99
762.326	24.32
762.636	22.28
762.945	23.11
763.255	21.49
763.565	24.34
763.875	24.65
764.185	24.01
764.494	24.89
764.804	23.13
765.113	24.44
765.423	22.85
765.732	24.05
766.042	23.93
766.351	22.91
766.66	22.42
766.97	22.62
767.279	23.59
767.588	23.38
767.897	23.38
768.206	23.71
768.515	22.84
768.824	23.18
769.133	24.71
769.441	24.07
769.75	23.16
770.059	22.69
770.367	24.68
770.676	23.9
770.984	25.76
771.293	24.48
771.601	23.87
771.91	24.26
772.218	24.55
772.526	22.69
772.834	24.04
773.142	25.74
773.45	23.46
773.758	24.89
774.066	22.17
774.374	21.84
774.682	25.5
774.99	23.22
775.298	24
775.605	25.69
775.913	22.86
776.22	24.71
776.528	25.13
776.835	21.29
777.143	24.44
777.45	25.09
777.757	22.11
778.065	22.89
778.372	23.15
778.679	23.67
778.986	24.39
779.293	23.61
779.6	26.75
779.907	26.26
780.214	26.85
780.52	22.81
780.827	26.57
781.134	22.84
781.44	23
781.747	26.86
782.053	26.67
782.36	22.49
782.666	23.8
782.973	26.11
783.279	25.63
783.585	27.25
783.891	23.64
784.197	23.26
784.503	26.33
784.809	21.67
785.115	26.92
785.421	25.71
785.727	26.42
786.033	26.32
786.339	23.45
786.644	27.17
786.95	24.92
787.255	22.85
787.561	28.36
787.866	21.76
788.172	26.14
788.477	28.69
788.782	20.74
789.088	23.41
789.393	24
789.698	23.19
790.003	28.01
790.308	27.55
790.613	22.35
790.918	23.78
791.223	26.46
791.527	25.32
791.832	24.6
792.137	25.58
792.441	25.08
792.746	27.94
793.05	22.08
793.355	28.03
793.659	27.08
793.963	26.43
794.268	27.23
794.572	21.4
794.876	29.97
795.18	22.38
795.484	26.25
795.788	24.69
796.092	25.53
796.396	24.81
796.7	25.16
797.004	24.11
797.307	21.95
797.611	29.01
797.915	28.55
798.218	29.17
798.522	30.34
798.825	25.91
799.128	23.82
799.432	25.21
799.735	28.04
800.038	28.78
800.341	25.26
800.644	21.27
800.947	26.87
801.25	26.99
801.553	20.15
801.856	30.7
802.159	27.34
802.462	25.48
802.764	28.03
803.067	29.07
803.37	23.24
803.672	32.66
803.975	26.24
804.277	25.45
804.579	28.16
804.882	27.7
805.184	27.38
805.486	28.91
805.788	34.04
806.09	24.5
806.392	26.38
806.694	27.56
806.996	27.24
807.298	27.02
807.6	24.75
807.902	28.05
808.203	27.59
808.505	31.05
808.807	26.64
809.108	28.91
809.409	27.3
809.711	29.04
810.012	22.97
810.313	24.01
810.615	21.42
810.916	27.8
811.217	30.52
811.518	26.47
811.819	29.79
812.12	22.77
812.421	25.06
812.722	28.43
813.023	28.69
813.323	29.53
813.624	24.5
813.925	30.5
814.225	28.95
814.526	26.08
814.826	23.02
815.126	32.15
815.427	24.29
815.727	24.95
816.027	20.22
816.327	25.47
816.627	26.28
816.927	30.3
817.227	28.3
817.527	30.26
817.827	28.4
818.127	31.73
818.427	30.72
818.727	24.17
819.026	30.73
819.326	28.06
819.625	24.49
819.925	25.47
820.224	25.26
820.524	30.97
820.823	29.2
821.122	32
821.421	27.31
821.72	24.92
822.019	27.9
822.318	29.2
822.617	28.6
822.916	28.29
823.215	23.12
823.514	24.99
823.813	25.35
824.111	28.7
824.41	28.19
824.709	28.31
825.007	28.67
825.306	27.72
825.604	26.66
825.902	28.67
826.201	27.07
826.499	28.05
826.797	27.41
827.095	26.7
827.393	26.6
827.691	28.09
827.989	29.55
828.287	29.27
828.585	29.19
828.882	28.48
829.18	25.9
829.478	26.81
829.775	27.43
830.073	28.23
830.37	27.77
830.668	27.26
830.965	25.02
831.263	25.78
831.56	29.95
831.857	29.62
832.154	27.78
832.451	25.51
832.748	24.56
833.045	26.37
833.342	30.32
833.639	25.18
833.936	32.27
834.232	28.85
834.529	28.92
834.826	34.13
835.122	25.19
835.419	28.91
835.715	28.72
836.012	23.89
836.308	27.11
836.604	30.74
836.901	26.86
837.197	29.72
837.493	27.31
837.789	28.37
838.085	20.83
838.381	24.55
838.677	29.15
838.972	26.37
839.268	27.15
839.564	26.85
839.86	25.17
840.155	28.97
840.451	26.55
840.746	28.97
841.042	27.09
841.337	28.58
841.632	28.24
841.928	31.88
842.223	31.24
842.518	35.43
842.813	27.63
843.108	25.68
843.403	22.81
843.698	31.91
843.993	33.78
844.287	34.95
844.582	24.07
844.877	33.81
845.171	23.12
845.466	23.32
845.761	35.65
846.055	37.13
846.349	25.19
846.644	20.47
846.938	26.74
847.232	36.67
847.526	21.52
847.82	29.51
848.114	36.12
848.408	40.85
848.702	34.99
848.996	41.46
849.29	30.41
849.584	23.96
849.877	29.83
850.171	36.83
850.465	26.08
850.758	4.36
851.052	30.65
851.345	23.87
851.638	30.59
851.932	30.52
852.225	35.37
852.518	35.2
852.811	8.02
853.104	9.7
853.397	40.35
853.69	32.07
853.983	8.17
854.276	23.54
854.569	30.05
854.861	26.61
855.154	31.66
855.447	58.52
855.739	14.58
856.032	38.33
856.324	36.66
856.616	17.54
856.909	31.11
857.201	30.74
857.493	11.41
857.785	27.65
858.077	37.06
858.369	30.76
858.661	39.25
858.953	2.57
859.245	6.22
859.537	47.89
859.829	7.07
860.12	35.71
860.412	24.88
860.703	28.33
860.995	33.5
861.286	28.01
861.578	35.82
861.869	39.8
862.16	21.01
862.452	55.83
862.743	-0.46
863.034	27.73
863.325	34.19
863.616	30.71
863.907	21.02
864.198	44.32
864.488	33.09
864.779	13.36
865.07	38.86
865.36	24.2
865.651	39.99
865.941	52.65
866.232	29.11
866.522	26.69
866.813	43.09
867.103	56.59
867.393	34.54
867.683	39.96
867.973	35.52
868.263	17.97
868.553	14.75
868.843	15.97
869.133	21.8
869.423	28.74
869.713	2.31
870.002	5.12
870.292	49.89
870.582	30.19
870.871	34.91
871.161	31.1
871.45	33.79
871.739	41.46
872.029	58.93
872.318	43.31
872.607	14.17
872.896	48.5
873.185	34.09
873.474	18.03
873.763	40.86
874.052	25.28
874.341	33.72
874.63	31.24
874.918	45.95
875.207	41.09
875.496	-1.72
875.784	33.54
876.073	40.94
876.361	29.41
876.649	22.95
876.938	44.7
877.226	3.91
877.514	6.05
877.802	45.4
878.09	42.56
878.378	22.13
878.666	31.16
878.954	13.92
879.242	54.17
879.53	19.75
879.817	36.9
880.105	24.65
880.392	49.51
880.68	49.61
880.967	27.98
881.255	32.84
881.542	34.08
881.83	36.85
882.117	59.31
882.404	-4.3
882.691	60.84
882.978	21.2
883.265	13.1
883.552	28.94
883.839	20.34
884.126	30.82
884.413	36.45
884.699	33.91
884.986	36.5
885.273	36.9
885.559	36.9
885.846	36.9
