Data from 97283_forehead_Reflection__1__37.txt Node

Date: Fri Sep 23 19:59:46 CDT 2022
User: ToomeyLab
Spectrometer: FLMS14357
Trigger mode: 0
Integration Time (sec): 1.000000E-2
Scans to average: 100
Electric dark correction enabled: true
Nonlinearity correction enabled: false
Boxcar width: 0
XAxis mode: Wavelengths
Number of Pixels in Spectrum: 2048
>>>>>Begin Spectral Data<<<<<
189.047	26.89
189.435	26.89
189.823	26.89
190.211	-282.68
190.599	-302.29
190.987	113.47
191.375	1189
191.763	124.76
192.151	-69.2
192.538	136.16
192.926	99.65
193.314	93.45
193.702	177.39
194.089	98.6
194.477	46.51
194.864	73.69
195.252	63.06
195.639	213.68
196.027	132.97
196.414	271.14
196.801	-37.53
197.189	38.84
197.576	409
197.963	-96.11
198.351	56.7
198.738	16.11
199.125	-11.21
199.512	11.76
199.899	23.75
200.286	26.75
200.673	22.4
201.06	2.97
201.447	26.78
201.833	34.05
202.22	-3.94
202.607	21.47
202.994	36.62
203.38	-56.36
203.767	-31.36
204.154	14.48
204.54	21.31
204.927	3.46
205.313	36.02
205.699	-8.59
206.086	-33.22
206.472	15.5
206.858	30.14
207.245	0.5
207.631	19.77
208.017	9.56
208.403	6.54
208.789	16.91
209.175	3.95
209.561	22.03
209.947	38.38
210.333	14.13
210.719	-11.46
211.105	22.99
211.491	0.85
211.876	10.58
212.262	0.76
212.648	18.52
213.034	-16.17
213.419	5.75
213.805	42.55
214.19	6.32
214.576	-5.26
214.961	32.19
215.346	-9.12
215.732	37.65
216.117	18.52
216.502	-7.78
216.888	47.93
217.273	-1
217.658	-51.8
218.043	20.03
218.428	-4.24
218.813	28.64
219.198	9.36
219.583	18.15
219.968	28.23
220.353	-4.74
220.738	12.23
221.122	17.02
221.507	15.26
221.892	5.36
222.276	-15.87
222.661	-5.93
223.046	15.01
223.43	-0.67
223.815	4.11
224.199	15.33
224.583	18.31
224.968	-0.87
225.352	3.16
225.736	0.73
226.121	12.54
226.505	8.75
226.889	1.1
227.273	6.81
227.657	2.75
228.041	1.07
228.425	-1.86
228.809	3.75
229.193	0.96
229.577	3.94
229.961	2.18
230.344	2.46
230.728	1.04
231.112	1.16
231.495	1.09
231.879	0.69
232.263	2.81
232.646	1.27
233.03	1.02
233.413	3.42
233.797	1.82
234.18	5.87
234.563	0.77
234.946	4.63
235.33	-0.26
235.713	3.53
236.096	-0.81
236.479	1.37
236.862	1.98
237.245	3.96
237.628	2.37
238.011	2.8
238.394	0.86
238.777	2.74
239.16	2.2
239.543	2.65
239.925	1.28
240.308	3.13
240.691	3.58
241.073	2.16
241.456	0.8
241.838	3.63
242.221	2.51
242.603	2.15
242.986	0.54
243.368	1.25
243.75	2
244.133	1.6
244.515	0.99
244.897	2.29
245.279	2.52
245.661	1.82
246.043	2.43
246.425	1.58
246.807	2.08
247.189	2.04
247.571	2.65
247.953	1.27
248.335	1.76
248.717	1.9
249.098	1.63
249.48	1.46
249.862	1.76
250.243	2.13
250.625	1.83
251.006	2.17
251.388	1.6
251.769	2.44
252.151	1.67
252.532	1.98
252.913	2.62
253.295	2.2
253.676	1.77
254.057	1.83
254.438	1.39
254.819	1.86
255.2	2.49
255.581	3.03
255.962	1.85
256.343	2.38
256.724	1.42
257.105	2.18
257.486	1.56
257.867	2.73
258.247	2.2
258.628	1.84
259.009	1.24
259.389	1.64
259.77	1.5
260.15	1.56
260.531	2.24
260.911	1.92
261.292	1.74
261.672	1.77
262.052	1.63
262.432	1.59
262.813	1.95
263.193	1.9
263.573	2.12
263.953	1.35
264.333	1.68
264.713	2.15
265.093	1.87
265.473	1.98
265.853	1.6
266.233	1.38
266.612	1.79
266.992	2.93
267.372	1.85
267.752	1.8
268.131	2.58
268.511	1.33
268.89	1.42
269.27	1.87
269.649	1.46
270.029	1.49
270.408	2.11
270.787	1.35
271.167	0.88
271.546	2.02
271.925	1.64
272.304	2.38
272.683	2.18
273.062	1.82
273.441	1.78
273.82	1.56
274.199	1.83
274.578	1.04
274.957	1.82
275.336	1.74
275.715	1.67
276.093	2.23
276.472	2.44
276.851	1.88
277.229	1.34
277.608	1.74
277.986	0.91
278.365	2.05
278.743	1.97
279.122	1.65
279.5	1.87
279.878	1.48
280.257	1.64
280.635	0.94
281.013	1.41
281.391	1.64
281.769	2.13
282.147	2.1
282.525	1.92
282.903	1.57
283.281	1.62
283.659	1.89
284.037	1.64
284.415	1.26
284.792	1.46
285.17	1.6
285.548	1.63
285.925	1.53
286.303	2.43
286.68	1.72
287.058	1.77
287.435	1.67
287.813	1.84
288.19	1.65
288.567	2.26
288.945	1.6
289.322	1.85
289.699	2.17
290.076	1.86
290.453	1.85
290.83	1.8
291.207	1.89
291.584	1.77
291.961	1.6
292.338	1.93
292.715	1.41
293.092	1.19
293.469	2.21
293.845	2.45
294.222	2.13
294.599	1.51
294.975	2.19
295.352	1.83
295.728	2.36
296.105	1.85
296.481	1.9
296.858	1.94
297.234	2.28
297.61	1.57
297.986	1.95
298.363	1.85
298.739	2.11
299.115	1.94
299.491	2.08
299.867	2
300.243	1.97
300.619	2.32
300.995	2.18
301.371	1.63
301.746	2.86
302.122	2.24
302.498	2.57
302.874	1.73
303.249	2.03
303.625	2.35
304	1.94
304.376	1.99
304.751	1.45
305.127	2.11
305.502	2.2
305.878	2
306.253	2.33
306.628	2.39
307.003	1.71
307.378	2.95
307.754	2.87
308.129	2.44
308.504	2.15
308.879	2.33
309.254	2.24
309.629	2.37
310.003	2.87
310.378	2.35
310.753	2.51
311.128	2.29
311.502	2.22
311.877	2.99
312.252	2.61
312.626	2.52
313.001	2.89
313.375	2.87
313.75	2.74
314.124	2.43
314.498	2.79
314.873	3.24
315.247	2.92
315.621	3.11
315.995	3.02
316.369	2.97
316.743	2.77
317.117	2.13
317.491	2.45
317.865	3.35
318.239	3.19
318.613	3.01
318.987	2.38
319.361	2.8
319.734	2.99
320.108	2.31
320.482	3.25
320.855	2.55
321.229	3.42
321.602	2.89
321.976	3.23
322.349	3.97
322.723	3.35
323.096	3.15
323.469	2.65
323.843	2.5
324.216	3.47
324.589	3.34
324.962	3.52
325.335	3.08
325.708	3.19
326.081	2.99
326.454	3.77
326.827	3.51
327.2	3.26
327.573	3.33
327.945	3.5
328.318	3.14
328.691	3.56
329.063	3.52
329.436	3.81
329.809	4.2
330.181	3.49
330.553	2.86
330.926	3.41
331.298	3.78
331.671	3.42
332.043	3.78
332.415	3.22
332.787	3.73
333.159	4.02
333.532	3.6
333.904	3.35
334.276	3.2
334.648	3.57
335.02	3.8
335.391	3.61
335.763	3.52
336.135	3.4
336.507	4.15
336.879	3.7
337.25	3.82
337.622	3.84
337.993	3.77
338.365	4.3
338.736	3.97
339.108	4.34
339.479	3.54
339.851	4.37
340.222	4.55
340.593	3.76
340.964	3.91
341.336	4.29
341.707	4.84
342.078	3.84
342.449	3.7
342.82	3.81
343.191	3.97
343.562	4.11
343.933	4.66
344.303	4.1
344.674	3.91
345.045	4.16
345.416	4.18
345.786	4.68
346.157	3.88
346.527	4.33
346.898	4.6
347.268	4.5
347.639	4.18
348.009	4.35
348.38	4.28
348.75	4.68
349.12	4.26
349.49	4.62
349.861	4.6
350.231	4.4
350.601	4.72
350.971	4.71
351.341	4.49
351.711	4.66
352.081	4.62
352.45	4.45
352.82	4.22
353.19	5.14
353.56	4.65
353.929	4.47
354.299	5.02
354.669	4.89
355.038	4.97
355.408	4.29
355.777	4.85
356.147	4.71
356.516	5.07
356.885	5.05
357.254	4.64
357.624	4.47
357.993	5.05
358.362	4.57
358.731	4.69
359.1	5.04
359.469	4.77
359.838	4.69
360.207	4.74
360.576	5.17
360.945	4.85
361.314	5.07
361.682	4.68
362.051	5.09
362.42	5.32
362.788	5.04
363.157	5.28
363.525	5.23
363.894	5.25
364.262	5.11
364.631	5.24
364.999	5.45
365.367	5.18
365.735	5.69
366.104	5.66
366.472	5.46
366.84	5.78
367.208	5.71
367.576	5.57
367.944	5.4
368.312	5.91
368.68	5.33
369.048	5.21
369.416	5.59
369.783	5.25
370.151	5.75
370.519	5.58
370.886	5.69
371.254	6.06
371.621	5.56
371.989	6.11
372.356	6.15
372.724	5.78
373.091	5.71
373.458	5.68
373.826	5.73
374.193	6.03
374.56	6.1
374.927	6.18
375.294	6.12
375.661	5.96
376.028	6.07
376.395	6.21
376.762	6.21
377.129	5.92
377.496	6.52
377.863	6.4
378.229	6.18
378.596	6.01
378.963	6.47
379.329	6.39
379.696	6.31
380.062	6.42
380.429	6.25
380.795	6.39
381.161	6.4
381.528	6.76
381.894	6.56
382.26	6.4
382.626	6.29
382.993	6.78
383.359	6.81
383.725	6.8
384.091	6.48
384.457	7.03
384.823	6.68
385.188	6.82
385.554	6.83
385.92	6.9
386.286	6.8
386.651	6.95
387.017	7.36
387.383	7.01
387.748	6.63
388.114	6.97
388.479	6.82
388.845	6.82
389.21	6.78
389.575	6.9
389.94	6.86
390.306	6.86
390.671	6.97
391.036	7.03
391.401	7.25
391.766	7.07
392.131	6.98
392.496	7.15
392.861	7.04
393.226	7.09
393.591	7.02
393.956	7.16
394.32	7.2
394.685	7.36
395.05	7.32
395.414	7.29
395.779	7.22
396.143	7.18
396.508	7.18
396.872	7.15
397.236	7.43
397.601	7.34
397.965	7.32
398.329	7.42
398.694	7.34
399.058	7.38
399.422	7.72
399.786	7.86
400.15	7.44
400.514	7.49
400.878	7.49
401.242	7.62
401.605	7.99
401.969	7.61
402.333	7.49
402.697	7.34
403.06	7.77
403.424	7.48
403.787	7.67
404.151	7.67
404.514	7.4
404.878	7.68
405.241	7.81
405.604	7.69
405.968	7.65
406.331	7.68
406.694	7.86
407.057	7.75
407.42	7.79
407.783	7.82
408.146	7.8
408.509	7.84
408.872	7.66
409.235	7.87
409.598	8.07
409.961	8.02
410.323	7.8
410.686	7.97
411.049	8.04
411.411	8.03
411.774	7.83
412.136	8
412.499	7.86
412.861	7.87
413.223	7.89
413.586	8.08
413.948	8.12
414.31	7.84
414.672	8.12
415.035	8.02
415.397	8.2
415.759	8.2
416.121	8.36
416.483	8.15
416.845	7.88
417.206	8.21
417.568	8.18
417.93	8.09
418.292	8.31
418.653	8.16
419.015	8.14
419.377	8.23
419.738	8.26
420.1	8.34
420.461	8.15
420.822	8.4
421.184	8.36
421.545	8.35
421.906	8.49
422.267	8.36
422.629	8.37
422.99	8.39
423.351	8.43
423.712	8.34
424.073	8.45
424.434	8.52
424.795	8.64
425.155	8.54
425.516	8.79
425.877	8.51
426.238	8.72
426.598	8.82
426.959	8.79
427.32	8.94
427.68	8.98
428.041	8.98
428.401	9.09
428.761	9.06
429.122	9.34
429.482	9.35
429.842	9.44
430.202	9.5
430.563	9.41
430.923	9.58
431.283	9.8
431.643	9.53
432.003	9.52
432.363	9.77
432.722	10.05
433.082	9.57
433.442	9.82
433.802	9.71
434.161	9.61
434.521	9.86
434.881	9.69
435.24	9.95
435.6	9.88
435.959	10
436.319	10.01
436.678	10.05
437.037	10.21
437.396	10.14
437.756	10.31
438.115	10.15
438.474	10.24
438.833	10.43
439.192	10.41
439.551	10.4
439.91	10.39
440.269	10.58
440.628	10.48
440.987	10.49
441.345	10.55
441.704	10.49
442.063	10.68
442.421	10.48
442.78	10.63
443.138	10.61
443.497	10.96
443.855	10.78
444.214	11
444.572	10.8
444.93	10.82
445.288	11.14
445.647	11.19
446.005	11.12
446.363	11.14
446.721	11.06
447.079	11.11
447.437	11.21
447.795	11.16
448.153	11.01
448.51	11.16
448.868	11.3
449.226	11.29
449.584	11.33
449.941	11.53
450.299	11.6
450.656	11.56
451.014	11.71
451.371	11.72
451.729	11.96
452.086	11.89
452.443	11.74
452.801	12
453.158	11.94
453.515	12.07
453.872	12
454.229	12.22
454.586	12.2
454.943	12.14
455.3	12.15
455.657	12.15
456.014	12.51
456.371	12.4
456.727	12.44
457.084	12.52
457.441	12.79
457.797	12.38
458.154	12.58
458.51	12.67
458.867	13.02
459.223	12.73
459.58	12.85
459.936	12.8
460.292	12.79
460.648	12.93
461.005	12.81
461.361	12.58
461.717	12.6
462.073	12.57
462.429	12.82
462.785	12.96
463.141	12.97
463.496	13.16
463.852	13.13
464.208	13.24
464.564	13.42
464.919	13.29
465.275	13.63
465.631	13.48
465.986	13.5
466.342	13.59
466.697	13.62
467.052	13.67
467.408	13.78
467.763	13.91
468.118	13.83
468.473	13.79
468.829	13.77
469.184	14.02
469.539	13.98
469.894	13.98
470.249	14
470.603	14.33
470.958	14.22
471.313	14.19
471.668	14.32
472.023	14.33
472.377	14.46
472.732	14.56
473.086	14.52
473.441	14.7
473.795	14.81
474.15	14.46
474.504	14.72
474.859	14.69
475.213	14.95
475.567	14.68
475.921	14.72
476.275	14.77
476.63	14.83
476.984	15.24
477.338	14.95
477.692	14.95
478.045	15
478.399	14.96
478.753	15.11
479.107	15.17
479.461	15.11
479.814	15.17
480.168	15.23
480.521	15.16
480.875	15.26
481.228	15.55
481.582	15.38
481.935	15.51
482.289	15.44
482.642	15.43
482.995	15.46
483.348	15.37
483.701	15.44
484.055	15.33
484.408	15.33
484.761	15.14
485.114	14.93
485.466	14.76
485.819	14.77
486.172	14.84
486.525	14.93
486.878	15.04
487.23	15.2
487.583	15.38
487.936	15.53
488.288	15.51
488.641	15.45
488.993	15.37
489.345	15.36
489.698	15.42
490.05	15.49
490.402	15.42
490.754	15.69
491.107	15.89
491.459	15.88
491.811	16.14
492.163	16.32
492.515	16.23
492.866	16.16
493.218	15.98
493.57	15.88
493.922	15.97
494.274	16.17
494.625	16.22
494.977	16.43
495.328	16.78
495.68	16.84
496.031	17
496.383	17.12
496.734	17.12
497.086	17.18
497.437	17.32
497.788	17.26
498.139	17.16
498.49	17.11
498.842	17.11
499.193	17.36
499.544	17.29
499.894	17.37
500.245	17.49
500.596	17.34
500.947	17.42
501.298	17.64
501.648	17.82
501.999	17.73
502.35	17.87
502.7	17.98
503.051	17.93
503.401	17.92
503.752	17.92
504.102	18.31
504.452	18.04
504.803	18.09
505.153	18.22
505.503	18.07
505.853	18.3
506.203	18.34
506.553	18.26
506.903	18.29
507.253	18.25
507.603	18.39
507.953	18.59
508.303	18.65
508.652	18.5
509.002	18.68
509.352	18.63
509.701	18.52
510.051	18.61
510.4	18.67
510.75	18.43
511.099	18.61
511.449	18.64
511.798	18.7
512.147	18.74
512.496	18.85
512.846	18.75
513.195	18.83
513.544	18.95
513.893	18.9
514.242	18.89
514.591	18.97
514.939	19.12
515.288	19.08
515.637	19.13
515.986	19.36
516.334	19.19
516.683	19.49
517.032	19.44
517.38	19.6
517.729	19.5
518.077	19.5
518.426	19.65
518.774	19.64
519.122	19.52
519.47	19.37
519.819	19.41
520.167	19.35
520.515	19.24
520.863	19.29
521.211	19.35
521.559	19.46
521.907	19.54
522.255	19.73
522.602	19.77
522.95	19.65
523.298	19.87
523.645	19.84
523.993	20.1
524.341	20.13
524.688	20.16
525.036	20.13
525.383	20.09
525.73	20.36
526.078	20.12
526.425	20.22
526.772	20.01
527.119	19.96
527.466	19.94
527.814	19.94
528.161	19.9
528.508	20.05
528.854	20.06
529.201	20.02
529.548	20.04
529.895	19.82
530.242	19.44
530.588	19.56
530.935	19.64
531.282	19.79
531.628	19.75
531.975	19.94
532.321	20.07
532.667	20.39
533.014	20.4
533.36	20.47
533.706	20.63
534.052	20.54
534.399	20.46
534.745	20.31
535.091	20.27
535.437	20.36
535.783	20.48
536.129	20.52
536.474	20.84
536.82	20.95
537.166	20.95
537.512	20.97
537.857	21.09
538.203	20.87
538.549	20.91
538.894	21.02
539.239	20.98
539.585	21.3
539.93	21.46
540.276	21.6
540.621	21.66
540.966	21.67
541.311	21.94
541.656	21.64
542.001	21.68
542.346	21.41
542.691	21.29
543.036	21.08
543.381	21.04
543.726	21.12
544.071	21.13
544.415	21.43
544.76	21.43
545.105	21.52
545.449	21.78
545.794	21.82
546.138	21.85
546.483	22.04
546.827	22.13
547.171	22.26
547.516	22.31
547.86	22.22
548.204	22.29
548.548	22.16
548.892	22.12
549.236	22.28
549.58	22.49
549.924	22.63
550.268	22.87
550.612	22.8
550.956	23.12
551.3	22.84
551.643	23.03
551.987	23.28
552.33	23.24
552.674	23.25
553.017	23.16
553.361	23.31
553.704	23.39
554.048	23.34
554.391	23.24
554.734	23.42
555.077	23.16
555.42	23.34
555.764	23.39
556.107	23.53
556.45	23.55
556.793	23.58
557.135	24.03
557.478	23.85
557.821	24.08
558.164	24
558.507	23.92
558.849	24.08
559.192	24.13
559.534	24.12
559.877	24.16
560.219	24.16
560.562	24.19
560.904	24.15
561.246	24.07
561.589	24.32
561.931	24.48
562.273	24.64
562.615	24.46
562.957	24.71
563.299	24.39
563.641	24.62
563.983	24.39
564.325	24.39
564.667	24.59
565.008	24.47
565.35	24.84
565.692	24.53
566.033	24.77
566.375	25.11
566.716	25.04
567.058	24.96
567.399	24.65
567.741	24.86
568.082	24.73
568.423	24.71
568.764	24.83
569.105	24.91
569.447	24.87
569.788	25.12
570.129	24.94
570.47	25.19
570.811	25.23
571.151	25.11
571.492	25.32
571.833	25.43
572.174	25.4
572.514	25.51
572.855	25.39
573.195	25.38
573.536	25.59
573.876	25.3
574.217	25.42
574.557	25.47
574.898	25.7
575.238	25.55
575.578	25.63
575.918	25.65
576.258	25.73
576.598	25.91
576.938	25.74
577.278	25.82
577.618	25.83
577.958	25.95
578.298	26.02
578.638	25.91
578.977	26.16
579.317	26.23
579.657	26.42
579.996	26.24
580.336	26.43
580.675	26.63
581.014	26.61
581.354	26.63
581.693	26.67
582.032	26.8
582.372	27.1
582.711	26.71
583.05	26.84
583.389	27.14
583.728	27.32
584.067	27.1
584.406	26.68
584.745	27.38
585.083	27.16
585.422	27.03
585.761	26.94
586.1	27.14
586.438	27.17
586.777	27.17
587.115	27.37
587.454	27.32
587.792	27.62
588.13	27.58
588.469	27.78
588.807	27.44
589.145	27.41
589.483	27.75
589.821	27.49
590.159	27.79
590.497	27.49
590.835	27.55
591.173	27.62
591.511	27.58
591.849	27.39
592.187	27.5
592.524	27.99
592.862	28.27
593.2	28.06
593.537	28.16
593.875	28.25
594.212	28.06
594.55	28.16
594.887	28.38
595.224	28.13
595.561	28.36
595.899	28.16
596.236	28.27
596.573	28.32
596.91	28.12
597.247	28.51
597.584	28.73
597.921	28.54
598.258	28.43
598.594	28.29
598.931	28.25
599.268	28.19
599.604	28.24
599.941	28.53
600.277	28.57
600.614	28.57
600.95	28.98
601.287	28.92
601.623	28.74
601.959	29.16
602.296	29.06
602.632	29.17
602.968	29.04
603.304	29.18
603.64	29.11
603.976	29.31
604.312	29.39
604.648	29.44
604.984	29.24
605.319	29.2
605.655	29.31
605.991	29.14
606.326	29.1
606.662	29.13
606.998	29.28
607.333	29.15
607.668	29.31
608.004	29.46
608.339	29.49
608.674	29.65
609.01	29.71
609.345	29.84
609.68	29.88
610.015	30.03
610.35	29.95
610.685	29.74
611.02	30.09
611.355	29.85
611.689	29.67
612.024	30.01
612.359	29.98
612.694	30.3
613.028	30.27
613.363	30.5
613.697	30.44
614.032	30.21
614.366	30.51
614.7	30.76
615.035	30.76
615.369	30.71
615.703	30.77
616.037	30.35
616.371	30.68
616.705	30.74
617.039	30.68
617.373	30.95
617.707	31.33
618.041	31.2
618.375	31.51
618.709	30.98
619.042	30.73
619.376	31.29
619.71	31.12
620.043	31.1
620.377	31.21
620.71	31.23
621.043	31.45
621.377	31.22
621.71	31.36
622.043	31.71
622.376	31.06
622.709	31.66
623.043	31.29
623.376	31.55
623.709	31.85
624.041	31.71
624.374	31.33
624.707	31.95
625.04	31.8
625.373	31.8
625.705	31.8
626.038	32.12
626.37	31.9
626.703	32.02
627.035	32.4
627.368	32.01
627.7	31.93
628.032	31.99
628.365	32.27
628.697	32.26
629.029	32.25
629.361	32.28
629.693	32.56
630.025	32.31
630.357	32.53
630.689	32.39
631.021	32.81
631.353	32.39
631.684	32.82
632.016	32.91
632.348	32.54
632.679	33.02
633.011	32.6
633.342	32.66
633.674	32.83
634.005	32.65
634.336	33.33
634.668	33.24
634.999	32.94
635.33	32.87
635.661	32.83
635.992	33.36
636.323	33.29
636.654	33.26
636.985	33.38
637.316	33.43
637.647	33.38
637.977	33.5
638.308	33.19
638.639	33.34
638.969	33.68
639.3	33.22
639.63	33.77
639.961	33.7
640.291	33.24
640.622	33.63
640.952	33.53
641.282	33.75
641.612	33.57
641.943	33.7
642.273	34.01
642.603	33.68
642.933	33.81
643.263	34.07
643.592	34.27
643.922	34.06
644.252	34.08
644.582	34.52
644.911	34.32
645.241	34.44
645.571	34.47
645.9	34.46
646.23	34.69
646.559	34.14
646.888	34.78
647.218	34.74
647.547	34.59
647.876	34.52
648.205	34.66
648.534	34.77
648.863	34.83
649.192	35.26
649.521	34.69
649.85	34.57
650.179	34.66
650.508	34.7
650.837	34.51
651.165	35.05
651.494	34.94
651.822	34.64
652.151	34.85
652.479	35.12
652.808	35.48
653.136	35.11
653.465	35.01
653.793	35.35
654.121	34.92
654.449	35.37
654.777	35.67
655.105	35.6
655.433	35.4
655.761	35.85
656.089	35.51
656.417	35.78
656.745	35.51
657.073	35.14
657.4	35.66
657.728	36.03
658.056	36.16
658.383	35.67
658.711	36.12
659.038	35.32
659.365	35.74
659.693	36.14
660.02	36.14
660.347	35.83
660.674	35.62
661.001	36.28
661.329	35.69
661.656	36
661.982	36.1
662.309	36.49
662.636	36.33
662.963	36.7
663.29	36.59
663.616	35.78
663.943	36.62
664.27	36.47
664.596	36.66
664.923	36.68
665.249	36.87
665.576	37.04
665.902	36.63
666.228	36.82
666.554	36.92
666.881	36.93
667.207	36.41
667.533	36.88
667.859	36.71
668.185	36.93
668.511	36.44
668.837	36.72
669.162	37.15
669.488	37.67
669.814	37.19
670.139	36.83
670.465	37.26
670.791	37.45
671.116	36.88
671.442	37.46
671.767	36.85
672.092	36.92
672.418	37.97
672.743	37.61
673.068	36.63
673.393	37.58
673.718	37.09
674.043	37.6
674.368	37.55
674.693	37.37
675.018	37.76
675.343	38.27
675.667	37.17
675.992	37.95
676.317	38.02
676.641	37.63
676.966	38.27
677.29	37.84
677.615	38.21
677.939	38.11
678.264	37.48
678.588	38.43
678.912	37.84
679.236	38.08
679.56	37.82
679.885	38.66
680.209	38.03
680.532	38.65
680.856	37.82
681.18	38.26
681.504	38.8
681.828	38.03
682.152	38.32
682.475	38.37
682.799	38.86
683.122	38.05
683.446	38.39
683.769	38.08
684.093	38.7
684.416	39.28
684.739	38.71
685.062	38.76
685.386	38.91
685.709	38.89
686.032	39.14
686.355	38.89
686.678	39.38
687.001	39.93
687.324	38.99
687.646	39.46
687.969	38.76
688.292	38.66
688.614	39.2
688.937	38.04
689.26	39.81
689.582	38.49
689.904	39.28
690.227	39.72
690.549	39.51
690.871	39.36
691.194	38.8
691.516	39.39
691.838	39.75
692.16	39.96
692.482	39.52
692.804	39.61
693.126	40.03
693.448	39.01
693.769	40.02
694.091	39.92
694.413	39.41
694.735	39.44
695.056	40.19
695.378	40.17
695.699	39.23
696.021	40.23
696.342	40.27
696.663	39.4
696.984	39.79
697.306	40.09
697.627	39.76
697.948	39.9
698.269	39.52
698.59	39.93
698.911	40.09
699.232	40.4
699.553	39.92
699.873	40.04
700.194	40.48
700.515	39.58
700.835	40.17
701.156	39.76
701.477	39.88
701.797	40.38
702.117	40.38
702.438	40.03
702.758	40.18
703.078	41.97
703.398	39.77
703.719	41.25
704.039	40.35
704.359	41.94
704.679	40.45
704.999	40.67
705.319	40.63
705.638	42.25
705.958	41.4
706.278	40.3
706.597	41.21
706.917	41.34
707.237	41.32
707.556	41.56
707.876	42.12
708.195	40.01
708.514	41.93
708.834	41.09
709.153	41.08
709.472	41.51
709.791	41.37
710.11	41.44
710.429	41.31
710.748	41.21
711.067	40.26
711.386	41.19
711.705	40.41
712.023	41.59
712.342	41.32
712.661	40.67
712.979	41.87
713.298	42.26
713.616	42.45
713.935	41.78
714.253	41.83
714.572	42.56
714.89	42.04
715.208	41.62
715.526	41.06
715.844	41.16
716.162	41.63
716.48	42.18
716.798	42.66
717.116	42.31
717.434	40.78
717.752	41.8
718.069	42.68
718.387	40.88
718.705	41.43
719.022	42.98
719.34	42.33
719.657	41.66
719.975	41.3
720.292	42.53
720.609	41.76
720.927	42.76
721.244	42.35
721.561	42.08
721.878	42.08
722.195	42.99
722.512	42.52
722.829	42.17
723.146	41.86
723.463	41.38
723.779	42.21
724.096	42.07
724.413	42.18
724.729	40.65
725.046	43.3
725.362	42.75
725.679	43.71
725.995	42.54
726.311	42.52
726.628	43.05
726.944	42.84
727.26	42.58
727.576	43.18
727.892	41.73
728.208	42.46
728.524	43.32
728.84	43.82
729.156	43.03
729.472	42.91
729.787	43.67
730.103	42.19
730.419	42.5
730.734	42.52
731.05	44.79
731.365	41.79
731.681	42.5
731.996	42.76
732.311	43.86
732.626	43.52
732.942	44.23
733.257	43.74
733.572	42.73
733.887	43.39
734.202	43.67
734.517	44.52
734.832	43.14
735.146	42.24
735.461	44.06
735.776	43.78
736.091	44.42
736.405	44.05
736.72	44.03
737.034	43.53
737.349	44.42
737.663	44.27
737.977	44.13
738.292	42.89
738.606	42.88
738.92	43.6
739.234	42.7
739.548	43.49
739.862	44.69
740.176	44.55
740.49	44.77
740.804	43.06
741.117	43.19
741.431	44.56
741.745	44.04
742.058	43.87
742.372	45.37
742.685	42.79
742.999	44.85
743.312	44.96
743.626	44.09
743.939	44.65
744.252	44.86
744.565	43.12
744.878	43.05
745.191	45.28
745.505	46.69
745.817	45.13
746.13	44.79
746.443	43.59
746.756	45.25
747.069	47
747.381	44.99
747.694	43.41
748.007	45.16
748.319	43.59
748.632	43.73
748.944	41.34
749.256	44.21
749.569	43.63
749.881	43.82
750.193	44.05
750.505	45.23
750.817	44.72
751.129	43.94
751.441	45.07
751.753	44.72
752.065	45.58
752.377	44.21
752.689	44.88
753	44.35
753.312	44.65
753.624	43.6
753.935	45.04
754.247	44.57
754.558	46.6
754.869	45.13
755.181	44.4
755.492	44.91
755.803	43.22
756.114	46.71
756.425	45.95
756.736	44.75
757.047	44.18
757.358	45.69
757.669	43.54
757.98	45.08
758.291	45.96
758.601	46.59
758.912	45.5
759.223	45.34
759.533	45.48
759.844	45.37
760.154	45.64
760.464	43.46
760.775	45.02
761.085	43.35
761.395	45.25
761.705	45.82
762.016	46.36
762.326	46.26
762.636	46.4
762.945	46.02
763.255	44
763.565	45.14
763.875	46.33
764.185	45.6
764.494	46.26
764.804	44.21
765.113	45.3
765.423	45.96
765.732	46.91
766.042	46.79
766.351	45.81
766.66	46
766.97	46.59
767.279	45.93
767.588	44.6
767.897	45.3
768.206	46.97
768.515	46.89
768.824	47.65
769.133	47.36
769.441	45.6
769.75	46.03
770.059	47.21
770.367	44.45
770.676	47.41
770.984	46.92
771.293	46.71
771.601	45.48
771.91	49
772.218	44.64
772.526	44.81
772.834	48.01
773.142	47.52
773.45	44.99
773.758	46.79
774.066	46.35
774.374	45.75
774.682	46.72
774.99	44.28
775.298	43.51
775.605	44.38
775.913	44.85
776.22	47.3
776.528	48.99
776.835	46.87
777.143	49.48
777.45	49.06
777.757	43.84
778.065	44.66
778.372	45.46
778.679	48.83
778.986	46.84
779.293	47.73
779.6	50.8
779.907	45.57
780.214	45.61
780.52	45.72
780.827	44.82
781.134	45.64
781.44	45.66
781.747	48.44
782.053	47.07
782.36	47.04
782.666	45.2
782.973	48.14
783.279	46.95
783.585	47.3
783.891	48.19
784.197	43.87
784.503	47.2
784.809	46.87
785.115	44.51
785.421	46.34
785.727	48.62
786.033	49.65
786.339	45.31
786.644	48.29
786.95	47.25
787.255	44.3
787.561	49.49
787.866	45.72
788.172	47
788.477	48.09
788.782	44.47
789.088	45.32
789.393	48.52
789.698	47.18
790.003	48.91
790.308	47.41
790.613	44.29
790.918	45.25
791.223	49.98
791.527	49.87
791.832	47.13
792.137	48.14
792.441	50.85
792.746	46.74
793.05	46.37
793.355	50.6
793.659	49.86
793.963	44.91
794.268	48.63
794.572	46.02
794.876	50.72
795.18	44.97
795.484	51
795.788	51.21
796.092	49.57
796.396	47.12
796.7	45.61
797.004	48.54
797.307	44.2
797.611	51.82
797.915	52.83
798.218	45.89
798.522	47.63
798.825	46.86
799.128	45.87
799.432	47.85
799.735	44.75
800.038	44.07
800.341	47.89
800.644	42.6
800.947	50.82
801.25	47.79
801.553	47.32
801.856	47.45
802.159	46.38
802.462	48.83
802.764	51.85
803.067	46.97
803.37	50.05
803.672	49.05
803.975	47.48
804.277	50.47
804.579	49.76
804.882	50.87
805.184	48.56
805.486	52.24
805.788	51
806.09	42.68
806.392	47.77
806.694	47.95
806.996	50.49
807.298	48.24
807.6	51.35
807.902	48.18
808.203	46.89
808.505	47.77
808.807	48.12
809.108	46.49
809.409	46.61
809.711	52.3
810.012	51.48
810.313	44.58
810.615	51.24
810.916	47.74
811.217	51.41
811.518	46.78
811.819	48.62
812.12	47.94
812.421	47.64
812.722	48.44
813.023	52.65
813.323	45.08
813.624	48.19
813.925	51.1
814.225	51.48
814.526	48.72
814.826	46.66
815.126	47.09
815.427	52.95
815.727	51.45
816.027	52.31
816.327	45.49
816.627	50.03
816.927	55.21
817.227	50.74
817.527	45.2
817.827	46.74
818.127	47.91
818.427	51.5
818.727	48.78
819.026	49.37
819.326	52.42
819.625	49.14
819.925	39.6
820.224	50.85
820.524	52.15
820.823	50.29
821.122	49.35
821.421	45.15
821.72	44.94
822.019	47.63
822.318	52.47
822.617	48.14
822.916	51.83
823.215	49.72
823.514	47.96
823.813	48.89
824.111	49.12
824.41	50.27
824.709	48.97
825.007	50.92
825.306	49.25
825.604	50.15
825.902	50.81
826.201	49.98
826.499	50.66
826.797	50.53
827.095	50.02
827.393	50.1
827.691	51.5
827.989	49.66
828.287	51.2
828.585	51.89
828.882	51.92
829.18	50.82
829.478	49.21
829.775	49.72
830.073	50.52
830.37	49.83
830.668	49.22
830.965	51.88
831.263	52.32
831.56	51.94
831.857	50.93
832.154	49.41
832.451	49.4
832.748	48.69
833.045	49.52
833.342	51.2
833.639	47.03
833.936	53.22
834.232	55.58
834.529	51.14
834.826	51.09
835.122	55.9
835.419	51.41
835.715	54.87
836.012	52.11
836.308	50.49
836.604	51.73
836.901	49.97
837.197	51.16
837.493	50.93
837.789	52.71
838.085	43.28
838.381	48.24
838.677	52.77
838.972	50.1
839.268	54.08
839.564	48.55
839.86	45.21
840.155	48.51
840.451	57.06
840.746	54.61
841.042	48.37
841.337	53.95
841.632	55.5
841.928	46.59
842.223	44.1
842.518	54.13
842.813	47.53
843.108	46.43
843.403	45.14
843.698	51.99
843.993	56.24
844.287	55.47
844.582	50.09
844.877	42.26
845.171	51.94
845.466	52.08
845.761	51.22
846.055	45.12
846.349	40.62
846.644	40.68
846.938	37.71
847.232	45.15
847.526	41.27
847.82	52.07
848.114	52.63
848.408	47.62
848.702	47.63
848.996	61.32
849.29	55.75
849.584	46.63
849.877	46.04
850.171	47.68
850.465	61.43
850.758	53.8
851.052	41.09
851.345	53.9
851.638	50.96
851.932	60.3
852.225	43.98
852.518	37.2
852.811	45.51
853.104	52.5
853.397	49.36
853.69	49.48
853.983	36.89
854.276	57.31
854.569	52.69
854.861	47.64
855.154	51.38
855.447	60.83
855.739	41.54
856.032	67.23
856.324	56.63
856.616	31.42
856.909	58.11
857.201	25.9
857.493	46.21
857.785	39.46
858.077	39.46
858.369	59.24
858.661	52.51
858.953	44.44
859.245	35.42
859.537	49.02
859.829	48.6
860.12	58.47
860.412	55.34
860.703	62.87
860.995	55.25
861.286	48.95
861.578	72.22
861.869	50.29
862.16	70.55
862.452	64.16
862.743	66.96
863.034	48.55
863.325	45.44
863.616	38.22
863.907	44.29
864.198	55.36
864.488	48.5
864.779	72.92
865.07	55.42
865.36	56.92
865.651	40.04
865.941	53.51
866.232	36.33
866.522	48.77
866.813	52.89
867.103	43.89
867.393	36.16
867.683	46.78
867.973	46.67
868.263	51.35
868.553	51.84
868.843	45
869.133	46.63
869.423	64.91
869.713	66.23
870.002	18.28
870.292	54.27
870.582	52.11
870.871	39.16
871.161	41.19
871.45	63.44
871.739	51.26
872.029	72.03
872.318	82.52
872.607	49.25
872.896	25.5
873.185	69.46
873.474	67.47
873.763	44.49
874.052	30.98
874.341	40.8
874.63	49.92
874.918	52.39
875.207	71.08
875.496	47.83
875.784	103.26
876.073	35.72
876.361	25.35
876.649	44.79
876.938	67.08
877.226	39.65
877.514	24.58
877.802	51.33
878.09	46.05
878.378	64.94
878.666	31.31
878.954	46.87
879.242	28.77
879.53	41.57
879.817	48.43
880.105	48.59
880.392	51.47
880.68	61
880.967	35.5
881.255	57.08
881.542	56.27
881.83	64.25
882.117	60.31
882.404	21.74
882.691	45.44
882.978	36.38
883.265	26.82
883.552	43.34
883.839	49.66
884.126	46.12
884.413	67.25
884.699	60.38
884.986	49.34
885.273	50.7
885.559	50.7
885.846	50.7
