Data from 0390_crown_Reflection__0__114.txt Node

Date: Fri Dec 15 17:26:34 CST 2023
User: ToomeyLab
Spectrometer: FLMS14357
Trigger mode: 0
Integration Time (sec): 1.000000E-2
Scans to average: 100
Electric dark correction enabled: true
Nonlinearity correction enabled: false
Boxcar width: 0
XAxis mode: Wavelengths
Number of Pixels in Spectrum: 2048
>>>>>Begin Spectral Data<<<<<
189.047	125.34
189.435	125.34
189.823	125.34
190.211	-68.76
190.599	219.16
190.987	108.89
191.375	18.29
191.763	-280.58
192.151	95.93
192.538	103.62
192.926	22.8
193.314	248.34
193.702	-148.44
194.089	-2.5
194.477	-96.76
194.864	66.78
195.252	140.45
195.639	123
196.027	-327.03
196.414	59.07
196.801	72.9
197.189	128.06
197.576	195.54
197.963	109.36
198.351	-7.11
198.738	0.15
199.125	-8.33
199.512	-19.85
199.899	21.78
200.286	38.13
200.673	-9.29
201.06	13.5
201.447	4.49
201.833	15.91
202.22	21.51
202.607	51.09
202.994	4.76
203.38	18.84
203.767	24.24
204.154	34.91
204.54	50.36
204.927	-74.53
205.313	-2.69
205.699	23.48
206.086	20.57
206.472	-0.43
206.858	14.56
207.245	-75.63
207.631	-6.28
208.017	-15.82
208.403	1.25
208.789	1.57
209.175	33.15
209.561	1
209.947	-13.1
210.333	-29.94
210.719	4.87
211.105	-12.99
211.491	-20.69
211.876	62.72
212.262	-25.6
212.648	17.02
213.034	6.28
213.419	-46.14
213.805	-12.04
214.19	-26.17
214.576	-23.98
214.961	-10.12
215.346	-16.97
215.732	-11.72
216.117	14.76
216.502	-36.67
216.888	22.76
217.273	30.07
217.658	12.25
218.043	18.67
218.428	-60.49
218.813	-11.24
219.198	-62.11
219.583	-3.22
219.968	8.45
220.353	8.37
220.738	41.04
221.122	7.23
221.507	-26.29
221.892	7.32
222.276	-29.7
222.661	-8.14
223.046	-2.4
223.43	13.06
223.815	4.79
224.199	-4.83
224.583	-0.79
224.968	6.34
225.352	11.09
225.736	-4.7
226.121	-8.67
226.505	6.73
226.889	7.09
227.273	-4.28
227.657	7.16
228.041	1.77
228.425	4.3
228.809	2.23
229.193	3.9
229.577	6.25
229.961	6.15
230.344	7.46
230.728	6.27
231.112	6.69
231.495	5.66
231.879	6.05
232.263	7.4
232.646	6.16
233.03	6.05
233.413	4.94
233.797	5.18
234.18	6.13
234.563	6.81
234.946	7.73
235.33	8.06
235.713	7.54
236.096	5.55
236.479	5.06
236.862	3.71
237.245	6.88
237.628	4.87
238.011	6.07
238.394	7.1
238.777	6.08
239.16	4.67
239.543	6.52
239.925	7.55
240.308	7.41
240.691	6.53
241.073	7.43
241.456	5.56
241.838	6.42
242.221	3.89
242.603	5.9
242.986	6.23
243.368	7.12
243.75	6.54
244.133	6.04
244.515	6.65
244.897	6.47
245.279	6.26
245.661	6.43
246.043	4.34
246.425	5.24
246.807	6.33
247.189	6.39
247.571	5.87
247.953	6.18
248.335	6
248.717	5.99
249.098	5.82
249.48	5.93
249.862	5.56
250.243	5.86
250.625	5.87
251.006	5.96
251.388	4.42
251.769	6.26
252.151	6.6
252.532	4.73
252.913	5.5
253.295	4.97
253.676	6.05
254.057	5.85
254.438	5.38
254.819	4.66
255.2	4.39
255.581	4.74
255.962	4.07
256.343	5.19
256.724	3.93
257.105	6.57
257.486	4.33
257.867	5.45
258.247	4.42
258.628	5.04
259.009	5.66
259.389	5.57
259.77	5.65
260.15	4.34
260.531	4.95
260.911	6.33
261.292	5.34
261.672	5.55
262.052	5.2
262.432	5.62
262.813	5.14
263.193	5.35
263.573	4.42
263.953	4.96
264.333	5.81
264.713	5.53
265.093	4.93
265.473	5.01
265.853	4.57
266.233	5.59
266.612	3.69
266.992	3.45
267.372	5.03
267.752	4.82
268.131	4.96
268.511	5.46
268.89	5.6
269.27	4.41
269.649	4.45
270.029	5.01
270.408	5.16
270.787	5.25
271.167	5.48
271.546	5.67
271.925	4.32
272.304	4.32
272.683	5.32
273.062	4.94
273.441	5.27
273.82	4.45
274.199	4.73
274.578	4.57
274.957	4.72
275.336	4.77
275.715	4.35
276.093	4.32
276.472	5.43
276.851	4.28
277.229	4.92
277.608	4.57
277.986	4.76
278.365	5.13
278.743	4.06
279.122	3.96
279.5	4.81
279.878	5.07
280.257	4.65
280.635	3.54
281.013	4.11
281.391	4.89
281.769	4.32
282.147	4.68
282.525	4.68
282.903	4.51
283.281	5.29
283.659	4.98
284.037	4.28
284.415	5.03
284.792	4.69
285.17	3.39
285.548	4.29
285.925	4.86
286.303	5.16
286.68	5.01
287.058	4.57
287.435	4.76
287.813	4.68
288.19	4.47
288.567	4.83
288.945	5
289.322	4.25
289.699	4.38
290.076	4.53
290.453	4.36
290.83	4.33
291.207	4.29
291.584	4.95
291.961	4.5
292.338	4.73
292.715	5.1
293.092	4.2
293.469	4.11
293.845	4.27
294.222	3.98
294.599	4.52
294.975	3.92
295.352	4.53
295.728	4.57
296.105	4.12
296.481	4.65
296.858	4.53
297.234	4.57
297.61	4.35
297.986	4.14
298.363	4.45
298.739	4.62
299.115	4.28
299.491	4.03
299.867	4.39
300.243	4.24
300.619	3.85
300.995	3.96
301.371	4.68
301.746	3.91
302.122	4.57
302.498	4.55
302.874	4.53
303.249	4.45
303.625	4.68
304	4.83
304.376	4.27
304.751	3.77
305.127	5.27
305.502	3.54
305.878	3.49
306.253	4.38
306.628	4.88
307.003	4.18
307.378	4.49
307.754	4.34
308.129	3.04
308.504	4.07
308.879	4.16
309.254	4.6
309.629	4.43
310.003	4.02
310.378	4.46
310.753	4.33
311.128	5.07
311.502	4.21
311.877	4.91
312.252	3.76
312.626	4.18
313.001	4.2
313.375	4.35
313.75	4.01
314.124	4.03
314.498	4.1
314.873	4.17
315.247	3.95
315.621	4.47
315.995	3.46
316.369	4.27
316.743	4.46
317.117	4.4
317.491	3.79
317.865	4.34
318.239	3.92
318.613	4.22
318.987	5.35
319.361	3.27
319.734	4.89
320.108	4.44
320.482	4.17
320.855	4.95
321.229	3.76
321.602	3.64
321.976	4.7
322.349	3.94
322.723	4.09
323.096	5.19
323.469	3.27
323.843	4.08
324.216	4.62
324.589	4.32
324.962	4.38
325.335	3.71
325.708	4.34
326.081	4.21
326.454	4.92
326.827	4.34
327.2	4.27
327.573	4.23
327.945	4.7
328.318	3.91
328.691	3.62
329.063	4.62
329.436	4.45
329.809	4.81
330.181	4.33
330.553	4.67
330.926	4.54
331.298	4.41
331.671	3.74
332.043	4.83
332.415	4.74
332.787	4.17
333.159	5.01
333.532	4.09
333.904	4.59
334.276	4.43
334.648	4.51
335.02	4.48
335.391	4.2
335.763	3.95
336.135	4.23
336.507	4.7
336.879	4.43
337.25	4.28
337.622	4.06
337.993	4.08
338.365	4.55
338.736	4.41
339.108	4.74
339.479	4.63
339.851	4.29
340.222	4.35
340.593	4.94
340.964	4.58
341.336	4.61
341.707	4.01
342.078	4.63
342.449	4.44
342.82	4.5
343.191	4.31
343.562	4.65
343.933	4.42
344.303	4.77
344.674	4.48
345.045	4.44
345.416	4.87
345.786	3.77
346.157	4.48
346.527	4
346.898	4.03
347.268	4.69
347.639	4.52
348.009	4.44
348.38	4.09
348.75	4.5
349.12	4.73
349.49	4.84
349.861	4.85
350.231	4.25
350.601	4.52
350.971	4.96
351.341	4.85
351.711	4.35
352.081	4.69
352.45	4.23
352.82	4.52
353.19	4.25
353.56	3.98
353.929	4.39
354.299	4.7
354.669	4.74
355.038	4.94
355.408	4.67
355.777	4.87
356.147	4.46
356.516	4.59
356.885	4.42
357.254	4.85
357.624	4.91
357.993	4.94
358.362	4.47
358.731	4.47
359.1	4.86
359.469	4.59
359.838	5.13
360.207	4.5
360.576	4.36
360.945	5.05
361.314	5.32
361.682	4.88
362.051	4.59
362.42	5.04
362.788	4.5
363.157	4.91
363.525	5.16
363.894	4.81
364.262	4.95
364.631	4.6
364.999	4.99
365.367	4.27
365.735	5.31
366.104	5.1
366.472	4.89
366.84	4.84
367.208	4.54
367.576	5.1
367.944	4.77
368.312	5.27
368.68	4.43
369.048	5.21
369.416	4.67
369.783	4.44
370.151	4.81
370.519	5.47
370.886	5.21
371.254	4.46
371.621	5.25
371.989	5.05
372.356	4.4
372.724	4.94
373.091	4.63
373.458	4.96
373.826	4.92
374.193	4.81
374.56	5.18
374.927	5.24
375.294	4.56
375.661	4.68
376.028	4.61
376.395	4.91
376.762	5.03
377.129	4.61
377.496	4.79
377.863	4.95
378.229	4.04
378.596	4.85
378.963	4.64
379.329	5.05
379.696	5.23
380.062	4.89
380.429	4.76
380.795	4.81
381.161	4.98
381.528	5.43
381.894	4.99
382.26	4.88
382.626	5.26
382.993	4.66
383.359	5.26
383.725	5
384.091	4.72
384.457	5.29
384.823	5.26
385.188	5.36
385.554	4.92
385.92	5.13
386.286	5.16
386.651	5.05
387.017	5.46
387.383	5.03
387.748	4.84
388.114	5.33
388.479	5.3
388.845	5.35
389.21	5.01
389.575	5.27
389.94	5.11
390.306	5.05
390.671	5.43
391.036	4.96
391.401	4.94
391.766	4.99
392.131	4.76
392.496	5.28
392.861	5.22
393.226	5.36
393.591	5.15
393.956	5.12
394.32	5.14
394.685	5.35
395.05	5.1
395.414	5.13
395.779	5.04
396.143	5.22
396.508	5.3
396.872	5.24
397.236	5.24
397.601	5.2
397.965	5.23
398.329	5.16
398.694	5.41
399.058	5.17
399.422	5.03
399.786	5.42
400.15	5.4
400.514	5.59
400.878	5.36
401.242	5.57
401.605	5.22
401.969	5.52
402.333	5.39
402.697	5.29
403.06	5.5
403.424	5.39
403.787	5.13
404.151	5.47
404.514	5.47
404.878	5.2
405.241	5.58
405.604	5.52
405.968	5.23
406.331	5.32
406.694	5.22
407.057	5.53
407.42	5.74
407.783	5.3
408.146	5.42
408.509	5.27
408.872	5.3
409.235	5.16
409.598	5.68
409.961	5.6
410.323	5.72
410.686	5.41
411.049	5.19
411.411	5.38
411.774	5.31
412.136	5.38
412.499	5.39
412.861	5.48
413.223	5.41
413.586	5.38
413.948	5.32
414.31	5.52
414.672	5.32
415.035	5.31
415.397	5.68
415.759	5.28
416.121	5.63
416.483	5.53
416.845	5.55
417.206	5.49
417.568	5.57
417.93	5.37
418.292	5.37
418.653	5.6
419.015	5.47
419.377	5.3
419.738	5.68
420.1	5.53
420.461	5.46
420.822	5.48
421.184	5.31
421.545	5.48
421.906	5.36
422.267	5.46
422.629	5.44
422.99	5.42
423.351	5.31
423.712	5.45
424.073	5.39
424.434	5.44
424.795	5.41
425.155	5.53
425.516	5.41
425.877	5.43
426.238	5.38
426.598	5.46
426.959	5.51
427.32	5.36
427.68	5.37
428.041	5.46
428.401	5.62
428.761	5.42
429.122	5.58
429.482	5.36
429.842	5.7
430.202	5.68
430.563	5.61
430.923	5.55
431.283	5.58
431.643	5.53
432.003	5.58
432.363	5.58
432.722	5.51
433.082	5.87
433.442	5.52
433.802	5.37
434.161	5.58
434.521	5.71
434.881	5.73
435.24	5.44
435.6	5.66
435.959	5.7
436.319	5.7
436.678	5.56
437.037	5.67
437.396	5.59
437.756	5.78
438.115	5.49
438.474	5.56
438.833	5.42
439.192	5.5
439.551	5.62
439.91	5.57
440.269	5.62
440.628	5.51
440.987	5.62
441.345	5.38
441.704	5.6
442.063	5.59
442.421	5.58
442.78	5.48
443.138	5.5
443.497	5.52
443.855	5.49
444.214	5.57
444.572	5.78
444.93	5.72
445.288	5.48
445.647	5.81
446.005	5.58
446.363	5.69
446.721	5.65
447.079	5.43
447.437	5.5
447.795	5.57
448.153	5.62
448.51	5.61
448.868	5.52
449.226	5.57
449.584	5.65
449.941	5.6
450.299	5.63
450.656	5.63
451.014	5.51
451.371	5.59
451.729	5.62
452.086	6
452.443	5.68
452.801	5.69
453.158	5.58
453.515	5.63
453.872	5.73
454.229	5.47
454.586	5.73
454.943	5.6
455.3	5.71
455.657	5.59
456.014	5.64
456.371	5.74
456.727	5.64
457.084	5.73
457.441	5.64
457.797	5.72
458.154	5.82
458.51	5.85
458.867	5.81
459.223	5.86
459.58	5.65
459.936	5.72
460.292	5.74
460.648	5.74
461.005	5.67
461.361	5.63
461.717	5.65
462.073	5.58
462.429	5.64
462.785	5.61
463.141	5.48
463.496	5.54
463.852	5.78
464.208	5.82
464.564	5.97
464.919	5.61
465.275	5.77
465.631	5.7
465.986	5.57
466.342	5.81
466.697	5.49
467.052	5.86
467.408	5.98
467.763	5.69
468.118	5.67
468.473	5.61
468.829	5.94
469.184	5.66
469.539	5.54
469.894	5.7
470.249	5.92
470.603	6
470.958	5.93
471.313	5.93
471.668	5.84
472.023	5.79
472.377	5.64
472.732	5.67
473.086	5.53
473.441	5.59
473.795	5.87
474.15	5.72
474.504	5.85
474.859	5.9
475.213	5.69
475.567	5.82
475.921	5.67
476.275	5.78
476.63	6.1
476.984	5.9
477.338	5.82
477.692	5.45
478.045	5.66
478.399	5.81
478.753	5.76
479.107	5.68
479.461	5.68
479.814	5.79
480.168	5.8
480.521	5.82
480.875	5.66
481.228	5.78
481.582	5.81
481.935	5.67
482.289	5.7
482.642	5.78
482.995	5.64
483.348	5.74
483.701	5.64
484.055	5.72
484.408	5.75
484.761	5.61
485.114	5.57
485.466	5.46
485.819	5.41
486.172	5.43
486.525	5.41
486.878	5.46
487.23	5.47
487.583	5.54
487.936	5.64
488.288	5.59
488.641	5.67
488.993	5.54
489.345	5.46
489.698	5.48
490.05	5.53
490.402	5.47
490.754	5.5
491.107	5.64
491.459	5.69
491.811	5.72
492.163	5.75
492.515	5.68
492.866	5.66
493.218	5.7
493.57	5.56
493.922	5.54
494.274	5.67
494.625	5.64
494.977	5.72
495.328	5.72
495.68	5.7
496.031	5.83
496.383	5.7
496.734	5.88
497.086	5.75
497.437	5.73
497.788	5.7
498.139	5.7
498.49	5.85
498.842	5.68
499.193	5.68
499.544	5.78
499.894	5.74
500.245	5.71
500.596	5.69
500.947	5.77
501.298	5.64
501.648	5.82
501.999	5.71
502.35	5.73
502.7	5.79
503.051	5.67
503.401	5.65
503.752	5.98
504.102	5.73
504.452	5.76
504.803	5.78
505.153	5.79
505.503	5.83
505.853	5.83
506.203	5.66
506.553	5.77
506.903	5.71
507.253	5.84
507.603	5.64
507.953	5.75
508.303	5.93
508.652	5.48
509.002	5.81
509.352	5.82
509.701	5.72
510.051	5.8
510.4	5.75
510.75	5.67
511.099	5.63
511.449	5.66
511.798	5.74
512.147	5.73
512.496	5.72
512.846	5.65
513.195	5.74
513.544	5.73
513.893	5.78
514.242	5.66
514.591	5.8
514.939	5.67
515.288	5.63
515.637	5.85
515.986	5.71
516.334	5.72
516.683	5.74
517.032	5.61
517.38	5.78
517.729	5.78
518.077	5.62
518.426	5.87
518.774	5.73
519.122	5.83
519.47	5.67
519.819	5.57
520.167	5.71
520.515	5.63
520.863	5.67
521.211	5.64
521.559	5.78
521.907	5.58
522.255	5.54
522.602	5.64
522.95	5.77
523.298	5.55
523.645	5.79
523.993	5.76
524.341	5.76
524.688	5.73
525.036	5.5
525.383	5.63
525.73	5.88
526.078	5.69
526.425	5.59
526.772	5.74
527.119	5.69
527.466	5.55
527.814	5.63
528.161	5.65
528.508	5.66
528.854	5.6
529.201	5.47
529.548	5.51
529.895	5.54
530.242	5.36
530.588	5.4
530.935	5.43
531.282	5.45
531.628	5.44
531.975	5.46
532.321	5.52
532.667	5.57
533.014	5.67
533.36	5.54
533.706	5.62
534.052	5.61
534.399	5.42
534.745	5.51
535.091	5.48
535.437	5.58
535.783	5.45
536.129	5.58
536.474	5.53
536.82	5.53
537.166	5.64
537.512	5.65
537.857	5.6
538.203	5.65
538.549	5.48
538.894	5.46
539.239	5.59
539.585	5.57
539.93	5.49
540.276	5.63
540.621	5.72
540.966	5.72
541.311	5.47
541.656	5.47
542.001	5.58
542.346	5.67
542.691	5.44
543.036	5.42
543.381	5.37
543.726	5.42
544.071	5.48
544.415	5.43
544.76	5.45
545.105	5.47
545.449	5.6
545.794	5.6
546.138	5.45
546.483	5.56
546.827	5.59
547.171	5.58
547.516	5.72
547.86	5.54
548.204	5.58
548.548	5.41
548.892	5.6
549.236	5.53
549.58	5.48
549.924	5.62
550.268	5.58
550.612	5.64
550.956	5.76
551.3	5.54
551.643	5.79
551.987	5.65
552.33	5.63
552.674	5.69
553.017	5.7
553.361	5.46
553.704	5.75
554.048	5.59
554.391	5.5
554.734	5.49
555.077	5.5
555.42	5.5
555.764	5.46
556.107	5.37
556.45	5.46
556.793	5.45
557.135	5.56
557.478	5.67
557.821	5.72
558.164	5.51
558.507	5.48
558.849	5.62
559.192	5.6
559.534	5.51
559.877	5.83
560.219	5.58
560.562	5.75
560.904	5.38
561.246	5.51
561.589	5.51
561.931	5.54
562.273	5.48
562.615	5.72
562.957	5.4
563.299	5.2
563.641	5.47
563.983	5.71
564.325	5.41
564.667	5.58
565.008	5.3
565.35	5.56
565.692	5.51
566.033	5.45
566.375	5.52
566.716	5.75
567.058	5.22
567.399	5.41
567.741	5.41
568.082	5.31
568.423	5.5
568.764	5.29
569.105	5.53
569.447	5.53
569.788	5.54
570.129	5.43
570.47	5.44
570.811	5.55
571.151	5.55
571.492	5.54
571.833	5.5
572.174	5.39
572.514	5.62
572.855	5.4
573.195	5.5
573.536	5.39
573.876	5.38
574.217	5.2
574.557	5.53
574.898	5.49
575.238	5.6
575.578	5.5
575.918	5.57
576.258	5.63
576.598	5.59
576.938	5.49
577.278	5.43
577.618	5.44
577.958	5.38
578.298	5.41
578.638	5.33
578.977	5.42
579.317	5.37
579.657	5.58
579.996	5.7
580.336	5.51
580.675	5.56
581.014	5.4
581.354	5.53
581.693	5.37
582.032	5.29
582.372	5.44
582.711	5.77
583.05	5.22
583.389	5.49
583.728	5.22
584.067	5.48
584.406	5.44
584.745	5.52
585.083	5.61
585.422	5.51
585.761	5.45
586.1	5.67
586.438	5.26
586.777	5.61
587.115	5.48
587.454	5.52
587.792	5.29
588.13	5.71
588.469	5.25
588.807	5.31
589.145	5.17
589.483	5.48
589.821	5.48
590.159	5.42
590.497	5.81
590.835	5.5
591.173	5.35
591.511	5.56
591.849	5.29
592.187	5.57
592.524	5.73
592.862	5.6
593.2	5.36
593.537	5.37
593.875	5.26
594.212	5.23
594.55	5.45
594.887	5.61
595.224	5.51
595.561	5.29
595.899	5.36
596.236	5.31
596.573	5.52
596.91	5.05
597.247	5.2
597.584	5.49
597.921	5.41
598.258	5.16
598.594	5.15
598.931	5.21
599.268	5.31
599.604	5.27
599.941	5.38
600.277	5.38
600.614	5.48
600.95	5.35
601.287	5.53
601.623	5.4
601.959	5.32
602.296	5.43
602.632	5.47
602.968	5.56
603.304	5.48
603.64	5.26
603.976	5.52
604.312	5.44
604.648	5.3
604.984	5.49
605.319	5.34
605.655	5.35
605.991	5.21
606.326	5.42
606.662	5.29
606.998	5.15
607.333	5.12
607.668	5.18
608.004	5.35
608.339	5.56
608.674	5.51
609.01	5.04
609.345	5.28
609.68	5.64
610.015	5.49
610.35	5.29
610.685	5.23
611.02	5.48
611.355	5.5
611.689	5.11
612.024	5.2
612.359	5.43
612.694	5.33
613.028	5.33
613.363	5.62
613.697	5.66
614.032	5.12
614.366	5.21
614.7	5.29
615.035	5.53
615.369	5.06
615.703	5.48
616.037	5.65
616.371	4.96
616.705	5.19
617.039	5.41
617.373	5.03
617.707	5.01
618.041	5.26
618.375	5.27
618.709	5.39
619.042	4.99
619.376	5.67
619.71	5.54
620.043	5.31
620.377	5.24
620.71	5.53
621.043	5.08
621.377	5.25
621.71	5.31
622.043	5.2
622.376	5.2
622.709	5.39
623.043	5.23
623.376	5.36
623.709	5.48
624.041	5.58
624.374	5.49
624.707	5.01
625.04	5.25
625.373	4.89
625.705	5.25
626.038	5.11
626.37	5.28
626.703	4.91
627.035	5.27
627.368	5.66
627.7	5.46
628.032	5.01
628.365	5.46
628.697	5.54
629.029	4.79
629.361	5.07
629.693	5.24
630.025	5.39
630.357	5.66
630.689	5.04
631.021	5.27
631.353	5.33
631.684	5.4
632.016	4.86
632.348	5.35
632.679	5.43
633.011	5.24
633.342	5.69
633.674	5.09
634.005	5.6
634.336	5.25
634.668	5.42
634.999	5.2
635.33	5.71
635.661	5.6
635.992	5.32
636.323	5.78
636.654	5.41
636.985	5.2
637.316	5.19
637.647	4.78
637.977	5.46
638.308	5.48
638.639	4.92
638.969	5.27
639.3	5.08
639.63	5.05
639.961	5.62
640.291	5.18
640.622	5.91
640.952	5.5
641.282	5.83
641.612	5.57
641.943	5.07
642.273	5.3
642.603	5.28
642.933	5.39
643.263	5.6
643.592	5.29
643.922	5.2
644.252	5.3
644.582	5.32
644.911	4.89
645.241	5.25
645.571	5.22
645.9	5.01
646.23	5.31
646.559	5.57
646.888	4.97
647.218	5.05
647.547	5.78
647.876	5.02
648.205	5.43
648.534	5.07
648.863	5.16
649.192	5.57
649.521	5.28
649.85	5.42
650.179	5.36
650.508	4.82
650.837	5.1
651.165	5.56
651.494	5.25
651.822	5.42
652.151	5.3
652.479	5.38
652.808	4.47
653.136	5.21
653.465	4.59
653.793	5.1
654.121	5.2
654.449	5.71
654.777	5.29
655.105	5.75
655.433	5.14
655.761	5.43
656.089	5.42
656.417	5.75
656.745	4.83
657.073	4.97
657.4	5.44
657.728	5.66
658.056	5.41
658.383	5.59
658.711	5.6
659.038	5.44
659.365	5.67
659.693	5.56
660.02	5.02
660.347	5.19
660.674	5.68
661.001	5.15
661.329	4.59
661.656	5.14
661.982	5.45
662.309	5.34
662.636	4.8
662.963	6
663.29	5.69
663.616	5.75
663.943	5.32
664.27	5.39
664.596	5.53
664.923	5.19
665.249	5.69
665.576	5.12
665.902	5.77
666.228	5.58
666.554	5.62
666.881	5.16
667.207	5.24
667.533	5.76
667.859	5.11
668.185	5.6
668.511	5.4
668.837	4.05
669.162	5.36
669.488	4.39
669.814	5.31
670.139	5.46
670.465	4.94
670.791	5.08
671.116	5.96
671.442	5.2
671.767	5.64
672.092	5.69
672.418	5.62
672.743	5.53
673.068	4.37
673.393	5
673.718	5.36
674.043	4.74
674.368	5.97
674.693	6.23
675.018	5.57
675.343	5.12
675.667	5.45
675.992	5.84
676.317	5.76
676.641	5.23
676.966	4.94
677.29	5
677.615	5.93
677.939	5.62
678.264	5.69
678.588	5.68
678.912	5.12
679.236	5.92
679.56	5.49
679.885	6.31
680.209	5.1
680.532	4.6
680.856	6.01
681.18	5.61
681.504	5.26
681.828	6.11
682.152	5.55
682.475	5.39
682.799	5.69
683.122	4.98
683.446	5.2
683.769	5.61
684.093	5.14
684.416	5.23
684.739	5.37
685.062	5.61
685.386	6.34
685.709	4.82
686.032	5.92
686.355	5.59
686.678	5.07
687.001	6.2
687.324	5.6
687.646	4.53
687.969	4.83
688.292	5.25
688.614	4.62
688.937	5.54
689.26	5.25
689.582	5.36
689.904	5.43
690.227	5.32
690.549	6.58
690.871	6.14
691.194	5.27
691.516	5.51
691.838	4.92
692.16	4.55
692.482	4.98
692.804	5.74
693.126	5.54
693.448	5.92
693.769	5.96
694.091	5.08
694.413	5.6
694.735	5.11
695.056	5.68
695.378	5.91
695.699	4.04
696.021	4.08
696.342	4.84
696.663	5.66
696.984	5.86
697.306	4.08
697.627	5.92
697.948	5.54
698.269	5.28
698.59	5.61
698.911	5.05
699.232	5.31
699.553	5.6
699.873	6.35
700.194	6.24
700.515	5.86
700.835	5.76
701.156	5.73
701.477	5.44
701.797	5.82
702.117	5.84
702.438	5.33
702.758	5.66
703.078	5.66
703.398	4.89
703.719	5.19
704.039	5.11
704.359	6.45
704.679	5.82
704.999	4.45
705.319	4.74
705.638	5.29
705.958	4.74
706.278	5.52
706.597	5.28
706.917	5.55
707.237	5.53
707.556	5.95
707.876	5.49
708.195	6.14
708.514	5.3
708.834	5.56
709.153	5.38
709.472	5.41
709.791	6.12
710.11	5.28
710.429	5.77
710.748	6.52
711.067	6.22
711.386	5.52
711.705	5.06
712.023	6.39
712.342	4.68
712.661	5.62
712.979	6.06
713.298	6.4
713.616	6.16
713.935	5.49
714.253	4.45
714.572	6.34
714.89	4.69
715.208	6.94
715.526	5.15
715.844	5.61
716.162	5.99
716.48	6.24
716.798	6
717.116	5.33
717.434	6.05
717.752	4.34
718.069	6.71
718.387	5.03
718.705	5.51
719.022	4.63
719.34	6.77
719.657	4.21
719.975	5.88
720.292	6.13
720.609	6.32
720.927	5.87
721.244	6.91
721.561	6.24
721.878	6.26
722.195	4.82
722.512	6.74
722.829	5.41
723.146	5.48
723.463	4.88
723.779	5.6
724.096	6.46
724.413	4.83
724.729	5.95
725.046	5.02
725.362	5.99
725.679	5.5
725.995	4.53
726.311	4.78
726.628	5.72
726.944	6.03
727.26	6.38
727.576	6.61
727.892	6.47
728.208	5.79
728.524	5.06
728.84	4.93
729.156	5.76
729.472	5.6
729.787	4.17
730.103	4.94
730.419	5.56
730.734	7.24
731.05	4.44
731.365	4.8
731.681	5.77
731.996	6.65
732.311	6.12
732.626	6.15
732.942	4.41
733.257	7.11
733.572	6.6
733.887	5.61
734.202	7.23
734.517	5.14
734.832	6.62
735.146	5.18
735.461	6.01
735.776	5.11
736.091	5.75
736.405	6.27
736.72	5.07
737.034	7.05
737.349	7.06
737.663	5.69
737.977	6.91
738.292	6.06
738.606	6.43
738.92	7.25
739.234	5.41
739.548	6.58
739.862	7.49
740.176	3.76
740.49	6.22
740.804	8.25
741.117	6.82
741.431	6.12
741.745	4.67
742.058	6.64
742.372	5.31
742.685	7.69
742.999	4.98
743.312	5.17
743.626	6.31
743.939	6.98
744.252	5.59
744.565	5.01
744.878	5.16
745.191	4.91
745.505	6.04
745.817	5.95
746.13	5.22
746.443	5.97
746.756	6.45
747.069	5.4
747.381	6.53
747.694	4.25
748.007	6.11
748.319	8.41
748.632	6.47
748.944	5.79
749.256	6.75
749.569	4.94
749.881	5.23
750.193	5.9
750.505	5.88
750.817	6.69
751.129	9.48
751.441	5.81
751.753	6.37
752.065	6.86
752.377	5.68
752.689	7.34
753	6.35
753.312	5.97
753.624	5.52
753.935	8.41
754.247	7.12
754.558	4.4
754.869	7.04
755.181	6.61
755.492	8.24
755.803	4.43
756.114	8.74
756.425	3.95
756.736	3.36
757.047	7.35
757.358	7.28
757.669	4.66
757.98	4.6
758.291	6.32
758.601	5.37
758.912	4.28
759.223	4.93
759.533	2.98
759.844	5.08
760.154	5.63
760.464	8.48
760.775	7.42
761.085	4.74
761.395	7.47
761.705	4.43
762.016	6.1
762.326	5.38
762.636	5.74
762.945	5.83
763.255	5.77
763.565	5.36
763.875	6
764.185	5.14
764.494	6.46
764.804	6.85
765.113	5.38
765.423	6.12
765.732	6.78
766.042	6.6
766.351	6.24
766.66	7.93
766.97	6.4
767.279	5.72
767.588	8.33
767.897	9.53
768.206	4.68
768.515	5.4
768.824	6.19
769.133	5.5
769.441	5.75
769.75	4.85
770.059	5.59
770.367	5.93
770.676	6.83
770.984	6.91
771.293	4.59
771.601	9.57
771.91	4.89
772.218	7.94
772.526	8.22
772.834	4.73
773.142	5.47
773.45	3.49
773.758	5.47
774.066	8.08
774.374	4.67
774.682	5.38
774.99	8.22
775.298	2.49
775.605	6.66
775.913	3.47
776.22	10.12
776.528	7.33
776.835	7.15
777.143	4.76
777.45	7.42
777.757	9.27
778.065	4.83
778.372	2.09
778.679	2.86
778.986	7.05
779.293	8.68
779.6	6.76
779.907	8.5
780.214	4.36
780.52	6.95
780.827	6.74
781.134	7.25
781.44	5.36
781.747	6.78
782.053	4.92
782.36	7.53
782.666	8.23
782.973	9.58
783.279	2.29
783.585	5.78
783.891	8.64
784.197	3.38
784.503	8.89
784.809	2.17
785.115	5.77
785.421	8.88
785.727	9.38
786.033	7.66
786.339	6.35
786.644	6.74
786.95	6.93
787.255	6.88
787.561	10.24
787.866	2.46
788.172	8.89
788.477	2.9
788.782	3.87
789.088	8.34
789.393	4.99
789.698	7.64
790.003	6.34
790.308	5.36
790.613	6.74
790.918	7.61
791.223	9.61
791.527	3.17
791.832	6.27
792.137	2.84
792.441	5.27
792.746	6.85
793.05	3.66
793.355	9.38
793.659	11.45
793.963	3.35
794.268	5.66
794.572	8.76
794.876	9.99
795.18	5.9
795.484	4.26
795.788	8.52
796.092	6.22
796.396	1.65
796.7	3.76
797.004	3.13
797.307	3.71
797.611	7.83
797.915	7.18
798.218	9.85
798.522	5.56
798.825	5.48
799.128	7.22
799.432	3.84
799.735	4.67
800.038	4.47
800.341	8.96
800.644	5.28
800.947	5.9
801.25	5.43
801.553	7
801.856	0.55
802.159	2.54
802.462	5.09
802.764	4.26
803.067	1.93
803.37	6.78
803.672	3.9
803.975	1.54
804.277	8.79
804.579	8.06
804.882	5.59
805.184	5.35
805.486	4.7
805.788	6.33
806.09	7.65
806.392	6.66
806.694	6.93
806.996	13.5
807.298	2.55
807.6	5.95
807.902	10.49
808.203	4.37
808.505	8.59
808.807	1.47
809.108	2.36
809.409	4.05
809.711	4.7
810.012	7.71
810.313	9.21
810.615	1.99
810.916	4.79
811.217	4.3
811.518	4.25
811.819	6.58
812.12	4.77
812.421	1.37
812.722	11.8
813.023	12.41
813.323	6.51
813.624	5.77
813.925	17.13
814.225	4.84
814.526	7.95
814.826	10.98
815.126	2.46
815.427	-0.63
815.727	7.54
816.027	-0.42
816.327	3.49
816.627	-0
816.927	12.14
817.227	1.19
817.527	6.92
817.827	11.09
818.127	13.38
818.427	8.19
818.727	7.22
819.026	5.35
819.326	10.1
819.625	9.86
819.925	2.92
820.224	9.09
820.524	5.75
820.823	10.68
821.122	6.01
821.421	6.46
821.72	0.19
822.019	10.2
822.318	6.6
822.617	-0.33
822.916	6.21
823.215	5.32
823.514	10.47
823.813	3.84
824.111	6.82
824.41	7.35
824.709	7.64
825.007	8.08
825.306	7.68
825.604	9.2
825.902	7.63
826.201	7.81
826.499	7.94
826.797	8.88
827.095	8.48
827.393	6.76
827.691	10.09
827.989	5.49
828.287	6.32
828.585	6.84
828.882	9.67
829.18	8.8
829.478	8.93
829.775	9.51
830.073	8.87
830.37	7.79
830.668	5.64
830.965	9.01
831.263	6.59
831.56	6.64
831.857	6.38
832.154	8.81
832.451	7.98
832.748	9.34
833.045	9.38
833.342	13.95
833.639	10.65
833.936	2.87
834.232	6.73
834.529	7.9
834.826	0.48
835.122	3.77
835.419	8.37
835.715	6.82
836.012	8.87
836.308	1.94
836.604	3.35
836.901	6.32
837.197	4.23
837.493	9.04
837.789	7.06
838.085	8.62
838.381	7.64
838.677	5.33
838.972	5.49
839.268	4.18
839.564	8.83
839.86	9.69
840.155	-4.2
840.451	-4.91
840.746	15.07
841.042	5.7
841.337	19.86
841.632	9.76
841.928	19.38
842.223	-5.88
842.518	4.97
842.813	10.33
843.108	10.94
843.403	16.58
843.698	2.68
843.993	2.46
844.287	3.59
844.582	-1.11
844.877	4.27
845.171	12.13
845.466	-0.84
845.761	-7.92
846.055	4.87
846.349	-8.01
846.644	-9.5
846.938	-9.44
847.232	13.96
847.526	-3.68
847.82	22.26
848.114	-18.83
848.408	-12.32
848.702	13.28
848.996	-10.82
849.29	23.02
849.584	2.91
849.877	-10.4
850.171	15.24
850.465	1.53
850.758	14.63
851.052	-1.97
851.345	6.43
851.638	11.47
851.932	-25.28
852.225	0.05
852.518	2.1
852.811	-8.22
853.104	-53.67
853.397	-9.91
853.69	1.97
853.983	-22.29
854.276	3.04
854.569	1.62
854.861	-21.93
855.154	-25.95
855.447	-32.08
855.739	23.57
856.032	-4.63
856.324	17.69
856.616	16.66
856.909	3.97
857.201	16.92
857.493	-0.95
857.785	-40.9
858.077	5.57
858.369	6.07
858.661	14.89
858.953	-3.87
859.245	-18.43
859.537	13.82
859.829	18.55
860.12	4.36
860.412	-17.48
860.703	-18.7
860.995	-8.39
861.286	-14.58
861.578	-1.62
861.869	20.1
862.16	-7.72
862.452	5.36
862.743	-26.06
863.034	-2.22
863.325	-27.66
863.616	-3.63
863.907	13.09
864.198	-35.93
864.488	-5.06
864.779	10.26
865.07	1.75
865.36	15.94
865.651	-21.09
865.941	11.17
866.232	7.61
866.522	-34.94
866.813	10.25
867.103	32.03
867.393	-13.57
867.683	10.23
867.973	-30.36
868.263	-21.8
868.553	4.38
868.843	13.65
869.133	-37.52
869.423	23.56
869.713	6.95
870.002	16.95
870.292	31.03
870.582	4.27
870.871	-25.3
871.161	7
871.45	10.81
871.739	-17.04
872.029	-17.77
872.318	24.43
872.607	46.83
872.896	-28.18
873.185	12.76
873.474	-11.22
873.763	15.39
874.052	-3.57
874.341	4.65
874.63	8.62
874.918	1.52
875.207	29.34
875.496	-18.91
875.784	-76
876.073	-37.39
876.361	-55.01
876.649	-6.88
876.938	-5.14
877.226	-34.37
877.514	48.13
877.802	0.47
878.09	-13.85
878.378	52.81
878.666	-37.32
878.954	-22.15
879.242	-7.6
879.53	14.56
879.817	20.96
880.105	-29.68
880.392	-2.77
880.68	-13.94
880.967	-7.35
881.255	10.34
881.542	-28.39
881.83	-56.55
882.117	7.95
882.404	-28.91
882.691	-8.46
882.978	3.92
883.265	3.35
883.552	7.97
883.839	-4.4
884.126	-3.79
884.413	37.07
884.699	9.22
884.986	24.2
885.273	5.87
885.559	5.87
885.846	5.87
