Data from 0366_chest_Reflection__0__309.txt Node

Date: Fri Oct 20 23:09:14 CDT 2023
User: ToomeyLab
Spectrometer: FLMS14357
Trigger mode: 0
Integration Time (sec): 1.000000E-2
Scans to average: 100
Electric dark correction enabled: true
Nonlinearity correction enabled: false
Boxcar width: 0
XAxis mode: Wavelengths
Number of Pixels in Spectrum: 2048
>>>>>Begin Spectral Data<<<<<
189.047	-166.94
189.435	-166.94
189.823	-166.94
190.211	-24.14
190.599	16.43
190.987	40.17
191.375	11.78
191.763	112.91
192.151	252.03
192.538	330.05
192.926	-846.5
193.314	58.23
193.702	88.87
194.089	129.7
194.477	-515.89
194.864	146.15
195.252	-263.85
195.639	213.18
196.027	95.68
196.414	66.11
196.801	66.71
197.189	131.14
197.576	142.83
197.963	-450.15
198.351	-4.82
198.738	-0.91
199.125	32.88
199.512	57.9
199.899	70.07
200.286	-34.82
200.673	24.11
201.06	11.97
201.447	3.16
201.833	33.05
202.22	49.16
202.607	31.01
202.994	67.26
203.38	24.81
203.767	4.14
204.154	47.71
204.54	31.09
204.927	4.08
205.313	-9.47
205.699	38.49
206.086	26.35
206.472	31.69
206.858	59.99
207.245	-13.31
207.631	34.23
208.017	8.37
208.403	-6.05
208.789	45.46
209.175	-13.68
209.561	18.77
209.947	6.25
210.333	-2.95
210.719	11.03
211.105	36.17
211.491	20.09
211.876	3.05
212.262	1.22
212.648	1.02
213.034	-4.77
213.419	8.65
213.805	2.54
214.19	14.3
214.576	-17.48
214.961	-20.6
215.346	27.65
215.732	-0.52
216.117	-37.57
216.502	-1.9
216.888	2.36
217.273	-6.54
217.658	-16.92
218.043	18.18
218.428	18.43
218.813	10.2
219.198	-2.52
219.583	-19.36
219.968	-18.78
220.353	23.74
220.738	4.1
221.122	0.18
221.507	-25.46
221.892	-7.43
222.276	7.39
222.661	2.22
223.046	5.33
223.43	-1.77
223.815	-5.9
224.199	19.76
224.583	-1.86
224.968	-0.93
225.352	-7.77
225.736	6.43
226.121	4.46
226.505	-0.13
226.889	15.6
227.273	2.78
227.657	5.8
228.041	9.57
228.425	3.86
228.809	1.74
229.193	2.92
229.577	8.59
229.961	3.78
230.344	3.82
230.728	3.82
231.112	4.91
231.495	4.46
231.879	5.15
232.263	6.02
232.646	3.45
233.03	3.35
233.413	4.54
233.797	4.34
234.18	4.39
234.563	5.87
234.946	4.47
235.33	4.49
235.713	3.96
236.096	5.11
236.479	4.52
236.862	4.73
237.245	3.35
237.628	4.78
238.011	3.37
238.394	4.28
238.777	5.75
239.16	3.6
239.543	6.11
239.925	4.18
240.308	3.98
240.691	4.39
241.073	5.79
241.456	4.32
241.838	4.44
242.221	4.98
242.603	4.95
242.986	4.97
243.368	4.61
243.75	5.13
244.133	4.6
244.515	4.21
244.897	4.39
245.279	5.19
245.661	4.66
246.043	4.71
246.425	4.78
246.807	4.29
247.189	4.82
247.571	3.93
247.953	4.46
248.335	5.11
248.717	4.54
249.098	4.47
249.48	4.76
249.862	4.82
250.243	4.94
250.625	4.97
251.006	5.02
251.388	4.71
251.769	5.02
252.151	4.52
252.532	5.57
252.913	4.56
253.295	3.09
253.676	4.46
254.057	4.98
254.438	4.58
254.819	4.79
255.2	4.28
255.581	4.5
255.962	4.36
256.343	4.74
256.724	5.1
257.105	5.24
257.486	5.07
257.867	4.17
258.247	3.95
258.628	4.07
259.009	4.15
259.389	4.12
259.77	4.29
260.15	4.45
260.531	4.81
260.911	5.21
261.292	4.32
261.672	4.72
262.052	4.61
262.432	4.54
262.813	4.49
263.193	4.58
263.573	4.27
263.953	4.36
264.333	4.35
264.713	5.18
265.093	4.53
265.473	4.66
265.853	4.64
266.233	3.77
266.612	4.72
266.992	3.89
267.372	4.88
267.752	4.26
268.131	4.64
268.511	4.34
268.89	4.05
269.27	4.14
269.649	3.75
270.029	4.18
270.408	4.49
270.787	4.66
271.167	4.39
271.546	4.54
271.925	5.18
272.304	4.49
272.683	4.84
273.062	4.73
273.441	4.22
273.82	4.5
274.199	4.6
274.578	4.61
274.957	4.15
275.336	4.36
275.715	4.35
276.093	4.22
276.472	4.07
276.851	4.87
277.229	4.61
277.608	4.44
277.986	3.85
278.365	4.59
278.743	4.34
279.122	4.28
279.5	4.49
279.878	4.32
280.257	4.07
280.635	4.14
281.013	5.01
281.391	4.43
281.769	3.96
282.147	3.92
282.525	4.08
282.903	4.39
283.281	4.03
283.659	4.42
284.037	4.45
284.415	4.06
284.792	3.97
285.17	4.88
285.548	4.37
285.925	3.66
286.303	4.14
286.68	4.16
287.058	4.71
287.435	4.65
287.813	3.86
288.19	4.24
288.567	4.43
288.945	4.4
289.322	4.59
289.699	4.19
290.076	4.85
290.453	4.68
290.83	4.22
291.207	4.39
291.584	3.94
291.961	4.14
292.338	4.2
292.715	4.64
293.092	4.38
293.469	4.71
293.845	3.89
294.222	4.45
294.599	4.57
294.975	5.17
295.352	4.24
295.728	4.58
296.105	4.11
296.481	4.14
296.858	4.62
297.234	4.57
297.61	4.23
297.986	4.21
298.363	4.9
298.739	4.56
299.115	4.55
299.491	4.82
299.867	4.67
300.243	4.92
300.619	4.68
300.995	4.8
301.371	4.79
301.746	4.82
302.122	4.73
302.498	4.94
302.874	4.58
303.249	4.34
303.625	5.13
304	5.53
304.376	4.11
304.751	4.89
305.127	4.95
305.502	5.35
305.878	5.01
306.253	5.06
306.628	4.99
307.003	4.47
307.378	5.02
307.754	5.01
308.129	5.42
308.504	5.43
308.879	5.09
309.254	5.09
309.629	5.1
310.003	4.37
310.378	5.46
310.753	4.81
311.128	4.91
311.502	5.05
311.877	5.39
312.252	4.82
312.626	5.02
313.001	5.17
313.375	5.16
313.75	5.08
314.124	4.87
314.498	5.19
314.873	4.64
315.247	5.05
315.621	5.5
315.995	5.54
316.369	5.01
316.743	5.2
317.117	5.31
317.491	4.95
317.865	5.57
318.239	6.12
318.613	5.41
318.987	4.51
319.361	4.61
319.734	5.08
320.108	4.67
320.482	5.88
320.855	5.5
321.229	6.21
321.602	5.37
321.976	5.39
322.349	5.58
322.723	4.95
323.096	5.48
323.469	5.3
323.843	5.72
324.216	5.58
324.589	6.09
324.962	5.63
325.335	5.37
325.708	5.49
326.081	5.59
326.454	5.68
326.827	5.59
327.2	5.62
327.573	5.56
327.945	5.06
328.318	5.1
328.691	5.55
329.063	5.73
329.436	5.47
329.809	5.57
330.181	6.12
330.553	5.69
330.926	5.41
331.298	5.18
331.671	5.29
332.043	5.42
332.415	5.28
332.787	6.3
333.159	5.44
333.532	5.55
333.904	5.49
334.276	5.31
334.648	5.93
335.02	5.87
335.391	5.49
335.763	5.68
336.135	6.01
336.507	5.83
336.879	5.64
337.25	5.58
337.622	5.7
337.993	5.43
338.365	5.58
338.736	5.85
339.108	5.76
339.479	5.56
339.851	5.99
340.222	5.14
340.593	5.14
340.964	5.19
341.336	5.98
341.707	5.9
342.078	5.98
342.449	5.31
342.82	5.11
343.191	5.88
343.562	6.04
343.933	5.89
344.303	5.8
344.674	5.92
345.045	6.36
345.416	5.96
345.786	5.76
346.157	6.13
346.527	5.9
346.898	5.38
347.268	5.79
347.639	6.2
348.009	5.36
348.38	6.08
348.75	5.94
349.12	5.68
349.49	5.68
349.861	6.28
350.231	5.66
350.601	5.85
350.971	6.15
351.341	5.85
351.711	6.49
352.081	5.77
352.45	5.72
352.82	6.13
353.19	6.16
353.56	5.94
353.929	5.91
354.299	5.98
354.669	6.25
355.038	6.22
355.408	6.32
355.777	5.76
356.147	5.89
356.516	5.79
356.885	6.05
357.254	6.33
357.624	5.82
357.993	5.64
358.362	5.95
358.731	5.89
359.1	5.73
359.469	6.01
359.838	6.31
360.207	5.89
360.576	6.3
360.945	5.92
361.314	6.18
361.682	5.97
362.051	5.96
362.42	5.88
362.788	6.17
363.157	6.11
363.525	5.85
363.894	5.95
364.262	6.19
364.631	5.87
364.999	6.18
365.367	6.15
365.735	6
366.104	6.02
366.472	5.98
366.84	6.18
367.208	6.22
367.576	6.1
367.944	6.1
368.312	5.86
368.68	6.14
369.048	6.38
369.416	6.47
369.783	6.18
370.151	6.28
370.519	6.13
370.886	6.31
371.254	6.52
371.621	6.23
371.989	6.15
372.356	6.14
372.724	6.24
373.091	6.17
373.458	5.69
373.826	6.07
374.193	6.14
374.56	6.16
374.927	6.44
375.294	6.33
375.661	6.06
376.028	6.62
376.395	6.42
376.762	6.19
377.129	6.25
377.496	6.1
377.863	6.42
378.229	6.4
378.596	6.65
378.963	6.2
379.329	6.23
379.696	6.43
380.062	6.44
380.429	6.26
380.795	6.3
381.161	6.15
381.528	6.58
381.894	6.28
382.26	6.56
382.626	6.66
382.993	6.45
383.359	6.4
383.725	6.32
384.091	6.29
384.457	6.72
384.823	6.25
385.188	6.54
385.554	6.37
385.92	6.47
386.286	6.61
386.651	6.3
387.017	6.73
387.383	6.47
387.748	6.43
388.114	6.13
388.479	6.42
388.845	6.66
389.21	6.23
389.575	6.27
389.94	6.46
390.306	6.5
390.671	6.56
391.036	6.57
391.401	6.63
391.766	6.54
392.131	6.49
392.496	6.59
392.861	6.87
393.226	6.6
393.591	6.4
393.956	6.53
394.32	6.52
394.685	6.39
395.05	6.92
395.414	6.69
395.779	6.34
396.143	6.52
396.508	6.23
396.872	6.57
397.236	6.49
397.601	6.53
397.965	6.18
398.329	6.48
398.694	6.66
399.058	6.47
399.422	6.55
399.786	6.62
400.15	6.48
400.514	6.53
400.878	6.85
401.242	6.94
401.605	6.63
401.969	6.75
402.333	6.69
402.697	6.7
403.06	6.76
403.424	6.67
403.787	6.69
404.151	6.55
404.514	6.7
404.878	6.79
405.241	6.94
405.604	6.56
405.968	6.91
406.331	6.78
406.694	6.73
407.057	6.56
407.42	6.94
407.783	6.41
408.146	6.65
408.509	6.73
408.872	6.77
409.235	6.86
409.598	6.94
409.961	6.97
410.323	6.83
410.686	6.46
411.049	6.79
411.411	6.64
411.774	6.74
412.136	6.8
412.499	6.74
412.861	6.9
413.223	6.77
413.586	6.79
413.948	7.04
414.31	7.11
414.672	6.7
415.035	6.82
415.397	7.05
415.759	6.78
416.121	6.87
416.483	6.9
416.845	6.67
417.206	7.09
417.568	6.95
417.93	7.03
418.292	6.69
418.653	7.07
419.015	6.88
419.377	6.78
419.738	6.68
420.1	6.83
420.461	6.83
420.822	6.89
421.184	6.8
421.545	6.62
421.906	6.76
422.267	6.89
422.629	6.89
422.99	6.77
423.351	6.85
423.712	6.84
424.073	6.79
424.434	6.83
424.795	6.89
425.155	6.9
425.516	6.79
425.877	6.83
426.238	6.72
426.598	6.83
426.959	6.68
427.32	6.9
427.68	6.98
428.041	6.78
428.401	6.88
428.761	7
429.122	6.95
429.482	7.03
429.842	7.06
430.202	7.16
430.563	7.05
430.923	7.18
431.283	7.08
431.643	7.26
432.003	7.42
432.363	6.99
432.722	7.18
433.082	7.16
433.442	7.07
433.802	7.21
434.161	7.06
434.521	7.25
434.881	7.13
435.24	7.2
435.6	7.01
435.959	6.95
436.319	7.03
436.678	7.29
437.037	7.07
437.396	7.28
437.756	7.34
438.115	7.15
438.474	7.28
438.833	7.27
439.192	7.24
439.551	7.06
439.91	7.27
440.269	7.26
440.628	7.29
440.987	7.18
441.345	7.02
441.704	7.25
442.063	7.27
442.421	7.14
442.78	7.22
443.138	7.24
443.497	7.18
443.855	7.3
444.214	7.22
444.572	7.26
444.93	7.27
445.288	7.34
445.647	7.47
446.005	7.07
446.363	7.2
446.721	7.21
447.079	7.49
447.437	7.22
447.795	7.16
448.153	7.2
448.51	7.21
448.868	7.22
449.226	7.26
449.584	7.34
449.941	7.25
450.299	7.42
450.656	7.26
451.014	7.37
451.371	7.37
451.729	7.24
452.086	7.53
452.443	7.51
452.801	7.35
453.158	7.44
453.515	7.47
453.872	7.46
454.229	7.58
454.586	7.41
454.943	7.32
455.3	7.49
455.657	7.47
456.014	7.43
456.371	7.43
456.727	7.45
457.084	7.61
457.441	7.54
457.797	7.69
458.154	7.52
458.51	7.65
458.867	7.66
459.223	7.61
459.58	7.56
459.936	7.67
460.292	7.46
460.648	7.39
461.005	7.53
461.361	7.5
461.717	7.47
462.073	7.56
462.429	7.53
462.785	7.47
463.141	7.51
463.496	7.62
463.852	7.72
464.208	7.71
464.564	7.68
464.919	7.72
465.275	7.87
465.631	7.88
465.986	7.72
466.342	7.75
466.697	7.67
467.052	7.53
467.408	7.61
467.763	7.78
468.118	8.08
468.473	7.89
468.829	7.84
469.184	7.9
469.539	7.7
469.894	7.8
470.249	7.74
470.603	7.71
470.958	7.99
471.313	7.91
471.668	7.83
472.023	7.87
472.377	7.97
472.732	7.87
473.086	8.02
473.441	8.07
473.795	8.14
474.15	7.92
474.504	7.84
474.859	7.96
475.213	8.16
475.567	7.97
475.921	7.95
476.275	7.95
476.63	8.17
476.984	8.02
477.338	7.85
477.692	7.95
478.045	7.99
478.399	7.98
478.753	8.02
479.107	8.01
479.461	8.06
479.814	8.03
480.168	8.11
480.521	8.04
480.875	8.2
481.228	8.03
481.582	8.05
481.935	8.04
482.289	8.05
482.642	8.05
482.995	8.03
483.348	8.02
483.701	7.95
484.055	8.02
484.408	7.87
484.761	7.9
485.114	7.84
485.466	7.75
485.819	7.72
486.172	7.57
486.525	7.63
486.878	7.62
487.23	7.7
487.583	7.83
487.936	7.83
488.288	7.94
488.641	7.93
488.993	7.89
489.345	7.86
489.698	7.88
490.05	7.78
490.402	7.79
490.754	7.84
491.107	7.86
491.459	7.98
491.811	8.1
492.163	8.01
492.515	8.09
492.866	8.11
493.218	8.06
493.57	7.93
493.922	7.94
494.274	7.96
494.625	8.02
494.977	8.06
495.328	8.06
495.68	8.22
496.031	8.04
496.383	8.33
496.734	8.19
497.086	8.43
497.437	8.3
497.788	8.28
498.139	8.53
498.49	8.37
498.842	8.29
499.193	8.36
499.544	8.38
499.894	8.27
500.245	8.27
500.596	8.29
500.947	8.35
501.298	8.43
501.648	8.43
501.999	8.47
502.35	8.42
502.7	8.62
503.051	8.44
503.401	8.57
503.752	8.45
504.102	8.49
504.452	8.52
504.803	8.53
505.153	8.53
505.503	8.65
505.853	8.74
506.203	8.37
506.553	8.51
506.903	8.67
507.253	8.58
507.603	8.61
507.953	8.55
508.303	8.55
508.652	8.66
509.002	8.62
509.352	8.69
509.701	8.63
510.051	8.59
510.4	8.58
510.75	8.77
511.099	8.74
511.449	8.68
511.798	8.71
512.147	8.58
512.496	8.57
512.846	8.59
513.195	8.7
513.544	8.73
513.893	8.65
514.242	8.69
514.591	8.81
514.939	8.66
515.288	8.72
515.637	8.78
515.986	8.86
516.334	8.77
516.683	8.77
517.032	8.74
517.38	8.76
517.729	8.81
518.077	8.87
518.426	8.91
518.774	8.86
519.122	8.82
519.47	8.82
519.819	8.71
520.167	8.69
520.515	8.79
520.863	8.8
521.211	8.85
521.559	8.8
521.907	8.69
522.255	8.8
522.602	9.05
522.95	8.84
523.298	9.01
523.645	9.06
523.993	8.98
524.341	9.12
524.688	8.85
525.036	9.07
525.383	9.06
525.73	9.1
526.078	9.02
526.425	9.12
526.772	9.05
527.119	9.1
527.466	8.98
527.814	9.06
528.161	9.02
528.508	8.96
528.854	8.95
529.201	9.01
529.548	9
529.895	9.07
530.242	8.89
530.588	8.81
530.935	8.84
531.282	8.83
531.628	8.87
531.975	8.84
532.321	8.94
532.667	8.96
533.014	9.11
533.36	9.13
533.706	9.26
534.052	9.19
534.399	9.19
534.745	9.08
535.091	9.13
535.437	9.11
535.783	9.1
536.129	9.15
536.474	9.13
536.82	9.22
537.166	9.13
537.512	9.36
537.857	9.45
538.203	9.27
538.549	9.47
538.894	9.29
539.239	9.31
539.585	9.42
539.93	9.35
540.276	9.5
540.621	9.43
540.966	9.54
541.311	9.49
541.656	9.57
542.001	9.62
542.346	9.53
542.691	9.5
543.036	9.42
543.381	9.34
543.726	9.37
544.071	9.32
544.415	9.35
544.76	9.4
545.105	9.57
545.449	9.54
545.794	9.59
546.138	9.62
546.483	9.53
546.827	9.78
547.171	9.76
547.516	9.75
547.86	9.78
548.204	9.77
548.548	9.81
548.892	9.71
549.236	9.75
549.58	9.72
549.924	9.86
550.268	9.86
550.612	9.86
550.956	10.02
551.3	9.9
551.643	9.95
551.987	10.13
552.33	9.96
552.674	10
553.017	10
553.361	10.15
553.704	10.04
554.048	10.1
554.391	10.11
554.734	10.13
555.077	10.2
555.42	10.09
555.764	10.15
556.107	10.16
556.45	10.16
556.793	10.23
557.135	10.18
557.478	10.17
557.821	10.31
558.164	10.4
558.507	10.38
558.849	10.4
559.192	10.5
559.534	10.5
559.877	10.33
560.219	10.56
560.562	10.49
560.904	10.3
561.246	10.55
561.589	10.41
561.931	10.5
562.273	10.47
562.615	10.72
562.957	10.5
563.299	10.61
563.641	10.51
563.983	10.4
564.325	10.6
564.667	10.56
565.008	10.54
565.35	10.63
565.692	10.7
566.033	10.8
566.375	10.78
566.716	10.96
567.058	10.74
567.399	10.78
567.741	10.75
568.082	10.66
568.423	10.79
568.764	10.74
569.105	10.88
569.447	10.76
569.788	10.8
570.129	10.85
570.47	10.97
570.811	11.02
571.151	10.75
571.492	11.13
571.833	11.08
572.174	11.1
572.514	11.22
572.855	11.14
573.195	11.12
573.536	11.03
573.876	11.15
574.217	10.97
574.557	10.97
574.898	11.04
575.238	11.07
575.578	11.09
575.918	10.98
576.258	11.19
576.598	11.36
576.938	11.35
577.278	11.23
577.618	10.97
577.958	11.2
578.298	11.13
578.638	11.08
578.977	11.38
579.317	11.22
579.657	11.34
579.996	11.53
580.336	11.46
580.675	11.49
581.014	11.45
581.354	11.36
581.693	11.65
582.032	11.52
582.372	11.59
582.711	11.48
583.05	11.62
583.389	11.63
583.728	11.57
584.067	11.69
584.406	11.51
584.745	11.52
585.083	11.74
585.422	11.77
585.761	11.68
586.1	11.9
586.438	11.72
586.777	11.9
587.115	12
587.454	11.79
587.792	11.86
588.13	11.96
588.469	12.03
588.807	11.64
589.145	12.01
589.483	11.88
589.821	11.99
590.159	12.03
590.497	12.16
590.835	12.16
591.173	12.31
591.511	12.15
591.849	12.11
592.187	12.06
592.524	12.27
592.862	12.23
593.2	12.31
593.537	12.2
593.875	12.07
594.212	12.38
594.55	12.61
594.887	12.45
595.224	12.39
595.561	12.09
595.899	12.26
596.236	12.36
596.573	12.54
596.91	12.49
597.247	12.53
597.584	12.46
597.921	12.44
598.258	12.32
598.594	12.72
598.931	12.37
599.268	12.59
599.604	12.46
599.941	12.62
600.277	12.56
600.614	12.52
600.95	12.7
601.287	12.69
601.623	12.66
601.959	12.6
602.296	12.66
602.632	13.14
602.968	12.69
603.304	13.06
603.64	12.74
603.976	12.86
604.312	12.85
604.648	13.25
604.984	13.12
605.319	12.7
605.655	12.91
605.991	12.97
606.326	12.85
606.662	12.94
606.998	12.83
607.333	12.84
607.668	12.95
608.004	13.02
608.339	13.16
608.674	13.12
609.01	12.95
609.345	13.4
609.68	13.53
610.015	13.15
610.35	13.07
610.685	13.51
611.02	13.14
611.355	13.29
611.689	13.38
612.024	13.4
612.359	13.46
612.694	13.33
613.028	13.5
613.363	13.32
613.697	13.41
614.032	13.67
614.366	13.59
614.7	13.76
615.035	13.87
615.369	13.6
615.703	13.55
616.037	13.68
616.371	13.71
616.705	13.7
617.039	13.63
617.373	13.8
617.707	13.55
618.041	13.86
618.375	13.68
618.709	13.58
619.042	13.77
619.376	14.36
619.71	13.77
620.043	14.07
620.377	13.83
620.71	13.85
621.043	13.89
621.377	13.9
621.71	13.95
622.043	14.2
622.376	14.07
622.709	14.52
623.043	14.12
623.376	14.06
623.709	13.92
624.041	14.02
624.374	14.3
624.707	14.44
625.04	14.43
625.373	14.63
625.705	14.15
626.038	14.32
626.37	13.89
626.703	14.37
627.035	14.08
627.368	14.78
627.7	14.52
628.032	14.37
628.365	14.52
628.697	14.54
629.029	14.41
629.361	14.51
629.693	14.38
630.025	14.6
630.357	14.68
630.689	14.38
631.021	15.16
631.353	14.72
631.684	14.79
632.016	14.66
632.348	14.72
632.679	14.46
633.011	14.66
633.342	14.82
633.674	14.64
634.005	15.01
634.336	15.4
634.668	14.6
634.999	14.75
635.33	14.78
635.661	14.97
635.992	14.95
636.323	15.34
636.654	15.07
636.985	15.19
637.316	15.08
637.647	15.11
637.977	14.98
638.308	15.2
638.639	15.14
638.969	15.55
639.3	15.01
639.63	15.27
639.961	15.13
640.291	15.09
640.622	15.4
640.952	15.37
641.282	15.29
641.612	15.31
641.943	15.72
642.273	15.42
642.603	15.79
642.933	15.32
643.263	15.61
643.592	15.32
643.922	16
644.252	15.43
644.582	15.16
644.911	15.58
645.241	16.06
645.571	15.79
645.9	15.58
646.23	15.25
646.559	15.32
646.888	15.83
647.218	16.04
647.547	15.81
647.876	15.75
648.205	16.06
648.534	15.66
648.863	15.96
649.192	15.69
649.521	15.75
649.85	15.88
650.179	16.02
650.508	16.1
650.837	15.94
651.165	16.28
651.494	15.59
651.822	16.24
652.151	16.1
652.479	16.11
652.808	15.79
653.136	16.23
653.465	16.55
653.793	16.46
654.121	16.7
654.449	16.42
654.777	16.2
655.105	16.44
655.433	16.89
655.761	16.03
656.089	16.97
656.417	16.71
656.745	16.56
657.073	16.37
657.4	17.33
657.728	16.68
658.056	16.42
658.383	17.02
658.711	16.6
659.038	16.8
659.365	17.15
659.693	16.66
660.02	17.3
660.347	16.58
660.674	16.15
661.001	16.65
661.329	17.12
661.656	16.57
661.982	16.85
662.309	17.35
662.636	17.12
662.963	17.06
663.29	17.06
663.616	17.03
663.943	16.83
664.27	17.28
664.596	16.75
664.923	16.73
665.249	16.94
665.576	17.16
665.902	16.92
666.228	17.24
666.554	17.78
666.881	16.76
667.207	17.13
667.533	17.36
667.859	17.36
668.185	17.73
668.511	17.58
668.837	17.69
669.162	17.3
669.488	17.12
669.814	16.99
670.139	17.46
670.465	16.9
670.791	17.65
671.116	17.56
671.442	18.32
671.767	17.4
672.092	18.09
672.418	17.84
672.743	17.61
673.068	17.92
673.393	17.84
673.718	17.67
674.043	17.81
674.368	17.92
674.693	17.92
675.018	17.91
675.343	18.14
675.667	18.07
675.992	18.41
676.317	17.92
676.641	18.16
676.966	18.11
677.29	18.05
677.615	18.17
677.939	17.72
678.264	18.19
678.588	17.95
678.912	17.85
679.236	17.91
679.56	17.9
679.885	18.74
680.209	18.09
680.532	17.96
680.856	18.04
681.18	18.08
681.504	18.79
681.828	18.83
682.152	18.51
682.475	18.26
682.799	18.18
683.122	18.53
683.446	18.4
683.769	18.87
684.093	18.81
684.416	18.28
684.739	18.93
685.062	17.97
685.386	18.67
685.709	18.25
686.032	19.01
686.355	18.73
686.678	18.65
687.001	18.21
687.324	17.86
687.646	18.99
687.969	18.88
688.292	19.04
688.614	19.5
688.937	18.71
689.26	19.04
689.582	18.73
689.904	18.55
690.227	18.85
690.549	19.84
690.871	19.16
691.194	18.66
691.516	19.12
691.838	19.82
692.16	19.41
692.482	18.95
692.804	19.52
693.126	19.26
693.448	19.44
693.769	19.21
694.091	19.85
694.413	19.51
694.735	19.2
695.056	19.07
695.378	18.72
695.699	19.37
696.021	19.93
696.342	19.73
696.663	18.86
696.984	19.02
697.306	20.96
697.627	19.65
697.948	19.94
698.269	19.22
698.59	19.48
698.911	19
699.232	19.78
699.553	20.15
699.873	19.75
700.194	20.42
700.515	19.87
700.835	20.15
701.156	19.98
701.477	19.96
701.797	19.34
702.117	20.09
702.438	20.17
702.758	19.56
703.078	19.73
703.398	19.86
703.719	19.95
704.039	20.65
704.359	20.57
704.679	20.36
704.999	19.67
705.319	21.04
705.638	19.54
705.958	19.78
706.278	20.7
706.597	19.73
706.917	20.09
707.237	21.07
707.556	19.44
707.876	20.03
708.195	21.09
708.514	21.41
708.834	20.99
709.153	20.55
709.472	20.54
709.791	21.78
710.11	20.82
710.429	20.79
710.748	20.77
711.067	20.65
711.386	20.31
711.705	22.12
712.023	21.23
712.342	20.76
712.661	21.63
712.979	20.51
713.298	20.02
713.616	20.85
713.935	21.4
714.253	21.09
714.572	21.05
714.89	21.07
715.208	20.65
715.526	21.83
715.844	20.49
716.162	20.92
716.48	21.65
716.798	20.8
717.116	21.9
717.434	20.46
717.752	20.9
718.069	21.01
718.387	20.91
718.705	21.03
719.022	21.25
719.34	22.15
719.657	21.77
719.975	20.63
720.292	21.37
720.609	22.31
720.927	21.46
721.244	22.21
721.561	22.45
721.878	20.52
722.195	21.87
722.512	21.57
722.829	21.57
723.146	20.68
723.463	21.58
723.779	21.95
724.096	22.15
724.413	22.85
724.729	20.55
725.046	21.99
725.362	21.9
725.679	20.94
725.995	22.97
726.311	22.48
726.628	22.84
726.944	21.33
727.26	21.43
727.576	21.94
727.892	21.82
728.208	22.17
728.524	21.7
728.84	22.37
729.156	23.16
729.472	22.48
729.787	21.86
730.103	23.06
730.419	22.19
730.734	22.05
731.05	22.4
731.365	22.04
731.681	22.38
731.996	23.54
732.311	23.16
732.626	22.09
732.942	21.07
733.257	23.42
733.572	23.3
733.887	21.62
734.202	23.14
734.517	22.27
734.832	22.74
735.146	22.95
735.461	23.44
735.776	23.14
736.091	22.94
736.405	22.4
736.72	21.81
737.034	23.17
737.349	23.22
737.663	21.64
737.977	22.74
738.292	22.7
738.606	21.39
738.92	23.55
739.234	22.66
739.548	23.24
739.862	22.65
740.176	22.71
740.49	22.67
740.804	23.87
741.117	24.31
741.431	23.61
741.745	22.84
742.058	22.93
742.372	24.04
742.685	22.94
742.999	22.99
743.312	23.14
743.626	23.27
743.939	23.88
744.252	23.05
744.565	21.91
744.878	23.11
745.191	23.69
745.505	22.84
745.817	23.77
746.13	23.62
746.443	23.37
746.756	23.4
747.069	23.31
747.381	25.12
747.694	23.87
748.007	22.73
748.319	23.13
748.632	24.18
748.944	23.98
749.256	23.59
749.569	23.1
749.881	24.68
750.193	23.14
750.505	22.98
750.817	24.47
751.129	23.81
751.441	24.19
751.753	20.65
752.065	26.93
752.377	25.13
752.689	25.08
753	25.43
753.312	24.39
753.624	23.13
753.935	26.22
754.247	24.44
754.558	24.37
754.869	23.41
755.181	23.44
755.492	24.03
755.803	24.15
756.114	22.02
756.425	24.26
756.736	25.27
757.047	23.96
757.358	24.72
757.669	23.98
757.98	23.42
758.291	24.75
758.601	25.22
758.912	24.95
759.223	22.91
759.533	25.53
759.844	25.24
760.154	25.04
760.464	24.51
760.775	23.09
761.085	23.54
761.395	23.5
761.705	24.21
762.016	25.74
762.326	24.89
762.636	24.46
762.945	25.06
763.255	26.9
763.565	25.14
763.875	25.64
764.185	23.91
764.494	24.23
764.804	26.41
765.113	24.8
765.423	23.5
765.732	24.15
766.042	25.45
766.351	25.48
766.66	24.48
766.97	23.72
767.279	24
767.588	23.35
767.897	24.92
768.206	24.07
768.515	25.4
768.824	24.09
769.133	23.17
769.441	24.96
769.75	23.93
770.059	25.94
770.367	24.81
770.676	28.24
770.984	26.09
771.293	25.48
771.601	24.62
771.91	24.42
772.218	26.91
772.526	25.11
772.834	25.5
773.142	24.92
773.45	25.26
773.758	24.85
774.066	26.67
774.374	24.63
774.682	27.52
774.99	22.4
775.298	26.17
775.605	27.61
775.913	26.38
776.22	22.97
776.528	25.14
776.835	24.83
777.143	24.84
777.45	28.74
777.757	23.06
778.065	23.56
778.372	28.28
778.679	29.29
778.986	23.85
779.293	26.09
779.6	24.22
779.907	27.72
780.214	26.3
780.52	26.13
780.827	24.12
781.134	28.33
781.44	27.38
781.747	26.19
782.053	25.2
782.36	25.86
782.666	23.82
782.973	24.1
783.279	21.7
783.585	28.25
783.891	22.12
784.197	24.58
784.503	25.82
784.809	24.56
785.115	27.73
785.421	25.21
785.727	28.03
786.033	25.81
786.339	23.01
786.644	22.54
786.95	27.51
787.255	28.27
787.561	25.38
787.866	30.79
788.172	29.5
788.477	24.77
788.782	25.55
789.088	29.34
789.393	26.58
789.698	23.66
790.003	26.36
790.308	27.68
790.613	23.77
790.918	28.79
791.223	28.01
791.527	27.52
791.832	29.39
792.137	32.32
792.441	26.9
792.746	21.79
793.05	27.06
793.355	28.94
793.659	28.24
793.963	29.23
794.268	25.52
794.572	27.67
794.876	25.72
795.18	27.33
795.484	27.27
795.788	26.69
796.092	22.75
796.396	28.44
796.7	27.65
797.004	25.61
797.307	23.66
797.611	31.63
797.915	24.59
798.218	25.78
798.522	30.32
798.825	27.67
799.128	26.82
799.432	23.74
799.735	21.74
800.038	28.19
800.341	25.46
800.644	29.35
800.947	28.34
801.25	24.6
801.553	22.7
801.856	29.28
802.159	25.49
802.462	24.46
802.764	23.33
803.067	27.45
803.37	26.54
803.672	27.38
803.975	25.05
804.277	24.1
804.579	25.67
804.882	32.13
805.184	28.06
805.486	26
805.788	35.73
806.09	30.41
806.392	32.44
806.694	27.98
806.996	27.29
807.298	30.33
807.6	28.03
807.902	28.21
808.203	26.92
808.505	31.27
808.807	26.27
809.108	26.19
809.409	30.99
809.711	23.36
810.012	25.86
810.313	27.21
810.615	21.98
810.916	33.1
811.217	28.21
811.518	27.55
811.819	25.33
812.12	32.95
812.421	20.71
812.722	23.97
813.023	25.74
813.323	24.62
813.624	22.24
813.925	26.48
814.225	27.27
814.526	30.38
814.826	27.82
815.126	33.96
815.427	27.73
815.727	28.18
816.027	24.49
816.327	33.55
816.627	35.14
816.927	24.14
817.227	26.84
817.527	22.74
817.827	31.1
818.127	28.8
818.427	26.56
818.727	20.92
819.026	25.43
819.326	30.28
819.625	18.15
819.925	37.11
820.224	33.34
820.524	29.61
820.823	24.31
821.122	22.5
821.421	26.31
821.72	35.86
822.019	22.18
822.318	29.23
822.617	20.9
822.916	24.99
823.215	31.55
823.514	26.35
823.813	30.3
824.111	29.18
824.41	28.99
824.709	31.39
825.007	29.95
825.306	31.28
825.604	30.92
825.902	29.97
826.201	30.99
826.499	30.32
826.797	29.61
827.095	30.76
827.393	30.29
827.691	30.48
827.989	29.44
828.287	29.88
828.585	30.11
828.882	30.56
829.18	27.51
829.478	29.86
829.775	30.55
830.073	32.01
830.37	30.64
830.668	30.13
830.965	30.73
831.263	30.85
831.56	31.37
831.857	28.38
832.154	28.85
832.451	32.04
832.748	32.08
833.045	28.68
833.342	36.33
833.639	29.06
833.936	33.59
834.232	30.09
834.529	32.31
834.826	30.67
835.122	30.34
835.419	35.78
835.715	32.73
836.012	30.84
836.308	30.04
836.604	28.38
836.901	30.56
837.197	32.72
837.493	32.09
837.789	31.04
838.085	28.96
838.381	29.46
838.677	28.88
838.972	29.99
839.268	27.32
839.564	27.49
839.86	28.11
840.155	28.17
840.451	27.93
840.746	34.72
841.042	33.55
841.337	21.93
841.632	29.7
841.928	30.18
842.223	37.33
842.518	25.98
842.813	30.55
843.108	27.49
843.403	25.84
843.698	36.06
843.993	26.84
844.287	27.27
844.582	31.25
844.877	27.14
845.171	35.12
845.466	31.75
845.761	25.97
846.055	21.45
846.349	38.76
846.644	32.56
846.938	19.09
847.232	32.67
847.526	31.92
847.82	15.93
848.114	29.71
848.408	34.73
848.702	19.39
848.996	40.54
849.29	30.99
849.584	21.52
849.877	41.65
850.171	38.12
850.465	26.54
850.758	19.15
851.052	25.13
851.345	29.97
851.638	12.31
851.932	34.3
852.225	40.05
852.518	43.98
852.811	27
853.104	40.92
853.397	18.68
853.69	19.44
853.983	15.33
854.276	18.23
854.569	28
854.861	15.35
855.154	43.74
855.447	18.95
855.739	18.33
856.032	10.94
856.324	32.67
856.616	6.35
856.909	34.52
857.201	44.71
857.493	23.77
857.785	31.63
858.077	28.72
858.369	33.62
858.661	30.94
858.953	26.02
859.245	0.47
859.537	23.34
859.829	39.5
860.12	38.07
860.412	45.18
860.703	18.48
860.995	47.55
861.286	11.73
861.578	34.37
861.869	24.09
862.16	14.37
862.452	23.53
862.743	15.36
863.034	27.29
863.325	44.77
863.616	4.2
863.907	25.43
864.198	47.55
864.488	25.11
864.779	25.16
865.07	9.59
865.36	15.65
865.651	24.91
865.941	29.25
866.232	28.45
866.522	23.29
866.813	12.73
867.103	-1.17
867.393	19.69
867.683	31.53
867.973	49.27
868.263	42.34
868.553	38.01
868.843	8.03
869.133	21.5
869.423	23.13
869.713	35.15
870.002	38.01
870.292	41.9
870.582	58.07
870.871	48.43
871.161	20.77
871.45	56.32
871.739	27.16
872.029	13.25
872.318	40.69
872.607	42.88
872.896	58.32
873.185	49.75
873.474	14.03
873.763	10.59
874.052	17.97
874.341	25.99
874.63	40.48
874.918	12.76
875.207	34.13
875.496	17.81
875.784	17.83
876.073	20.92
876.361	30.23
876.649	38.78
876.938	14.8
877.226	18.23
877.514	4.47
877.802	13.17
878.09	3.33
878.378	71.58
878.666	-2.01
878.954	48.67
879.242	25.44
879.53	19.34
879.817	29.53
880.105	15.07
880.392	55.31
880.68	21.27
880.967	23
881.255	27.1
881.542	18.61
881.83	51.61
882.117	37.77
882.404	41.64
882.691	42.13
882.978	47.77
883.265	4.47
883.552	26.76
883.839	40.07
884.126	24.76
884.413	35.51
884.699	26.34
884.986	34.02
885.273	30.58
885.559	30.58
885.846	30.58
